frequency,raw,error,smoothed,error_smoothed,equalization,parametric_eq,fixed_band_eq,equalized_raw,equalized_smoothed,target
20.00,-1.70,-3.88,-1.70,-3.88,3.89,3.94,1.25,2.19,2.20,2.18
20.20,-1.66,-3.85,-1.66,-3.85,3.86,3.90,1.29,2.20,2.20,2.19
20.40,-1.62,-3.82,-1.62,-3.82,3.82,3.86,1.33,2.20,2.20,2.20
20.61,-1.58,-3.78,-1.58,-3.79,3.78,3.82,1.37,2.20,2.20,2.20
20.81,-1.55,-3.76,-1.55,-3.76,3.75,3.79,1.41,2.20,2.20,2.21
21.02,-1.51,-3.72,-1.51,-3.72,3.71,3.75,1.45,2.20,2.21,2.21
21.23,-1.46,-3.68,-1.46,-3.68,3.68,3.71,1.49,2.22,2.21,2.22
21.44,-1.42,-3.64,-1.42,-3.64,3.64,3.67,1.54,2.22,2.22,2.22
21.66,-1.38,-3.60,-1.37,-3.60,3.61,3.64,1.58,2.23,2.23,2.22
21.87,-1.33,-3.55,-1.34,-3.56,3.57,3.60,1.63,2.24,2.24,2.22
22.09,-1.30,-3.53,-1.30,-3.53,3.54,3.56,1.68,2.24,2.24,2.23
22.31,-1.28,-3.51,-1.27,-3.50,3.50,3.52,1.73,2.22,2.23,2.23
22.54,-1.25,-3.47,-1.25,-3.47,3.47,3.49,1.78,2.22,2.21,2.22
22.76,-1.23,-3.44,-1.23,-3.44,3.43,3.45,1.83,2.20,2.20,2.21
22.99,-1.20,-3.41,-1.20,-3.41,3.39,3.42,1.89,2.19,2.19,2.21
23.22,-1.16,-3.37,-1.16,-3.36,3.35,3.38,1.94,2.19,2.19,2.21
23.45,-1.11,-3.31,-1.11,-3.31,3.31,3.35,2.00,2.20,2.20,2.20
23.69,-1.06,-3.26,-1.06,-3.26,3.28,3.31,2.06,2.22,2.21,2.20
23.92,-1.02,-3.22,-1.02,-3.22,3.24,3.28,2.12,2.22,2.22,2.20
24.16,-0.99,-3.19,-0.99,-3.19,3.21,3.24,2.17,2.22,2.22,2.20
24.40,-0.98,-3.18,-0.98,-3.18,3.18,3.21,2.23,2.20,2.20,2.20
24.65,-0.97,-3.17,-0.97,-3.17,3.15,3.17,2.30,2.18,2.18,2.20
24.89,-0.96,-3.15,-0.95,-3.15,3.13,3.14,2.36,2.17,2.17,2.20
25.14,-0.93,-3.12,-0.93,-3.12,3.10,3.11,2.42,2.17,2.17,2.19
25.39,-0.89,-3.07,-0.89,-3.08,3.07,3.08,2.48,2.18,2.18,2.18
25.65,-0.85,-3.03,-0.85,-3.03,3.04,3.04,2.55,2.19,2.19,2.18
25.91,-0.81,-2.99,-0.81,-2.99,3.01,3.01,2.61,2.20,2.19,2.18
26.16,-0.78,-2.96,-0.78,-2.96,2.97,2.98,2.67,2.19,2.19,2.18
26.43,-0.76,-2.94,-0.75,-2.94,2.94,2.95,2.73,2.18,2.19,2.18
26.69,-0.73,-2.91,-0.73,-2.91,2.91,2.92,2.79,2.18,2.18,2.18
26.96,-0.70,-2.88,-0.70,-2.88,2.88,2.89,2.85,2.18,2.17,2.18
27.23,-0.68,-2.86,-0.68,-2.86,2.85,2.86,2.91,2.17,2.18,2.18
27.50,-0.65,-2.83,-0.65,-2.83,2.83,2.83,2.97,2.18,2.18,2.18
27.77,-0.62,-2.80,-0.62,-2.80,2.80,2.80,3.02,2.18,2.18,2.18
28.05,-0.59,-2.77,-0.59,-2.77,2.77,2.77,3.07,2.18,2.18,2.18
28.33,-0.57,-2.74,-0.57,-2.74,2.74,2.74,3.12,2.17,2.17,2.17
28.62,-0.54,-2.71,-0.54,-2.72,2.71,2.71,3.17,2.17,2.17,2.17
28.90,-0.51,-2.69,-0.51,-2.69,2.69,2.68,3.21,2.18,2.17,2.18
29.19,-0.48,-2.66,-0.48,-2.66,2.66,2.65,3.25,2.18,2.18,2.18
29.48,-0.45,-2.63,-0.45,-2.63,2.64,2.63,3.28,2.19,2.19,2.18
29.78,-0.42,-2.61,-0.42,-2.61,2.62,2.60,3.31,2.20,2.20,2.19
30.08,-0.40,-2.59,-0.40,-2.59,2.60,2.57,3.33,2.20,2.20,2.19
30.38,-0.39,-2.58,-0.39,-2.58,2.58,2.55,3.36,2.19,2.19,2.19
30.68,-0.38,-2.57,-0.38,-2.57,2.56,2.52,3.37,2.18,2.18,2.19
30.99,-0.37,-2.55,-0.37,-2.55,2.55,2.50,3.38,2.18,2.18,2.18
31.30,-0.35,-2.53,-0.35,-2.54,2.52,2.47,3.38,2.17,2.17,2.18
31.61,-0.33,-2.51,-0.33,-2.51,2.50,2.45,3.38,2.17,2.17,2.18
31.93,-0.31,-2.49,-0.31,-2.48,2.48,2.42,3.38,2.17,2.17,2.18
32.24,-0.28,-2.45,-0.28,-2.45,2.45,2.40,3.37,2.17,2.17,2.17
32.57,-0.25,-2.42,-0.25,-2.41,2.43,2.37,3.35,2.18,2.18,2.17
32.89,-0.21,-2.38,-0.22,-2.38,2.40,2.35,3.33,2.19,2.18,2.17
33.22,-0.20,-2.35,-0.21,-2.36,2.37,2.33,3.31,2.17,2.17,2.15
33.55,-0.20,-2.35,-0.20,-2.35,2.35,2.31,3.28,2.15,2.15,2.15
33.89,-0.20,-2.34,-0.19,-2.33,2.32,2.28,3.24,2.12,2.13,2.14
34.23,-0.17,-2.31,-0.17,-2.31,2.29,2.26,3.21,2.12,2.12,2.14
34.57,-0.14,-2.28,-0.14,-2.27,2.26,2.24,3.17,2.12,2.12,2.14
34.92,-0.10,-2.23,-0.10,-2.24,2.23,2.22,3.13,2.13,2.13,2.13
35.27,-0.06,-2.19,-0.06,-2.19,2.20,2.20,3.08,2.14,2.14,2.13
35.62,-0.03,-2.16,-0.02,-2.15,2.17,2.18,3.03,2.14,2.15,2.13
35.97,0.01,-2.12,-0.00,-2.13,2.15,2.16,2.98,2.16,2.15,2.13
36.33,0.01,-2.11,0.01,-2.11,2.13,2.14,2.93,2.14,2.14,2.12
36.70,0.01,-2.11,0.01,-2.11,2.12,2.12,2.88,2.13,2.13,2.12
37.06,0.01,-2.11,0.01,-2.11,2.11,2.10,2.82,2.12,2.12,2.12
37.43,0.01,-2.11,0.01,-2.11,2.11,2.08,2.77,2.12,2.12,2.12
37.81,0.01,-2.11,0.01,-2.11,2.11,2.07,2.72,2.12,2.12,2.12
38.19,0.01,-2.11,0.01,-2.11,2.10,2.05,2.66,2.11,2.12,2.12
38.57,0.02,-2.10,0.02,-2.10,2.09,2.03,2.61,2.11,2.11,2.12
38.95,0.03,-2.09,0.03,-2.09,2.08,2.01,2.55,2.11,2.11,2.13
39.34,0.05,-2.07,0.05,-2.07,2.05,2.00,2.50,2.10,2.10,2.12
39.74,0.08,-2.04,0.08,-2.04,2.02,1.98,2.44,2.10,2.11,2.12
40.14,0.12,-2.00,0.12,-1.99,1.99,1.96,2.39,2.11,2.11,2.12
40.54,0.16,-1.95,0.16,-1.95,1.96,1.95,2.34,2.12,2.12,2.11
40.94,0.20,-1.91,0.19,-1.92,1.93,1.93,2.29,2.13,2.13,2.11
41.35,0.21,-1.89,0.21,-1.89,1.91,1.92,2.24,2.12,2.12,2.10
41.76,0.21,-1.88,0.21,-1.88,1.89,1.90,2.19,2.10,2.10,2.09
42.18,0.21,-1.88,0.21,-1.88,1.87,1.89,2.15,2.08,2.09,2.09
42.60,0.21,-1.87,0.21,-1.87,1.86,1.87,2.10,2.07,2.07,2.08
43.03,0.21,-1.87,0.21,-1.87,1.86,1.86,2.06,2.07,2.07,2.08
43.46,0.21,-1.86,0.21,-1.86,1.85,1.84,2.02,2.06,2.06,2.07
43.90,0.21,-1.85,0.21,-1.85,1.85,1.83,1.98,2.06,2.06,2.06
44.33,0.21,-1.84,0.21,-1.84,1.84,1.81,1.94,2.05,2.05,2.05
44.78,0.21,-1.84,0.21,-1.84,1.84,1.80,1.90,2.05,2.05,2.05
45.23,0.21,-1.83,0.21,-1.83,1.84,1.79,1.87,2.05,2.05,2.04
45.68,0.21,-1.83,0.21,-1.83,1.84,1.77,1.83,2.05,2.05,2.04
46.13,0.21,-1.83,0.21,-1.83,1.83,1.76,1.80,2.04,2.04,2.04
46.60,0.21,-1.82,0.21,-1.83,1.83,1.75,1.77,2.04,2.04,2.03
47.06,0.21,-1.83,0.20,-1.83,1.82,1.73,1.74,2.03,2.02,2.04
47.53,0.21,-1.83,0.21,-1.83,1.80,1.72,1.71,2.01,2.01,2.04
48.01,0.21,-1.83,0.23,-1.81,1.79,1.71,1.68,2.00,2.03,2.05
48.49,0.27,-1.78,0.27,-1.78,1.78,1.69,1.66,2.05,2.05,2.05
48.97,0.33,-1.72,0.30,-1.75,1.77,1.68,1.64,2.10,2.07,2.05
49.46,0.32,-1.73,0.32,-1.73,1.77,1.67,1.61,2.09,2.09,2.05
49.96,0.31,-1.76,0.32,-1.74,1.76,1.65,1.59,2.07,2.08,2.07
50.46,0.31,-1.76,0.31,-1.76,1.76,1.64,1.57,2.07,2.07,2.07
50.96,0.31,-1.77,0.31,-1.77,1.76,1.62,1.55,2.07,2.07,2.08
51.47,0.31,-1.77,0.31,-1.77,1.76,1.61,1.53,2.07,2.07,2.08
51.99,0.30,-1.78,0.30,-1.79,1.76,1.60,1.51,2.07,2.06,2.08
52.51,0.30,-1.78,0.30,-1.78,1.76,1.58,1.49,2.06,2.06,2.08
53.03,0.30,-1.78,0.32,-1.76,1.76,1.57,1.48,2.06,2.08,2.08
53.56,0.36,-1.72,0.36,-1.73,1.74,1.56,1.46,2.10,2.10,2.08
54.10,0.41,-1.68,0.39,-1.70,1.72,1.54,1.45,2.13,2.11,2.09
54.64,0.41,-1.68,0.41,-1.68,1.70,1.53,1.43,2.11,2.11,2.09
55.18,0.41,-1.68,0.41,-1.68,1.67,1.51,1.41,2.08,2.08,2.09
55.74,0.41,-1.67,0.43,-1.66,1.64,1.50,1.40,2.05,2.07,2.08
56.29,0.45,-1.63,0.46,-1.62,1.62,1.48,1.38,2.07,2.07,2.08
56.86,0.51,-1.57,0.49,-1.58,1.59,1.46,1.37,2.10,2.08,2.08
57.42,0.52,-1.55,0.51,-1.55,1.57,1.45,1.35,2.09,2.09,2.07
58.00,0.51,-1.54,0.52,-1.54,1.56,1.43,1.33,2.07,2.07,2.05
58.58,0.51,-1.53,0.51,-1.53,1.54,1.41,1.32,2.05,2.05,2.04
59.16,0.51,-1.52,0.51,-1.52,1.52,1.40,1.30,2.03,2.03,2.03
59.76,0.51,-1.50,0.51,-1.50,1.50,1.38,1.28,2.01,2.01,2.01
60.35,0.51,-1.48,0.51,-1.48,1.47,1.36,1.26,1.98,1.98,1.99
60.96,0.51,-1.46,0.50,-1.47,1.44,1.34,1.24,1.95,1.94,1.97
61.57,0.50,-1.44,0.51,-1.43,1.40,1.32,1.22,1.90,1.91,1.94
62.18,0.51,-1.39,0.54,-1.37,1.35,1.30,1.19,1.86,1.89,1.90
62.80,0.59,-1.28,0.57,-1.30,1.30,1.28,1.17,1.89,1.87,1.87
63.43,0.61,-1.21,0.60,-1.22,1.25,1.26,1.14,1.86,1.85,1.82
64.07,0.61,-1.17,0.62,-1.17,1.19,1.24,1.12,1.80,1.81,1.78
64.71,0.61,-1.13,0.61,-1.13,1.14,1.22,1.09,1.75,1.75,1.74
65.35,0.61,-1.09,0.61,-1.09,1.09,1.20,1.06,1.70,1.70,1.70
66.01,0.61,-1.05,0.61,-1.05,1.05,1.17,1.03,1.66,1.66,1.66
66.67,0.61,-1.01,0.61,-1.01,1.01,1.15,1.00,1.62,1.62,1.62
67.33,0.61,-0.98,0.61,-0.98,0.98,1.13,0.97,1.59,1.59,1.59
68.01,0.61,-0.94,0.61,-0.94,0.94,1.10,0.94,1.55,1.55,1.55
68.69,0.61,-0.91,0.61,-0.91,0.91,1.08,0.91,1.52,1.52,1.52
69.37,0.61,-0.88,0.61,-0.88,0.88,1.05,0.87,1.49,1.49,1.49
70.07,0.61,-0.85,0.61,-0.85,0.85,1.02,0.84,1.46,1.46,1.46
70.77,0.61,-0.82,0.61,-0.82,0.82,1.00,0.80,1.43,1.43,1.43
71.48,0.61,-0.79,0.61,-0.79,0.79,0.97,0.76,1.40,1.40,1.40
72.19,0.61,-0.76,0.61,-0.76,0.75,0.94,0.73,1.36,1.36,1.37
72.91,0.61,-0.73,0.61,-0.73,0.72,0.91,0.69,1.33,1.33,1.34
73.64,0.61,-0.69,0.61,-0.69,0.69,0.88,0.65,1.30,1.30,1.30
74.38,0.61,-0.66,0.61,-0.65,0.66,0.85,0.61,1.27,1.27,1.27
75.12,0.61,-0.62,0.61,-0.62,0.63,0.81,0.58,1.24,1.25,1.23
75.87,0.61,-0.57,0.60,-0.58,0.61,0.78,0.54,1.22,1.21,1.18
76.63,0.58,-0.57,0.57,-0.57,0.58,0.75,0.50,1.16,1.15,1.15
77.40,0.54,-0.56,0.54,-0.56,0.55,0.71,0.46,1.09,1.09,1.10
78.17,0.49,-0.57,0.51,-0.55,0.52,0.68,0.42,1.01,1.04,1.06
78.95,0.51,-0.50,0.50,-0.51,0.49,0.64,0.38,1.00,0.99,1.01
79.74,0.51,-0.46,0.50,-0.47,0.45,0.61,0.34,0.96,0.96,0.97
80.54,0.51,-0.41,0.51,-0.41,0.42,0.57,0.30,0.93,0.93,0.92
81.35,0.51,-0.37,0.51,-0.37,0.38,0.53,0.26,0.89,0.89,0.88
82.16,0.51,-0.33,0.51,-0.33,0.34,0.49,0.22,0.85,0.85,0.84
82.98,0.51,-0.29,0.52,-0.29,0.31,0.45,0.18,0.82,0.82,0.80
83.81,0.51,-0.25,0.51,-0.25,0.28,0.41,0.14,0.79,0.79,0.76
84.65,0.51,-0.22,0.49,-0.24,0.25,0.37,0.10,0.76,0.74,0.73
85.50,0.45,-0.24,0.45,-0.24,0.23,0.33,0.06,0.68,0.68,0.69
86.35,0.39,-0.25,0.41,-0.23,0.20,0.29,0.02,0.59,0.62,0.64
87.22,0.39,-0.21,0.39,-0.21,0.18,0.25,-0.02,0.57,0.57,0.60
88.09,0.41,-0.14,0.40,-0.16,0.15,0.21,-0.06,0.56,0.55,0.56
88.97,0.41,-0.11,0.41,-0.11,0.12,0.16,-0.10,0.53,0.53,0.52
89.86,0.41,-0.07,0.41,-0.06,0.08,0.12,-0.14,0.49,0.50,0.48
90.76,0.41,-0.02,0.41,-0.02,0.04,0.07,-0.18,0.45,0.45,0.43
91.66,0.41,0.02,0.40,0.01,-0.01,0.03,-0.23,0.40,0.39,0.39
92.58,0.40,0.04,0.40,0.04,-0.06,-0.01,-0.27,0.34,0.34,0.36
93.51,0.39,0.08,0.41,0.09,-0.11,-0.06,-0.31,0.28,0.30,0.31
94.44,0.43,0.15,0.44,0.16,-0.17,-0.11,-0.35,0.26,0.27,0.28
95.39,0.50,0.26,0.47,0.24,-0.24,-0.15,-0.39,0.26,0.24,0.24
96.34,0.51,0.31,0.51,0.31,-0.31,-0.20,-0.43,0.20,0.20,0.20
97.30,0.52,0.36,0.53,0.37,-0.38,-0.24,-0.47,0.14,0.15,0.16
98.28,0.55,0.43,0.56,0.44,-0.45,-0.29,-0.51,0.10,0.11,0.12
99.26,0.61,0.53,0.60,0.52,-0.52,-0.34,-0.55,0.09,0.09,0.08
100.25,0.65,0.61,0.64,0.60,-0.58,-0.38,-0.59,0.07,0.06,0.04
101.25,0.65,0.65,0.65,0.65,-0.63,-0.43,-0.63,0.02,0.02,0.00
102.27,0.63,0.68,0.64,0.68,-0.67,-0.48,-0.67,-0.04,-0.04,-0.05
103.29,0.62,0.71,0.62,0.71,-0.71,-0.53,-0.71,-0.09,-0.09,-0.09
104.32,0.60,0.74,0.60,0.74,-0.74,-0.57,-0.75,-0.14,-0.14,-0.14
105.37,0.58,0.76,0.58,0.76,-0.77,-0.62,-0.79,-0.19,-0.19,-0.18
106.42,0.55,0.78,0.55,0.78,-0.79,-0.67,-0.83,-0.24,-0.24,-0.23
107.48,0.53,0.81,0.53,0.81,-0.82,-0.71,-0.87,-0.29,-0.29,-0.28
108.56,0.51,0.84,0.51,0.84,-0.84,-0.76,-0.91,-0.33,-0.33,-0.33
109.64,0.49,0.86,0.49,0.86,-0.86,-0.81,-0.95,-0.37,-0.37,-0.37
110.74,0.47,0.88,0.48,0.89,-0.88,-0.85,-0.98,-0.41,-0.40,-0.41
111.85,0.45,0.90,0.46,0.91,-0.89,-0.90,-1.02,-0.44,-0.43,-0.45
112.97,0.46,0.95,0.43,0.92,-0.90,-0.94,-1.05,-0.44,-0.47,-0.49
114.10,0.40,0.93,0.39,0.92,-0.92,-0.99,-1.09,-0.52,-0.52,-0.52
115.24,0.33,0.88,0.36,0.91,-0.93,-1.03,-1.12,-0.60,-0.57,-0.55
116.39,0.33,0.92,0.33,0.91,-0.94,-1.08,-1.15,-0.61,-0.61,-0.59
117.55,0.34,0.95,0.33,0.94,-0.95,-1.12,-1.18,-0.61,-0.62,-0.61
118.73,0.34,0.97,0.34,0.97,-0.96,-1.16,-1.21,-0.62,-0.62,-0.63
119.92,0.35,1.00,0.35,1.00,-0.98,-1.21,-1.23,-0.63,-0.64,-0.65
121.12,0.35,1.01,0.35,1.02,-1.01,-1.25,-1.26,-0.66,-0.66,-0.66
122.33,0.36,1.04,0.36,1.04,-1.05,-1.29,-1.28,-0.69,-0.69,-0.68
123.55,0.37,1.06,0.37,1.06,-1.08,-1.33,-1.30,-0.71,-0.72,-0.69
124.79,0.38,1.09,0.40,1.11,-1.12,-1.37,-1.32,-0.74,-0.72,-0.71
126.03,0.44,1.16,0.44,1.16,-1.16,-1.41,-1.34,-0.72,-0.72,-0.72
127.29,0.49,1.23,0.47,1.21,-1.19,-1.45,-1.36,-0.70,-0.72,-0.74
128.57,0.50,1.25,0.50,1.25,-1.23,-1.49,-1.37,-0.73,-0.73,-0.75
129.85,0.50,1.26,0.51,1.27,-1.26,-1.52,-1.38,-0.76,-0.75,-0.76
131.15,0.51,1.29,0.51,1.29,-1.29,-1.56,-1.40,-0.78,-0.78,-0.78
132.46,0.51,1.31,0.51,1.31,-1.32,-1.59,-1.41,-0.81,-0.80,-0.80
133.79,0.52,1.33,0.52,1.33,-1.33,-1.63,-1.42,-0.81,-0.82,-0.81
135.12,0.52,1.35,0.52,1.35,-1.35,-1.66,-1.43,-0.83,-0.82,-0.83
136.48,0.53,1.37,0.53,1.37,-1.36,-1.70,-1.43,-0.83,-0.83,-0.84
137.84,0.53,1.39,0.53,1.39,-1.38,-1.73,-1.44,-0.85,-0.85,-0.86
139.22,0.53,1.41,0.53,1.41,-1.40,-1.76,-1.45,-0.87,-0.87,-0.88
140.61,0.53,1.43,0.52,1.42,-1.43,-1.79,-1.45,-0.90,-0.91,-0.90
142.02,0.52,1.44,0.52,1.44,-1.47,-1.82,-1.45,-0.95,-0.95,-0.92
143.44,0.51,1.45,0.54,1.48,-1.50,-1.85,-1.46,-0.99,-0.96,-0.94
144.87,0.59,1.56,0.57,1.54,-1.54,-1.87,-1.46,-0.95,-0.97,-0.97
146.32,0.62,1.62,0.61,1.61,-1.59,-1.90,-1.47,-0.97,-0.98,-1.00
147.78,0.63,1.66,0.63,1.66,-1.64,-1.93,-1.47,-1.01,-1.01,-1.03
149.26,0.63,1.70,0.63,1.70,-1.70,-1.95,-1.48,-1.07,-1.07,-1.07
150.75,0.63,1.74,0.63,1.75,-1.76,-1.98,-1.48,-1.13,-1.13,-1.11
152.26,0.63,1.80,0.63,1.80,-1.81,-2.00,-1.48,-1.18,-1.18,-1.17
153.78,0.63,1.85,0.63,1.85,-1.86,-2.02,-1.49,-1.23,-1.23,-1.22
155.32,0.63,1.91,0.63,1.91,-1.91,-2.04,-1.50,-1.28,-1.28,-1.28
156.88,0.63,1.97,0.64,1.98,-1.95,-2.06,-1.50,-1.32,-1.32,-1.34
158.44,0.63,2.03,0.62,2.01,-1.99,-2.08,-1.51,-1.36,-1.37,-1.40
160.03,0.60,2.05,0.59,2.03,-2.03,-2.10,-1.52,-1.43,-1.44,-1.45
161.63,0.53,2.02,0.55,2.05,-2.06,-2.12,-1.53,-1.53,-1.51,-1.49
163.24,0.52,2.06,0.53,2.06,-2.08,-2.13,-1.54,-1.56,-1.55,-1.54
164.88,0.53,2.10,0.52,2.09,-2.09,-2.15,-1.55,-1.56,-1.57,-1.57
166.53,0.52,2.12,0.52,2.12,-2.10,-2.17,-1.56,-1.58,-1.58,-1.60
168.19,0.52,2.14,0.52,2.14,-2.11,-2.18,-1.57,-1.59,-1.59,-1.62
169.87,0.51,2.14,0.51,2.14,-2.13,-2.19,-1.59,-1.62,-1.62,-1.63
171.57,0.50,2.13,0.48,2.11,-2.15,-2.21,-1.60,-1.65,-1.67,-1.63
173.29,0.49,2.12,0.49,2.12,-2.17,-2.22,-1.62,-1.68,-1.68,-1.63
175.02,0.47,2.09,0.54,2.16,-2.19,-2.23,-1.64,-1.72,-1.65,-1.62
176.77,0.66,2.26,0.61,2.21,-2.20,-2.24,-1.66,-1.54,-1.59,-1.60
178.54,0.70,2.29,0.67,2.26,-2.22,-2.25,-1.68,-1.52,-1.54,-1.59
180.32,0.70,2.27,0.72,2.28,-2.23,-2.26,-1.70,-1.53,-1.52,-1.57
182.13,0.70,2.25,0.71,2.25,-2.24,-2.27,-1.73,-1.54,-1.54,-1.55
183.95,0.71,2.23,0.71,2.24,-2.25,-2.28,-1.75,-1.54,-1.55,-1.52
185.79,0.72,2.24,0.72,2.24,-2.26,-2.28,-1.78,-1.54,-1.54,-1.52
187.65,0.73,2.24,0.73,2.24,-2.26,-2.29,-1.81,-1.53,-1.53,-1.51
189.52,0.75,2.26,0.75,2.25,-2.26,-2.30,-1.83,-1.51,-1.51,-1.51
191.42,0.76,2.27,0.76,2.27,-2.27,-2.30,-1.86,-1.51,-1.51,-1.51
193.33,0.78,2.28,0.78,2.28,-2.28,-2.31,-1.89,-1.50,-1.50,-1.50
195.27,0.79,2.29,0.79,2.30,-2.30,-2.31,-1.93,-1.51,-1.50,-1.50
197.22,0.81,2.32,0.81,2.32,-2.31,-2.32,-1.96,-1.50,-1.51,-1.51
199.19,0.82,2.33,0.82,2.33,-2.33,-2.32,-1.99,-1.51,-1.51,-1.51
201.18,0.82,2.35,0.82,2.35,-2.35,-2.32,-2.03,-1.53,-1.52,-1.53
203.19,0.83,2.37,0.83,2.36,-2.36,-2.33,-2.06,-1.53,-1.53,-1.54
205.23,0.83,2.38,0.83,2.37,-2.38,-2.33,-2.10,-1.55,-1.55,-1.55
207.28,0.83,2.39,0.83,2.39,-2.39,-2.33,-2.13,-1.56,-1.56,-1.56
209.35,0.83,2.40,0.83,2.40,-2.40,-2.33,-2.17,-1.57,-1.57,-1.57
211.44,0.83,2.41,0.83,2.41,-2.41,-2.34,-2.21,-1.58,-1.58,-1.58
213.56,0.82,2.41,0.82,2.42,-2.42,-2.34,-2.24,-1.60,-1.60,-1.59
215.69,0.82,2.43,0.82,2.43,-2.43,-2.34,-2.28,-1.61,-1.61,-1.61
217.85,0.82,2.44,0.82,2.44,-2.44,-2.34,-2.32,-1.62,-1.62,-1.62
220.03,0.81,2.45,0.81,2.45,-2.45,-2.34,-2.35,-1.64,-1.63,-1.64
222.23,0.81,2.46,0.81,2.46,-2.46,-2.34,-2.39,-1.64,-1.64,-1.65
224.45,0.81,2.46,0.81,2.46,-2.46,-2.34,-2.42,-1.65,-1.66,-1.65
226.70,0.81,2.47,0.81,2.47,-2.47,-2.34,-2.45,-1.66,-1.66,-1.66
228.96,0.81,2.48,0.81,2.48,-2.48,-2.34,-2.48,-1.67,-1.67,-1.67
231.25,0.82,2.48,0.82,2.49,-2.49,-2.34,-2.51,-1.67,-1.67,-1.66
233.57,0.83,2.50,0.83,2.50,-2.50,-2.35,-2.54,-1.67,-1.67,-1.67
235.90,0.84,2.51,0.84,2.51,-2.51,-2.35,-2.57,-1.67,-1.66,-1.67
238.26,0.86,2.52,0.86,2.52,-2.52,-2.35,-2.59,-1.66,-1.66,-1.66
240.64,0.88,2.53,0.87,2.53,-2.53,-2.35,-2.61,-1.65,-1.65,-1.65
243.05,0.89,2.53,0.89,2.54,-2.54,-2.35,-2.63,-1.65,-1.65,-1.64
245.48,0.91,2.55,0.91,2.55,-2.56,-2.35,-2.65,-1.65,-1.65,-1.64
247.93,0.94,2.58,0.94,2.57,-2.58,-2.35,-2.66,-1.64,-1.64,-1.64
250.41,0.96,2.59,0.96,2.59,-2.59,-2.35,-2.68,-1.63,-1.64,-1.63
252.92,0.97,2.60,0.97,2.60,-2.60,-2.35,-2.69,-1.63,-1.63,-1.63
255.45,0.98,2.61,0.99,2.62,-2.61,-2.35,-2.69,-1.63,-1.62,-1.63
258.00,1.00,2.63,1.00,2.64,-2.61,-2.35,-2.70,-1.61,-1.60,-1.63
260.58,1.02,2.66,0.99,2.63,-2.60,-2.35,-2.70,-1.58,-1.61,-1.64
263.19,0.96,2.60,0.96,2.60,-2.59,-2.35,-2.70,-1.63,-1.63,-1.64
265.82,0.90,2.55,0.92,2.57,-2.59,-2.35,-2.70,-1.69,-1.66,-1.65
268.48,0.89,2.54,0.89,2.54,-2.58,-2.35,-2.70,-1.69,-1.69,-1.65
271.16,0.89,2.55,0.88,2.54,-2.57,-2.36,-2.69,-1.68,-1.68,-1.66
273.87,0.89,2.55,0.89,2.55,-2.55,-2.36,-2.69,-1.66,-1.67,-1.66
276.61,0.89,2.55,0.89,2.55,-2.54,-2.36,-2.68,-1.65,-1.65,-1.66
279.38,0.89,2.56,0.89,2.56,-2.53,-2.36,-2.67,-1.64,-1.64,-1.67
282.17,0.89,2.55,0.89,2.55,-2.52,-2.37,-2.66,-1.63,-1.63,-1.66
284.99,0.89,2.54,0.87,2.52,-2.52,-2.37,-2.65,-1.63,-1.65,-1.65
287.84,0.84,2.50,0.84,2.49,-2.51,-2.37,-2.64,-1.67,-1.67,-1.66
290.72,0.79,2.44,0.82,2.47,-2.49,-2.38,-2.63,-1.70,-1.67,-1.65
293.63,0.82,2.46,0.83,2.47,-2.48,-2.38,-2.62,-1.66,-1.65,-1.64
296.57,0.85,2.48,0.84,2.47,-2.46,-2.38,-2.61,-1.61,-1.62,-1.63
299.53,0.87,2.51,0.84,2.47,-2.45,-2.39,-2.60,-1.58,-1.61,-1.64
302.53,0.79,2.42,0.81,2.44,-2.44,-2.39,-2.59,-1.65,-1.63,-1.63
305.55,0.77,2.40,0.79,2.42,-2.43,-2.40,-2.58,-1.66,-1.65,-1.63
308.61,0.78,2.41,0.78,2.41,-2.43,-2.40,-2.57,-1.65,-1.65,-1.63
311.69,0.79,2.43,0.79,2.42,-2.42,-2.41,-2.57,-1.63,-1.63,-1.64
314.81,0.79,2.44,0.77,2.42,-2.40,-2.42,-2.56,-1.61,-1.63,-1.65
317.96,0.74,2.39,0.74,2.40,-2.39,-2.42,-2.56,-1.65,-1.64,-1.65
321.14,0.70,2.36,0.72,2.38,-2.37,-2.43,-2.56,-1.67,-1.66,-1.66
324.35,0.69,2.35,0.69,2.36,-2.36,-2.44,-2.56,-1.67,-1.67,-1.66
327.59,0.69,2.37,0.67,2.35,-2.34,-2.44,-2.56,-1.65,-1.67,-1.68
330.87,0.65,2.34,0.65,2.33,-2.33,-2.45,-2.56,-1.68,-1.68,-1.69
334.18,0.60,2.30,0.61,2.31,-2.32,-2.46,-2.56,-1.72,-1.70,-1.70
337.52,0.59,2.30,0.59,2.30,-2.31,-2.47,-2.57,-1.72,-1.72,-1.71
340.90,0.58,2.29,0.58,2.30,-2.31,-2.48,-2.58,-1.73,-1.73,-1.71
344.30,0.58,2.30,0.58,2.31,-2.31,-2.49,-2.59,-1.73,-1.73,-1.72
347.75,0.58,2.33,0.58,2.32,-2.32,-2.50,-2.60,-1.74,-1.74,-1.75
351.23,0.58,2.34,0.58,2.34,-2.33,-2.51,-2.62,-1.75,-1.75,-1.76
354.74,0.59,2.36,0.59,2.36,-2.35,-2.52,-2.63,-1.76,-1.76,-1.77
358.28,0.59,2.37,0.59,2.37,-2.37,-2.53,-2.65,-1.78,-1.77,-1.78
361.87,0.60,2.39,0.60,2.39,-2.38,-2.55,-2.67,-1.78,-1.79,-1.79
365.49,0.60,2.41,0.60,2.41,-2.40,-2.56,-2.70,-1.80,-1.80,-1.81
369.14,0.61,2.43,0.61,2.43,-2.43,-2.57,-2.72,-1.82,-1.82,-1.82
372.83,0.62,2.46,0.61,2.45,-2.46,-2.58,-2.75,-1.84,-1.85,-1.84
376.56,0.63,2.48,0.63,2.47,-2.50,-2.60,-2.78,-1.87,-1.87,-1.85
380.33,0.63,2.49,0.66,2.51,-2.54,-2.61,-2.81,-1.91,-1.89,-1.86
384.13,0.72,2.59,0.70,2.57,-2.59,-2.63,-2.84,-1.87,-1.89,-1.87
387.97,0.75,2.63,0.76,2.64,-2.63,-2.64,-2.87,-1.88,-1.87,-1.88
391.85,0.82,2.71,0.81,2.70,-2.68,-2.66,-2.91,-1.85,-1.86,-1.89
395.77,0.85,2.75,0.84,2.74,-2.71,-2.67,-2.95,-1.86,-1.87,-1.90
399.73,0.85,2.76,0.86,2.77,-2.75,-2.69,-2.98,-1.90,-1.89,-1.91
403.72,0.85,2.77,0.85,2.78,-2.78,-2.70,-3.02,-1.93,-1.92,-1.92
407.76,0.85,2.79,0.85,2.79,-2.79,-2.72,-3.06,-1.94,-1.95,-1.94
411.84,0.84,2.79,0.84,2.80,-2.80,-2.74,-3.10,-1.96,-1.96,-1.95
415.96,0.84,2.81,0.84,2.80,-2.81,-2.75,-3.15,-1.97,-1.97,-1.97
420.12,0.84,2.81,0.84,2.81,-2.82,-2.77,-3.19,-1.98,-1.97,-1.97
424.32,0.85,2.83,0.85,2.82,-2.83,-2.79,-3.23,-1.98,-1.98,-1.98
428.56,0.86,2.84,0.86,2.83,-2.84,-2.81,-3.27,-1.98,-1.98,-1.98
432.85,0.87,2.84,0.87,2.84,-2.85,-2.83,-3.31,-1.98,-1.98,-1.97
437.18,0.90,2.86,0.90,2.86,-2.87,-2.85,-3.35,-1.97,-1.97,-1.96
441.55,0.93,2.87,0.93,2.87,-2.88,-2.87,-3.39,-1.95,-1.94,-1.94
445.96,0.98,2.90,0.99,2.90,-2.89,-2.89,-3.42,-1.91,-1.90,-1.92
450.42,1.03,2.92,1.03,2.92,-2.90,-2.91,-3.46,-1.87,-1.86,-1.89
454.93,1.09,2.94,1.07,2.92,-2.90,-2.93,-3.49,-1.81,-1.84,-1.85
459.48,1.08,2.89,1.09,2.91,-2.91,-2.95,-3.52,-1.83,-1.82,-1.81
464.07,1.11,2.89,1.12,2.90,-2.92,-2.97,-3.55,-1.81,-1.80,-1.78
468.71,1.16,2.90,1.16,2.90,-2.93,-2.99,-3.57,-1.77,-1.76,-1.74
473.40,1.23,2.93,1.22,2.93,-2.93,-3.01,-3.59,-1.70,-1.71,-1.70
478.13,1.28,2.94,1.28,2.95,-2.94,-3.03,-3.61,-1.66,-1.66,-1.66
482.91,1.33,2.96,1.33,2.96,-2.95,-3.05,-3.62,-1.62,-1.62,-1.63
487.74,1.37,2.97,1.37,2.97,-2.97,-3.07,-3.63,-1.60,-1.60,-1.60
492.62,1.40,2.99,1.40,2.99,-2.99,-3.09,-3.63,-1.59,-1.59,-1.59
497.55,1.43,3.00,1.43,3.00,-3.01,-3.11,-3.63,-1.58,-1.58,-1.57
502.52,1.46,3.02,1.46,3.01,-3.03,-3.13,-3.62,-1.57,-1.57,-1.56
507.55,1.48,3.04,1.48,3.04,-3.04,-3.16,-3.61,-1.56,-1.56,-1.56
