frequency,raw,error,smoothed,error_smoothed,equalization,parametric_eq,fixed_band_eq,equalized_raw,equalized_smoothed,target
20.00,13.67,2.90,13.67,2.90,-2.90,-3.11,-1.90,10.77,10.77,10.77
20.20,13.71,2.97,13.71,2.96,-2.96,-3.15,-1.95,10.75,10.75,10.74
20.40,13.74,3.02,13.74,3.02,-3.02,-3.19,-2.01,10.72,10.72,10.72
20.61,13.78,3.08,13.78,3.08,-3.08,-3.22,-2.07,10.70,10.70,10.70
20.81,13.82,3.14,13.82,3.14,-3.14,-3.26,-2.13,10.68,10.67,10.68
21.02,13.85,3.19,13.86,3.20,-3.20,-3.30,-2.19,10.65,10.66,10.66
21.23,13.89,3.25,13.89,3.25,-3.25,-3.34,-2.25,10.64,10.64,10.64
21.44,13.93,3.31,13.93,3.31,-3.31,-3.37,-2.32,10.62,10.62,10.62
21.66,13.96,3.36,13.96,3.36,-3.36,-3.41,-2.39,10.60,10.60,10.60
21.87,14.00,3.41,14.00,3.42,-3.41,-3.45,-2.46,10.59,10.59,10.59
22.09,14.03,3.46,14.03,3.46,-3.46,-3.49,-2.53,10.57,10.57,10.57
22.31,14.07,3.51,14.07,3.51,-3.51,-3.52,-2.60,10.56,10.56,10.56
22.54,14.10,3.55,14.10,3.56,-3.56,-3.56,-2.68,10.54,10.54,10.55
22.76,14.13,3.60,14.13,3.60,-3.60,-3.60,-2.75,10.53,10.53,10.54
22.99,14.17,3.65,14.17,3.64,-3.65,-3.64,-2.83,10.52,10.52,10.53
23.22,14.20,3.69,14.20,3.69,-3.69,-3.67,-2.91,10.51,10.51,10.52
23.45,14.24,3.74,14.24,3.73,-3.73,-3.71,-2.99,10.51,10.51,10.50
23.69,14.27,3.78,14.27,3.78,-3.77,-3.75,-3.08,10.50,10.50,10.49
23.92,14.31,3.82,14.31,3.82,-3.81,-3.78,-3.16,10.50,10.49,10.49
24.16,14.34,3.86,14.34,3.86,-3.85,-3.82,-3.25,10.49,10.48,10.48
24.40,14.37,3.89,14.37,3.89,-3.89,-3.86,-3.34,10.48,10.48,10.48
24.65,14.40,3.93,14.40,3.93,-3.93,-3.89,-3.43,10.47,10.47,10.47
24.89,14.44,3.97,14.44,3.97,-3.97,-3.93,-3.52,10.47,10.46,10.47
25.14,14.47,4.01,14.47,4.01,-4.01,-3.96,-3.61,10.46,10.46,10.46
25.39,14.50,4.05,14.50,4.05,-4.05,-4.00,-3.70,10.45,10.45,10.45
25.65,14.53,4.08,14.53,4.09,-4.09,-4.03,-3.80,10.44,10.45,10.45
25.91,14.57,4.13,14.57,4.13,-4.13,-4.07,-3.89,10.44,10.44,10.44
26.16,14.60,4.16,14.60,4.16,-4.16,-4.10,-3.98,10.44,10.44,10.44
26.43,14.63,4.19,14.63,4.20,-4.20,-4.14,-4.07,10.43,10.43,10.44
26.69,14.66,4.24,14.66,4.23,-4.24,-4.17,-4.17,10.43,10.43,10.42
26.96,14.69,4.27,14.69,4.27,-4.27,-4.20,-4.26,10.42,10.42,10.42
27.23,14.72,4.31,14.72,4.31,-4.30,-4.23,-4.35,10.42,10.42,10.41
27.50,14.75,4.34,14.75,4.34,-4.34,-4.27,-4.43,10.41,10.41,10.41
27.77,14.78,4.37,14.78,4.37,-4.37,-4.30,-4.52,10.41,10.41,10.41
28.05,14.80,4.40,14.81,4.40,-4.40,-4.33,-4.60,10.40,10.40,10.40
28.33,14.83,4.43,14.83,4.43,-4.43,-4.36,-4.68,10.40,10.40,10.40
28.62,14.86,4.46,14.86,4.47,-4.47,-4.39,-4.76,10.39,10.39,10.40
28.90,14.88,4.50,14.88,4.50,-4.50,-4.42,-4.83,10.38,10.39,10.38
29.19,14.91,4.53,14.91,4.53,-4.53,-4.45,-4.90,10.39,10.38,10.38
29.48,14.93,4.55,14.93,4.55,-4.55,-4.48,-4.96,10.38,10.38,10.38
29.78,14.96,4.58,14.96,4.58,-4.58,-4.51,-5.02,10.38,10.38,10.38
30.08,14.98,4.60,14.98,4.61,-4.60,-4.54,-5.07,10.38,10.38,10.38
30.38,15.00,4.63,15.00,4.63,-4.62,-4.57,-5.11,10.38,10.38,10.37
30.68,15.01,4.65,15.01,4.64,-4.64,-4.59,-5.15,10.37,10.37,10.37
30.99,15.02,4.66,15.02,4.66,-4.66,-4.62,-5.19,10.36,10.36,10.36
31.30,15.03,4.67,15.03,4.68,-4.68,-4.65,-5.22,10.35,10.35,10.36
31.61,15.05,4.70,15.05,4.70,-4.70,-4.67,-5.24,10.35,10.35,10.35
31.93,15.07,4.72,15.07,4.72,-4.72,-4.70,-5.25,10.35,10.35,10.35
32.24,15.08,4.74,15.08,4.74,-4.74,-4.72,-5.26,10.34,10.34,10.35
32.57,15.10,4.77,15.10,4.76,-4.76,-4.75,-5.27,10.34,10.34,10.33
32.89,15.11,4.78,15.11,4.78,-4.78,-4.77,-5.26,10.33,10.33,10.33
33.22,15.13,4.80,15.13,4.80,-4.80,-4.79,-5.26,10.33,10.33,10.33
33.55,15.14,4.82,15.14,4.82,-4.82,-4.82,-5.24,10.32,10.32,10.32
33.89,15.16,4.85,15.16,4.84,-4.84,-4.84,-5.23,10.32,10.32,10.31
34.23,15.17,4.86,15.17,4.86,-4.86,-4.86,-5.21,10.31,10.31,10.31
34.57,15.18,4.88,15.18,4.88,-4.88,-4.88,-5.18,10.30,10.30,10.30
34.92,15.19,4.90,15.19,4.89,-4.90,-4.90,-5.16,10.29,10.29,10.30
35.27,15.20,4.91,15.20,4.91,-4.92,-4.92,-5.13,10.28,10.29,10.29
35.62,15.21,4.93,15.22,4.93,-4.93,-4.94,-5.10,10.28,10.28,10.28
35.97,15.23,4.96,15.23,4.95,-4.95,-4.96,-5.06,10.28,10.28,10.28
36.33,15.24,4.97,15.24,4.97,-4.96,-4.97,-5.03,10.28,10.28,10.27
36.70,15.24,4.97,15.24,4.98,-4.97,-4.99,-4.99,10.27,10.27,10.27
37.06,15.25,4.99,15.25,4.99,-4.99,-5.01,-4.96,10.26,10.26,10.27
37.43,15.25,5.00,15.25,5.00,-5.00,-5.02,-4.93,10.25,10.25,10.25
37.81,15.26,5.01,15.26,5.01,-5.01,-5.04,-4.89,10.25,10.24,10.25
38.19,15.26,5.02,15.26,5.02,-5.03,-5.05,-4.86,10.23,10.24,10.24
38.57,15.27,5.04,15.27,5.04,-5.04,-5.07,-4.83,10.23,10.23,10.23
38.95,15.28,5.06,15.28,5.05,-5.06,-5.08,-4.80,10.23,10.22,10.22
39.34,15.28,5.07,15.28,5.07,-5.07,-5.10,-4.77,10.21,10.21,10.21
39.74,15.29,5.09,15.29,5.09,-5.09,-5.11,-4.74,10.21,10.20,10.21
40.14,15.29,5.10,15.29,5.10,-5.10,-5.12,-4.72,10.19,10.19,10.19
40.54,15.30,5.12,15.30,5.11,-5.11,-5.13,-4.70,10.19,10.18,10.18
40.94,15.30,5.12,15.30,5.12,-5.12,-5.15,-4.68,10.18,10.18,10.18
41.35,15.30,5.13,15.31,5.13,-5.13,-5.16,-4.66,10.17,10.18,10.17
41.76,15.31,5.14,15.31,5.14,-5.14,-5.17,-4.65,10.17,10.17,10.17
42.18,15.31,5.15,15.31,5.15,-5.14,-5.18,-4.64,10.17,10.17,10.16
42.60,15.30,5.15,15.31,5.15,-5.14,-5.19,-4.64,10.16,10.16,10.16
43.03,15.30,5.14,15.30,5.14,-5.14,-5.20,-4.63,10.16,10.16,10.16
43.46,15.29,5.14,15.29,5.14,-5.14,-5.21,-4.63,10.15,10.15,10.15
43.90,15.28,5.14,15.28,5.14,-5.14,-5.22,-4.64,10.14,10.14,10.15
44.33,15.28,5.14,15.28,5.14,-5.15,-5.23,-4.64,10.13,10.13,10.14
44.78,15.28,5.15,15.28,5.15,-5.15,-5.24,-4.66,10.13,10.13,10.13
45.23,15.28,5.16,15.28,5.16,-5.16,-5.24,-4.67,10.12,10.12,10.12
45.68,15.28,5.17,15.28,5.17,-5.17,-5.25,-4.69,10.12,10.12,10.11
46.13,15.28,5.18,15.28,5.17,-5.18,-5.26,-4.71,10.11,10.11,10.11
46.60,15.28,5.18,15.28,5.18,-5.19,-5.27,-4.73,10.09,10.09,10.10
47.06,15.28,5.19,15.28,5.20,-5.20,-5.28,-4.76,10.08,10.08,10.09
47.53,15.28,5.21,15.28,5.21,-5.21,-5.28,-4.79,10.07,10.07,10.07
48.01,15.28,5.22,15.28,5.22,-5.22,-5.29,-4.83,10.06,10.06,10.06
48.49,15.28,5.23,15.28,5.23,-5.23,-5.30,-4.87,10.05,10.05,10.05
48.97,15.28,5.24,15.28,5.24,-5.24,-5.30,-4.91,10.04,10.04,10.04
49.46,15.28,5.25,15.28,5.25,-5.25,-5.31,-4.95,10.03,10.03,10.03
49.96,15.28,5.27,15.28,5.27,-5.27,-5.32,-4.99,10.02,10.02,10.02
50.46,15.28,5.28,15.28,5.28,-5.28,-5.33,-5.04,10.00,10.00,10.00
50.96,15.28,5.29,15.28,5.29,-5.29,-5.33,-5.09,9.99,9.99,9.99
51.47,15.28,5.29,15.28,5.30,-5.30,-5.34,-5.14,9.98,9.98,9.99
51.99,15.29,5.32,15.29,5.32,-5.32,-5.34,-5.20,9.97,9.97,9.98
52.51,15.30,5.34,15.30,5.34,-5.33,-5.35,-5.25,9.97,9.96,9.96
53.03,15.30,5.35,15.30,5.35,-5.35,-5.36,-5.31,9.95,9.95,9.95
53.56,15.30,5.37,15.30,5.37,-5.36,-5.36,-5.36,9.94,9.94,9.93
54.10,15.30,5.37,15.30,5.38,-5.38,-5.37,-5.42,9.92,9.92,9.93
54.64,15.30,5.39,15.30,5.39,-5.39,-5.38,-5.47,9.91,9.91,9.91
55.18,15.30,5.40,15.30,5.40,-5.40,-5.38,-5.53,9.90,9.90,9.90
55.74,15.29,5.41,15.29,5.41,-5.41,-5.39,-5.58,9.88,9.88,9.88
56.29,15.28,5.41,15.28,5.41,-5.41,-5.40,-5.63,9.87,9.87,9.87
56.86,15.27,5.42,15.27,5.42,-5.42,-5.41,-5.69,9.85,9.85,9.85
57.42,15.26,5.42,15.26,5.42,-5.42,-5.41,-5.73,9.84,9.84,9.84
58.00,15.25,5.42,15.25,5.43,-5.42,-5.42,-5.78,9.83,9.82,9.83
58.58,15.23,5.42,15.23,5.43,-5.43,-5.43,-5.82,9.81,9.81,9.81
59.16,15.22,5.43,15.22,5.43,-5.43,-5.44,-5.86,9.79,9.79,9.79
59.76,15.20,5.42,15.20,5.43,-5.43,-5.44,-5.89,9.77,9.77,9.78
60.35,15.18,5.43,15.18,5.43,-5.43,-5.45,-5.92,9.75,9.76,9.76
60.96,15.16,5.43,15.16,5.43,-5.43,-5.46,-5.94,9.73,9.73,9.73
61.57,15.14,5.43,15.14,5.43,-5.43,-5.47,-5.96,9.71,9.71,9.71
62.18,15.11,5.42,15.12,5.43,-5.43,-5.48,-5.98,9.68,9.69,9.69
62.80,15.10,5.44,15.09,5.43,-5.43,-5.49,-5.99,9.67,9.66,9.66
63.43,15.07,5.43,15.07,5.44,-5.44,-5.49,-5.99,9.63,9.63,9.64
64.07,15.05,5.44,15.06,5.44,-5.45,-5.50,-5.99,9.60,9.61,9.61
64.71,15.04,5.46,15.04,5.46,-5.46,-5.51,-5.99,9.58,9.58,9.58
65.35,15.03,5.47,15.03,5.47,-5.47,-5.52,-5.98,9.56,9.56,9.56
66.01,15.02,5.49,15.02,5.49,-5.48,-5.53,-5.97,9.54,9.53,9.53
66.67,15.00,5.50,15.00,5.50,-5.50,-5.54,-5.95,9.50,9.50,9.50
67.33,14.98,5.51,14.99,5.51,-5.51,-5.55,-5.93,9.47,9.47,9.47
68.01,14.97,5.53,14.97,5.53,-5.53,-5.57,-5.90,9.44,9.44,9.44
68.69,14.95,5.54,14.95,5.54,-5.54,-5.58,-5.88,9.41,9.41,9.41
69.37,14.93,5.55,14.93,5.56,-5.56,-5.59,-5.85,9.37,9.37,9.38
70.07,14.92,5.58,14.92,5.57,-5.58,-5.60,-5.82,9.34,9.34,9.34
70.77,14.90,5.59,14.90,5.59,-5.59,-5.61,-5.78,9.31,9.31,9.31
71.48,14.89,5.61,14.89,5.61,-5.61,-5.62,-5.75,9.28,9.28,9.28
72.19,14.88,5.63,14.88,5.63,-5.62,-5.64,-5.72,9.26,9.25,9.25
72.91,14.86,5.65,14.86,5.65,-5.64,-5.65,-5.68,9.22,9.22,9.21
73.64,14.84,5.66,14.84,5.66,-5.65,-5.66,-5.65,9.19,9.19,9.18
74.38,14.81,5.66,14.81,5.67,-5.67,-5.68,-5.61,9.14,9.14,9.15
75.12,14.79,5.68,14.79,5.68,-5.68,-5.69,-5.58,9.11,9.10,9.11
75.87,14.76,5.68,14.77,5.69,-5.70,-5.70,-5.55,9.06,9.07,9.08
76.63,14.75,5.71,14.75,5.71,-5.71,-5.72,-5.52,9.04,9.03,9.04
77.40,14.73,5.73,14.73,5.73,-5.73,-5.73,-5.50,9.00,9.00,9.00
78.17,14.71,5.75,14.71,5.75,-5.74,-5.75,-5.47,8.97,8.97,8.96
78.95,14.69,5.77,14.69,5.77,-5.76,-5.76,-5.45,8.93,8.93,8.92
79.74,14.66,5.78,14.66,5.78,-5.78,-5.78,-5.43,8.88,8.88,8.88
80.54,14.63,5.79,14.64,5.80,-5.80,-5.79,-5.42,8.83,8.84,8.84
81.35,14.61,5.81,14.61,5.81,-5.82,-5.81,-5.41,8.79,8.79,8.80
82.16,14.59,5.84,14.59,5.84,-5.84,-5.83,-5.40,8.75,8.75,8.75
82.98,14.56,5.86,14.56,5.86,-5.86,-5.84,-5.39,8.70,8.70,8.70
83.81,14.54,5.89,14.54,5.88,-5.88,-5.86,-5.39,8.66,8.66,8.65
84.65,14.52,5.91,14.52,5.91,-5.91,-5.88,-5.39,8.61,8.61,8.62
85.50,14.50,5.93,14.50,5.94,-5.94,-5.89,-5.40,8.56,8.56,8.57
86.35,14.48,5.96,14.48,5.96,-5.97,-5.91,-5.41,8.51,8.52,8.52
87.22,14.46,6.00,14.46,6.00,-5.99,-5.93,-5.42,8.47,8.47,8.47
88.09,14.44,6.03,14.44,6.02,-6.02,-5.94,-5.44,8.42,8.42,8.41
88.97,14.41,6.05,14.41,6.05,-6.04,-5.96,-5.47,8.37,8.37,8.36
89.86,14.38,6.07,14.38,6.07,-6.07,-5.98,-5.49,8.31,8.31,8.31
90.76,14.35,6.10,14.35,6.09,-6.09,-6.00,-5.52,8.26,8.25,8.26
91.66,14.31,6.11,14.31,6.11,-6.12,-6.02,-5.56,8.19,8.19,8.20
92.58,14.28,6.13,14.28,6.13,-6.15,-6.03,-5.60,8.14,8.14,8.15
93.51,14.25,6.16,14.25,6.16,-6.17,-6.05,-5.64,8.08,8.08,8.09
94.44,14.23,6.19,14.23,6.19,-6.19,-6.07,-5.69,8.04,8.04,8.04
95.39,14.20,6.22,14.21,6.22,-6.22,-6.09,-5.74,7.99,7.99,7.98
96.34,14.18,6.26,14.18,6.25,-6.23,-6.11,-5.79,7.95,7.94,7.92
97.30,14.14,6.26,14.14,6.26,-6.25,-6.13,-5.85,7.89,7.89,7.88
98.28,14.09,6.27,14.09,6.27,-6.27,-6.15,-5.91,7.82,7.83,7.82
99.26,14.04,6.28,14.04,6.28,-6.28,-6.16,-5.97,7.76,7.76,7.76
100.25,13.99,6.28,13.99,6.28,-6.29,-6.18,-6.04,7.70,7.69,7.71
101.25,13.94,6.29,13.94,6.29,-6.30,-6.20,-6.11,7.64,7.64,7.65
102.27,13.89,6.30,13.90,6.31,-6.31,-6.22,-6.18,7.58,7.59,7.59
103.29,13.87,6.34,13.86,6.33,-6.32,-6.24,-6.25,7.55,7.54,7.53
104.32,13.83,6.34,13.83,6.34,-6.34,-6.26,-6.33,7.50,7.49,7.49
105.37,13.78,6.35,13.78,6.35,-6.35,-6.28,-6.40,7.43,7.44,7.43
106.42,13.73,6.36,13.73,6.36,-6.36,-6.30,-6.48,7.37,7.37,7.37
107.48,13.68,6.36,13.68,6.36,-6.37,-6.31,-6.56,7.31,7.32,7.32
108.56,13.64,6.38,13.64,6.37,-6.38,-6.33,-6.63,7.26,7.26,7.26
109.64,13.59,6.38,13.59,6.39,-6.39,-6.35,-6.71,7.21,7.21,7.21
110.74,13.55,6.40,13.55,6.40,-6.40,-6.37,-6.78,7.15,7.15,7.15
111.85,13.50,6.41,13.50,6.40,-6.41,-6.39,-6.85,7.09,7.09,7.09
112.97,13.45,6.41,13.45,6.41,-6.42,-6.40,-6.92,7.03,7.03,7.05
114.10,13.41,6.42,13.42,6.43,-6.44,-6.42,-6.98,6.97,6.98,6.99
115.24,13.38,6.45,13.38,6.45,-6.45,-6.44,-7.04,6.93,6.94,6.93
116.39,13.36,6.48,13.35,6.47,-6.45,-6.46,-7.10,6.91,6.90,6.88
117.55,13.31,6.48,13.31,6.48,-6.46,-6.47,-7.15,6.85,6.85,6.83
118.73,13.25,6.47,13.24,6.47,-6.46,-6.49,-7.19,6.79,6.78,6.78
119.92,13.17,6.45,13.17,6.45,-6.46,-6.51,-7.23,6.71,6.71,6.72
121.12,13.10,6.43,13.12,6.45,-6.46,-6.52,-7.26,6.64,6.65,6.67
122.33,13.07,6.45,13.07,6.45,-6.46,-6.54,-7.28,6.62,6.61,6.62
123.55,13.03,6.46,13.02,6.45,-6.44,-6.55,-7.30,6.59,6.58,6.57
124.79,12.97,6.44,12.97,6.44,-6.43,-6.57,-7.30,6.54,6.54,6.53
126.03,12.90,6.42,12.91,6.43,-6.42,-6.58,-7.31,6.48,6.49,6.48
127.29,12.85,6.42,12.85,6.41,-6.41,-6.60,-7.30,6.44,6.44,6.44
128.57,12.79,6.41,12.78,6.39,-6.39,-6.61,-7.28,6.40,6.38,6.39
129.85,12.70,6.37,12.71,6.37,-6.38,-6.62,-7.26,6.32,6.33,6.34
131.15,12.64,6.35,12.65,6.36,-6.38,-6.64,-7.23,6.26,6.28,6.29
132.46,12.61,6.36,12.60,6.36,-6.37,-6.65,-7.20,6.24,6.23,6.25
133.79,12.57,6.37,12.57,6.37,-6.37,-6.66,-7.15,6.20,6.19,6.20
135.12,12.52,6.37,12.53,6.37,-6.37,-6.67,-7.11,6.15,6.15,6.15
136.48,12.49,6.38,12.49,6.38,-6.38,-6.68,-7.06,6.12,6.11,6.11
137.84,12.45,6.39,12.46,6.39,-6.38,-6.69,-7.00,6.08,6.08,6.06
139.22,12.42,6.40,12.41,6.39,-6.37,-6.70,-6.94,6.05,6.04,6.02
140.61,12.37,6.40,12.36,6.39,-6.37,-6.71,-6.87,6.00,5.99,5.98
142.02,12.30,6.36,12.31,6.37,-6.37,-6.72,-6.81,5.93,5.94,5.94
143.44,12.26,6.36,12.26,6.36,-6.37,-6.73,-6.74,5.89,5.89,5.90
144.87,12.21,6.35,12.22,6.35,-6.37,-6.73,-6.67,5.84,5.85,5.86
146.32,12.19,6.36,12.19,6.36,-6.38,-6.74,-6.60,5.81,5.81,5.83
147.78,12.17,6.38,12.17,6.38,-6.39,-6.75,-6.53,5.78,5.78,5.79
149.26,12.16,6.41,12.17,6.41,-6.41,-6.75,-6.47,5.75,5.76,5.75
150.75,12.17,6.45,12.17,6.45,-6.44,-6.75,-6.40,5.73,5.73,5.72
152.26,12.17,6.48,12.17,6.48,-6.48,-6.76,-6.33,5.69,5.69,5.69
153.78,12.18,6.53,12.18,6.52,-6.52,-6.76,-6.27,5.66,5.66,5.65
155.32,12.19,6.56,12.19,6.57,-6.57,-6.76,-6.20,5.62,5.62,5.63
156.88,12.21,6.62,12.21,6.62,-6.63,-6.76,-6.14,5.58,5.58,5.59
158.44,12.23,6.67,12.24,6.68,-6.68,-6.76,-6.09,5.55,5.55,5.56
160.03,12.27,6.74,12.27,6.74,-6.74,-6.76,-6.03,5.53,5.52,5.53
161.63,12.30,6.81,12.30,6.80,-6.80,-6.76,-5.98,5.50,5.50,5.50
163.24,12.33,6.86,12.33,6.86,-6.85,-6.76,-5.94,5.48,5.48,5.47
164.88,12.36,6.92,12.36,6.92,-6.90,-6.75,-5.89,5.46,5.46,5.44
166.53,12.38,6.97,12.38,6.96,-6.95,-6.75,-5.86,5.43,5.43,5.42
168.19,12.38,6.99,12.38,6.99,-6.99,-6.74,-5.82,5.39,5.40,5.39
169.87,12.38,7.01,12.38,7.02,-7.02,-6.74,-5.79,5.36,5.36,5.37
171.57,12.38,7.04,12.38,7.04,-7.05,-6.73,-5.76,5.33,5.33,5.34
173.29,12.38,7.06,12.38,7.06,-7.07,-6.72,-5.74,5.31,5.31,5.32
175.02,12.38,7.09,12.38,7.09,-7.09,-6.71,-5.72,5.29,5.29,5.29
176.77,12.38,7.10,12.38,7.10,-7.11,-6.70,-5.71,5.27,5.27,5.28
178.54,12.37,7.12,12.37,7.12,-7.12,-6.69,-5.70,5.25,5.25,5.25
180.32,12.36,7.13,12.36,7.13,-7.13,-6.68,-5.69,5.23,5.23,5.23
182.13,12.35,7.14,12.35,7.14,-7.14,-6.66,-5.69,5.21,5.21,5.21
183.95,12.33,7.14,12.33,7.15,-7.14,-6.65,-5.70,5.19,5.19,5.19
185.79,12.30,7.14,12.30,7.14,-7.13,-6.63,-5.70,5.17,5.17,5.16
187.65,12.27,7.13,12.26,7.12,-7.12,-6.62,-5.72,5.16,5.15,5.14
189.52,12.21,7.09,12.22,7.09,-7.10,-6.60,-5.73,5.12,5.12,5.12
191.42,12.16,7.06,12.17,7.06,-7.07,-6.58,-5.75,5.09,5.10,5.11
193.33,12.12,7.03,12.12,7.03,-7.03,-6.56,-5.77,5.09,5.08,5.09
195.27,12.07,7.00,12.07,7.00,-6.99,-6.54,-5.80,5.08,5.08,5.07
197.22,12.01,6.96,12.01,6.96,-6.95,-6.52,-5.83,5.06,5.06,5.05
199.19,11.94,6.91,11.94,6.90,-6.90,-6.49,-5.86,5.04,5.04,5.03
201.18,11.87,6.84,11.88,6.85,-6.85,-6.47,-5.90,5.02,5.02,5.03
203.19,11.81,6.80,11.81,6.79,-6.80,-6.44,-5.94,5.01,5.01,5.01
205.23,11.75,6.74,11.75,6.74,-6.75,-6.41,-5.98,5.00,5.00,5.01
207.28,11.68,6.69,11.69,6.69,-6.69,-6.38,-6.02,4.99,4.99,4.99
209.35,11.62,6.64,11.62,6.64,-6.64,-6.36,-6.06,4.98,4.99,4.98
211.44,11.56,6.59,11.56,6.58,-6.58,-6.32,-6.11,4.98,4.97,4.98
213.56,11.49,6.53,11.48,6.52,-6.53,-6.29,-6.15,4.96,4.96,4.96
215.69,11.40,6.45,11.41,6.46,-6.47,-6.26,-6.19,4.93,4.94,4.95
217.85,11.33,6.39,11.35,6.41,-6.41,-6.22,-6.24,4.92,4.94,4.94
220.03,11.29,6.36,11.28,6.35,-6.34,-6.19,-6.28,4.95,4.94,4.93
222.23,11.23,6.31,11.22,6.30,-6.28,-6.15,-6.32,4.95,4.94,4.92
224.45,11.13,6.22,11.13,6.22,-6.21,-6.11,-6.35,4.92,4.92,4.91
226.70,11.04,6.14,11.04,6.14,-6.15,-6.07,-6.39,4.90,4.90,4.90
228.96,10.95,6.05,10.96,6.07,-6.08,-6.03,-6.42,4.87,4.89,4.90
231.25,10.90,6.01,10.89,6.00,-6.01,-5.98,-6.44,4.89,4.89,4.89
233.57,10.83,5.95,10.82,5.94,-5.94,-5.94,-6.46,4.90,4.89,4.88
235.90,10.74,5.86,10.75,5.87,-5.86,-5.89,-6.48,4.88,4.88,4.88
238.26,10.67,5.80,10.67,5.79,-5.79,-5.84,-6.48,4.88,4.87,4.87
240.64,10.58,5.71,10.60,5.72,-5.72,-5.79,-6.49,4.86,4.88,4.87
243.05,10.54,5.66,10.53,5.65,-5.65,-5.73,-6.48,4.89,4.88,4.88
245.48,10.47,5.59,10.46,5.59,-5.58,-5.68,-6.47,4.89,4.88,4.88
247.93,10.38,5.51,10.39,5.52,-5.51,-5.62,-6.44,4.87,4.88,4.87
250.41,10.32,5.45,10.31,5.44,-5.45,-5.56,-6.41,4.88,4.87,4.87
252.92,10.23,5.35,10.25,5.37,-5.38,-5.49,-6.38,4.85,4.87,4.88
255.45,10.19,5.31,10.19,5.31,-5.32,-5.43,-6.33,4.87,4.87,4.88
258.00,10.14,5.27,10.13,5.26,-5.26,-5.36,-6.28,4.88,4.88,4.87
260.58,10.07,5.19,10.08,5.21,-5.20,-5.29,-6.22,4.87,4.88,4.88
263.19,10.02,5.15,10.01,5.14,-5.14,-5.21,-6.15,4.88,4.88,4.87
265.82,9.95,5.09,9.96,5.09,-5.08,-5.14,-6.07,4.87,4.87,4.86
268.48,9.89,5.02,9.89,5.03,-5.03,-5.07,-5.99,4.86,4.86,4.87
271.16,9.84,4.98,9.83,4.97,-4.98,-4.99,-5.90,4.87,4.86,4.86
273.87,9.76,4.90,9.78,4.92,-4.92,-4.93,-5.81,4.84,4.86,4.86
276.61,9.73,4.87,9.73,4.87,-4.86,-4.86,-5.71,4.87,4.86,4.86
279.38,9.68,4.82,9.68,4.82,-4.81,-4.80,-5.61,4.87,4.87,4.86
282.17,9.63,4.77,9.63,4.77,-4.76,-4.75,-5.50,4.87,4.87,4.86
284.99,9.57,4.71,9.56,4.70,-4.71,-4.71,-5.39,4.86,4.85,4.86
287.84,9.49,4.64,9.50,4.65,-4.66,-4.66,-5.28,4.83,4.84,4.85
290.72,9.44,4.59,9.45,4.60,-4.61,-4.62,-5.16,4.83,4.84,4.85
293.63,9.41,4.56,9.41,4.56,-4.56,-4.58,-5.05,4.85,4.84,4.85
296.57,9.38,4.54,9.37,4.53,-4.52,-4.54,-4.93,4.87,4.86,4.84
299.53,9.32,4.47,9.32,4.48,-4.47,-4.49,-4.81,4.85,4.85,4.85
302.53,9.27,4.43,9.27,4.43,-4.42,-4.45,-4.70,4.85,4.85,4.84
305.55,9.21,4.37,9.22,4.37,-4.38,-4.40,-4.58,4.83,4.84,4.84
308.61,9.17,4.32,9.17,4.32,-4.33,-4.35,-4.46,4.84,4.84,4.85
311.69,9.12,4.28,9.12,4.28,-4.28,-4.30,-4.35,4.84,4.85,4.84
314.81,9.08,4.23,9.08,4.23,-4.22,-4.24,-4.23,4.86,4.85,4.85
317.96,9.02,4.17,9.02,4.17,-4.17,-4.18,-4.12,4.85,4.85,4.85
321.14,8.96,4.10,8.96,4.11,-4.11,-4.12,-4.01,4.85,4.85,4.86
324.35,8.90,4.05,8.90,4.05,-4.05,-4.06,-3.90,4.85,4.85,4.85
327.59,8.84,3.99,8.85,3.99,-3.99,-4.00,-3.79,4.86,4.86,4.85
330.87,8.79,3.93,8.78,3.92,-3.92,-3.94,-3.68,4.87,4.86,4.86
334.18,8.72,3.86,8.72,3.86,-3.85,-3.87,-3.58,4.87,4.86,4.87
337.52,8.64,3.78,8.65,3.78,-3.79,-3.80,-3.48,4.85,4.86,4.86
340.90,8.59,3.72,8.58,3.72,-3.72,-3.73,-3.38,4.87,4.86,4.87
344.30,8.52,3.65,8.52,3.65,-3.66,-3.66,-3.28,4.86,4.86,4.87
347.75,8.46,3.59,8.46,3.59,-3.60,-3.59,-3.19,4.86,4.87,4.87
351.23,8.40,3.54,8.40,3.53,-3.54,-3.52,-3.09,4.87,4.87,4.87
354.74,8.35,3.48,8.35,3.48,-3.48,-3.45,-3.00,4.87,4.87,4.87
358.28,8.29,3.42,8.29,3.42,-3.42,-3.38,-2.92,4.87,4.87,4.87
361.87,8.23,3.36,8.23,3.36,-3.36,-3.30,-2.83,4.87,4.87,4.87
365.49,8.16,3.29,8.17,3.30,-3.30,-3.23,-2.75,4.86,4.87,4.87
369.14,8.10,3.23,8.10,3.24,-3.24,-3.15,-2.67,4.86,4.87,4.87
372.83,8.05,3.19,8.04,3.17,-3.17,-3.08,-2.59,4.88,4.87,4.86
376.56,7.97,3.10,7.97,3.10,-3.11,-3.00,-2.51,4.86,4.87,4.87
380.33,7.90,3.03,7.91,3.04,-3.04,-2.92,-2.44,4.86,4.87,4.87
384.13,7.84,2.97,7.84,2.97,-2.97,-2.84,-2.36,4.87,4.87,4.87
387.97,7.77,2.90,7.77,2.90,-2.89,-2.77,-2.29,4.88,4.88,4.87
391.85,7.69,2.81,7.69,2.82,-2.81,-2.69,-2.22,4.88,4.88,4.88
395.77,7.61,2.73,7.61,2.73,-2.73,-2.61,-2.16,4.88,4.88,4.88
399.73,7.53,2.65,7.53,2.64,-2.64,-2.53,-2.09,4.89,4.89,4.89
403.72,7.44,2.56,7.44,2.55,-2.55,-2.45,-2.03,4.89,4.89,4.88
407.76,7.35,2.46,7.35,2.46,-2.46,-2.36,-1.96,4.89,4.89,4.89
411.84,7.26,2.37,7.26,2.37,-2.37,-2.28,-1.90,4.89,4.89,4.89
415.96,7.18,2.28,7.18,2.28,-2.28,-2.20,-1.84,4.90,4.89,4.90
420.12,7.09,2.19,7.09,2.19,-2.19,-2.12,-1.78,4.90,4.90,4.90
424.32,7.00,2.10,7.00,2.10,-2.10,-2.04,-1.73,4.90,4.90,4.90
428.56,6.92,2.01,6.92,2.01,-2.01,-1.95,-1.67,4.91,4.90,4.91
432.85,6.83,1.92,6.83,1.93,-1.92,-1.87,-1.61,4.91,4.91,4.91
437.18,6.75,1.84,6.75,1.84,-1.84,-1.79,-1.56,4.91,4.91,4.91
441.55,6.66,1.75,6.66,1.75,-1.75,-1.70,-1.50,4.91,4.91,4.91
445.96,6.56,1.66,6.57,1.66,-1.66,-1.62,-1.45,4.90,4.91,4.91
450.42,6.47,1.57,6.48,1.57,-1.57,-1.53,-1.39,4.90,4.90,4.90
454.93,6.40,1.50,6.39,1.48,-1.48,-1.45,-1.34,4.92,4.90,4.90
459.48,6.29,1.39,6.30,1.40,-1.40,-1.36,-1.28,4.89,4.90,4.90
464.07,6.21,1.31,6.22,1.31,-1.31,-1.28,-1.23,4.90,4.90,4.90
468.71,6.14,1.24,6.13,1.23,-1.23,-1.19,-1.17,4.91,4.90,4.90
473.40,6.05,1.15,6.05,1.15,-1.15,-1.11,-1.12,4.90,4.90,4.90
478.13,5.97,1.06,5.98,1.07,-1.07,-1.02,-1.06,4.90,4.90,4.91
