frequency,raw,error,smoothed,error_smoothed,equalization,parametric_eq,fixed_band_eq,equalized_raw,equalized_smoothed,target
20.00,-26.30,-25.11,-26.30,-25.10,6.00,6.00,2.66,-20.30,-20.30,-1.19
20.20,-26.57,-25.35,-26.57,-25.35,6.00,6.01,2.73,-20.57,-20.57,-1.22
20.40,-26.84,-25.60,-26.84,-25.60,6.00,6.01,2.81,-20.84,-20.84,-1.24
20.61,-27.09,-25.83,-27.10,-25.84,6.00,6.01,2.89,-21.09,-21.10,-1.26
20.81,-27.38,-26.10,-27.37,-26.09,6.00,6.01,2.98,-21.38,-21.37,-1.28
21.02,-27.64,-26.34,-27.64,-26.33,6.00,6.01,3.06,-21.64,-21.64,-1.30
21.23,-27.90,-26.58,-27.90,-26.58,6.00,6.02,3.15,-21.90,-21.90,-1.32
21.44,-28.15,-26.81,-28.15,-26.81,6.00,6.02,3.24,-22.15,-22.15,-1.34
21.66,-28.40,-27.04,-28.41,-27.05,6.00,6.02,3.34,-22.40,-22.41,-1.36
21.87,-28.66,-27.29,-28.66,-27.28,6.00,6.02,3.43,-22.66,-22.66,-1.37
22.09,-28.91,-27.52,-28.91,-27.52,6.00,6.02,3.53,-22.91,-22.91,-1.39
22.31,-29.15,-27.75,-29.15,-27.75,6.00,6.02,3.63,-23.15,-23.15,-1.40
22.54,-29.37,-27.96,-29.38,-27.97,6.00,6.02,3.74,-23.37,-23.38,-1.41
22.76,-29.62,-28.20,-29.62,-28.20,6.00,6.03,3.84,-23.62,-23.62,-1.42
22.99,-29.86,-28.43,-29.85,-28.42,6.00,6.03,3.95,-23.86,-23.85,-1.43
23.22,-30.08,-28.63,-30.08,-28.64,6.00,6.03,4.06,-24.08,-24.08,-1.44
23.45,-30.30,-28.85,-30.30,-28.85,6.00,6.03,4.18,-24.30,-24.30,-1.45
23.69,-30.52,-29.06,-30.52,-29.07,6.00,6.03,4.29,-24.52,-24.52,-1.46
23.92,-30.75,-29.29,-30.74,-29.28,6.00,6.03,4.41,-24.75,-24.74,-1.46
24.16,-30.96,-29.49,-30.96,-29.49,6.00,6.03,4.53,-24.96,-24.96,-1.47
24.40,-31.16,-29.69,-31.16,-29.69,6.00,6.04,4.66,-25.16,-25.16,-1.47
24.65,-31.35,-29.87,-31.36,-29.88,6.00,6.04,4.78,-25.35,-25.36,-1.48
24.89,-31.55,-30.07,-31.55,-30.07,6.00,6.04,4.91,-25.55,-25.55,-1.48
25.14,-31.74,-30.25,-31.74,-30.25,6.00,6.04,5.04,-25.74,-25.74,-1.49
25.39,-31.92,-30.43,-31.92,-30.43,6.00,6.04,5.17,-25.92,-25.92,-1.49
25.65,-32.10,-30.59,-32.10,-30.60,6.00,6.04,5.30,-26.10,-26.10,-1.50
25.91,-32.26,-30.76,-32.27,-30.76,6.00,6.04,5.43,-26.26,-26.27,-1.50
26.16,-32.44,-30.93,-32.43,-30.92,6.00,6.04,5.56,-26.44,-26.43,-1.51
26.43,-32.58,-31.07,-32.59,-31.08,6.00,6.04,5.69,-26.58,-26.59,-1.51
26.69,-32.74,-31.22,-32.74,-31.22,6.00,6.04,5.81,-26.74,-26.74,-1.52
26.96,-32.89,-31.37,-32.88,-31.36,6.00,6.05,5.94,-26.89,-26.88,-1.52
27.23,-33.01,-31.49,-33.02,-31.50,6.00,6.05,6.07,-27.01,-27.02,-1.52
27.50,-33.15,-31.62,-33.15,-31.62,6.00,6.05,6.19,-27.15,-27.15,-1.53
27.77,-33.27,-31.74,-33.27,-31.73,6.00,6.05,6.31,-27.27,-27.27,-1.53
28.05,-33.39,-31.85,-33.38,-31.84,6.00,6.05,6.42,-27.39,-27.38,-1.54
28.33,-33.48,-31.94,-33.48,-31.94,6.00,6.05,6.53,-27.48,-27.48,-1.54
28.62,-33.56,-32.02,-33.57,-32.03,6.00,6.05,6.64,-27.56,-27.57,-1.54
28.90,-33.67,-32.12,-33.66,-32.11,6.00,6.05,6.73,-27.67,-27.66,-1.55
29.19,-33.74,-32.19,-33.74,-32.19,6.00,6.05,6.82,-27.74,-27.74,-1.55
29.48,-33.80,-32.25,-33.81,-32.26,6.00,6.05,6.91,-27.80,-27.81,-1.55
29.78,-33.86,-32.31,-33.86,-32.31,6.00,6.05,6.98,-27.86,-27.86,-1.55
30.08,-33.90,-32.34,-33.87,-32.32,6.00,6.05,7.05,-27.90,-27.87,-1.55
30.38,-33.84,-32.29,-33.85,-32.29,6.00,6.06,7.11,-27.84,-27.85,-1.55
30.68,-33.78,-32.22,-33.79,-32.23,6.00,6.06,7.15,-27.78,-27.79,-1.56
30.99,-33.72,-32.16,-33.71,-32.15,6.00,6.06,7.19,-27.72,-27.71,-1.56
31.30,-33.62,-32.06,-33.62,-32.06,6.00,6.06,7.22,-27.62,-27.62,-1.56
31.61,-33.52,-31.96,-33.52,-31.96,6.00,6.06,7.24,-27.52,-27.52,-1.56
31.93,-33.41,-31.84,-33.41,-31.84,6.00,6.06,7.25,-27.41,-27.41,-1.57
32.24,-33.28,-31.71,-33.29,-31.71,6.00,6.06,7.24,-27.28,-27.29,-1.57
32.57,-33.16,-31.58,-33.16,-31.58,6.00,6.06,7.23,-27.16,-27.16,-1.58
32.89,-33.02,-31.43,-33.01,-31.44,6.00,6.06,7.21,-27.02,-27.01,-1.58
33.22,-32.87,-31.28,-32.86,-31.28,6.00,6.06,7.19,-26.87,-26.86,-1.58
33.55,-32.70,-31.12,-32.71,-31.12,6.00,6.06,7.15,-26.70,-26.71,-1.58
33.89,-32.55,-30.96,-32.55,-30.96,6.00,6.06,7.11,-26.55,-26.55,-1.59
34.23,-32.40,-30.81,-32.39,-30.80,6.00,6.06,7.06,-26.40,-26.39,-1.59
34.57,-32.25,-30.65,-32.24,-30.65,6.00,6.06,7.01,-26.25,-26.24,-1.60
34.92,-32.10,-30.50,-32.10,-30.51,6.00,6.06,6.95,-26.10,-26.10,-1.60
35.27,-31.98,-30.38,-31.97,-30.37,6.00,6.06,6.89,-25.98,-25.97,-1.60
35.62,-31.87,-30.27,-31.86,-30.26,6.00,6.06,6.82,-25.87,-25.86,-1.60
35.97,-31.77,-30.15,-31.78,-30.17,6.00,6.06,6.76,-25.77,-25.78,-1.61
36.33,-31.71,-30.09,-31.70,-30.09,6.00,6.06,6.69,-25.71,-25.70,-1.61
36.70,-31.65,-30.04,-31.64,-30.03,6.00,6.06,6.62,-25.65,-25.64,-1.61
37.06,-31.59,-29.98,-31.60,-29.98,6.00,6.06,6.55,-25.59,-25.60,-1.61
37.43,-31.56,-29.95,-31.55,-29.94,6.00,6.06,6.48,-25.56,-25.55,-1.61
37.81,-31.53,-29.91,-31.52,-29.90,6.00,6.06,6.41,-25.53,-25.52,-1.62
38.19,-31.49,-29.87,-31.49,-29.87,6.00,6.07,6.34,-25.49,-25.49,-1.62
38.57,-31.46,-29.83,-31.46,-29.83,6.00,6.07,6.27,-25.46,-25.46,-1.63
38.95,-31.43,-29.80,-31.43,-29.80,6.00,6.07,6.21,-25.43,-25.43,-1.63
39.34,-31.42,-29.78,-31.41,-29.78,6.00,6.07,6.15,-25.42,-25.41,-1.64
39.74,-31.41,-29.77,-31.40,-29.76,6.00,6.07,6.09,-25.41,-25.40,-1.64
40.14,-31.40,-29.76,-31.40,-29.76,6.00,6.07,6.03,-25.40,-25.40,-1.64
40.54,-31.41,-29.76,-31.40,-29.76,6.00,6.07,5.98,-25.41,-25.40,-1.65
40.94,-31.42,-29.77,-31.41,-29.76,6.00,6.07,5.93,-25.42,-25.41,-1.65
41.35,-31.42,-29.77,-31.42,-29.77,6.00,6.07,5.88,-25.42,-25.42,-1.65
41.76,-31.43,-29.78,-31.42,-29.78,6.00,6.07,5.84,-25.43,-25.42,-1.65
42.18,-31.43,-29.79,-31.43,-29.78,6.00,6.07,5.80,-25.43,-25.43,-1.64
42.60,-31.43,-29.79,-31.43,-29.79,6.00,6.07,5.77,-25.43,-25.43,-1.64
43.03,-31.43,-29.79,-31.42,-29.78,6.00,6.07,5.74,-25.43,-25.42,-1.64
43.46,-31.42,-29.78,-31.42,-29.78,6.00,6.07,5.71,-25.42,-25.42,-1.64
43.90,-31.41,-29.77,-31.41,-29.77,6.00,6.07,5.69,-25.41,-25.41,-1.64
44.33,-31.40,-29.77,-31.40,-29.76,6.00,6.07,5.67,-25.40,-25.40,-1.63
44.78,-31.38,-29.75,-31.37,-29.74,6.00,6.07,5.66,-25.38,-25.37,-1.63
45.23,-31.35,-29.72,-31.34,-29.71,6.00,6.07,5.65,-25.35,-25.34,-1.63
45.68,-31.30,-29.67,-31.30,-29.67,6.00,6.07,5.64,-25.30,-25.30,-1.63
46.13,-31.26,-29.62,-31.26,-29.62,6.00,6.07,5.64,-25.26,-25.26,-1.63
46.60,-31.21,-29.57,-31.21,-29.57,6.00,6.07,5.64,-25.21,-25.21,-1.64
47.06,-31.16,-29.52,-31.15,-29.51,6.00,6.07,5.65,-25.16,-25.15,-1.64
47.53,-31.09,-29.45,-31.09,-29.45,6.00,6.07,5.66,-25.09,-25.09,-1.64
48.01,-31.02,-29.38,-31.02,-29.37,6.00,6.07,5.68,-25.02,-25.02,-1.64
48.49,-30.94,-29.29,-30.93,-29.29,6.00,6.07,5.70,-24.94,-24.93,-1.65
48.97,-30.85,-29.20,-30.85,-29.20,6.00,6.07,5.72,-24.85,-24.85,-1.65
49.46,-30.76,-29.11,-30.76,-29.11,6.00,6.06,5.74,-24.76,-24.76,-1.65
49.96,-30.67,-29.02,-30.66,-29.02,6.00,6.06,5.77,-24.67,-24.66,-1.65
50.46,-30.57,-28.93,-30.57,-28.93,6.00,6.06,5.80,-24.57,-24.57,-1.64
50.96,-30.48,-28.84,-30.48,-28.83,6.00,6.06,5.83,-24.48,-24.48,-1.64
51.47,-30.39,-28.75,-30.38,-28.74,6.00,6.06,5.87,-24.39,-24.38,-1.64
51.99,-30.30,-28.66,-30.30,-28.66,6.00,6.06,5.91,-24.30,-24.30,-1.64
52.51,-30.22,-28.59,-30.22,-28.58,6.00,6.06,5.95,-24.22,-24.22,-1.63
53.03,-30.15,-28.52,-30.14,-28.51,6.00,6.06,5.99,-24.15,-24.14,-1.63
53.56,-30.07,-28.44,-30.07,-28.44,6.00,6.06,6.03,-24.07,-24.07,-1.63
54.10,-30.00,-28.37,-29.99,-28.36,6.00,6.06,6.07,-24.00,-23.99,-1.63
54.64,-29.91,-28.28,-29.91,-28.28,6.00,6.06,6.11,-23.91,-23.91,-1.63
55.18,-29.83,-28.20,-29.83,-28.20,6.00,6.06,6.15,-23.83,-23.83,-1.62
55.74,-29.74,-28.12,-29.74,-28.11,6.00,6.06,6.19,-23.74,-23.74,-1.62
56.29,-29.65,-28.03,-29.64,-28.03,6.00,6.06,6.23,-23.65,-23.64,-1.62
56.86,-29.55,-27.94,-29.55,-27.94,6.00,6.06,6.27,-23.55,-23.55,-1.61
57.42,-29.46,-27.84,-29.45,-27.84,6.00,6.06,6.30,-23.46,-23.45,-1.61
58.00,-29.36,-27.75,-29.36,-27.75,6.00,6.06,6.33,-23.36,-23.36,-1.61
58.58,-29.26,-27.65,-29.25,-27.65,6.00,6.06,6.36,-23.26,-23.25,-1.61
59.16,-29.15,-27.54,-29.15,-27.54,6.00,6.06,6.38,-23.15,-23.15,-1.60
59.76,-29.04,-27.44,-29.04,-27.44,6.00,6.06,6.40,-23.04,-23.04,-1.60
60.35,-28.94,-27.33,-28.93,-27.34,6.00,6.06,6.42,-22.94,-22.93,-1.60
60.96,-28.83,-27.24,-28.83,-27.23,6.00,6.06,6.43,-22.83,-22.83,-1.59
61.57,-28.73,-27.14,-28.73,-27.14,6.00,6.06,6.44,-22.73,-22.73,-1.59
62.18,-28.63,-27.04,-28.63,-27.04,6.00,6.05,6.44,-22.63,-22.63,-1.59
62.80,-28.55,-26.95,-28.54,-26.95,6.00,6.05,6.44,-22.55,-22.54,-1.59
63.43,-28.46,-26.87,-28.46,-26.87,6.00,6.05,6.43,-22.46,-22.46,-1.59
64.07,-28.38,-26.79,-28.38,-26.79,6.00,6.05,6.41,-22.38,-22.38,-1.59
64.71,-28.31,-26.72,-28.30,-26.71,6.00,6.05,6.39,-22.31,-22.30,-1.59
65.35,-28.24,-26.65,-28.23,-26.64,6.00,6.05,6.37,-22.24,-22.23,-1.59
66.01,-28.16,-26.57,-28.16,-26.57,6.00,6.05,6.34,-22.16,-22.16,-1.59
66.67,-28.10,-26.51,-28.10,-26.51,6.00,6.05,6.31,-22.10,-22.10,-1.59
67.33,-28.04,-26.45,-28.04,-26.45,6.00,6.05,6.27,-22.04,-22.04,-1.59
68.01,-27.99,-26.40,-27.98,-26.39,6.00,6.05,6.23,-21.99,-21.98,-1.59
68.69,-27.93,-26.34,-27.93,-26.34,6.00,6.05,6.19,-21.93,-21.93,-1.59
69.37,-27.88,-26.29,-27.87,-26.28,6.00,6.05,6.15,-21.88,-21.87,-1.59
70.07,-27.81,-26.22,-27.81,-26.22,6.00,6.05,6.10,-21.81,-21.81,-1.59
70.77,-27.75,-26.16,-27.75,-26.16,6.00,6.04,6.05,-21.75,-21.75,-1.59
71.48,-27.69,-26.10,-27.68,-26.10,6.00,6.04,6.00,-21.69,-21.68,-1.59
72.19,-27.62,-26.04,-27.61,-26.03,6.00,6.04,5.95,-21.62,-21.61,-1.58
72.91,-27.53,-25.95,-27.53,-25.95,6.00,6.04,5.90,-21.53,-21.53,-1.58
73.64,-27.44,-25.86,-27.44,-25.86,6.00,6.04,5.85,-21.44,-21.44,-1.58
74.38,-27.34,-25.77,-27.33,-25.76,6.00,6.04,5.80,-21.34,-21.33,-1.57
75.12,-27.22,-25.65,-27.22,-25.65,6.00,6.04,5.75,-21.22,-21.22,-1.57
75.87,-27.10,-25.52,-27.10,-25.53,6.00,6.04,5.71,-21.10,-21.10,-1.57
76.63,-26.97,-25.41,-26.97,-25.40,6.00,6.04,5.66,-20.97,-20.97,-1.56
77.40,-26.84,-25.28,-26.84,-25.28,6.00,6.04,5.62,-20.84,-20.84,-1.56
78.17,-26.71,-25.15,-26.70,-25.15,6.00,6.03,5.58,-20.71,-20.70,-1.55
78.95,-26.56,-25.00,-26.56,-25.01,6.00,6.03,5.54,-20.56,-20.56,-1.55
79.74,-26.42,-24.86,-26.42,-24.87,6.00,6.03,5.51,-20.42,-20.42,-1.55
80.54,-26.28,-24.74,-26.27,-24.73,6.00,6.03,5.48,-20.28,-20.27,-1.54
81.35,-26.14,-24.60,-26.14,-24.60,6.00,6.03,5.45,-20.14,-20.14,-1.54
82.16,-26.01,-24.47,-26.01,-24.47,6.00,6.03,5.42,-20.01,-20.01,-1.54
82.98,-25.88,-24.34,-25.88,-24.34,6.00,6.03,5.40,-19.88,-19.88,-1.54
83.81,-25.77,-24.23,-25.76,-24.22,6.00,6.03,5.38,-19.77,-19.76,-1.54
84.65,-25.65,-24.11,-25.64,-24.11,6.00,6.02,5.37,-19.65,-19.64,-1.54
85.50,-25.54,-24.01,-25.54,-24.00,6.00,6.02,5.36,-19.54,-19.54,-1.53
86.35,-25.43,-23.90,-25.44,-23.90,6.00,6.02,5.35,-19.43,-19.44,-1.53
87.22,-25.35,-23.82,-25.34,-23.81,6.00,6.02,5.35,-19.35,-19.34,-1.53
88.09,-25.26,-23.73,-25.25,-23.72,6.00,6.02,5.35,-19.26,-19.25,-1.53
88.97,-25.16,-23.63,-25.16,-23.63,6.00,6.02,5.35,-19.16,-19.16,-1.53
89.86,-25.07,-23.54,-25.07,-23.54,6.00,6.02,5.36,-19.07,-19.07,-1.53
90.76,-24.99,-23.46,-24.98,-23.45,6.00,6.01,5.37,-18.99,-18.98,-1.53
91.66,-24.91,-23.38,-24.90,-23.37,6.00,6.01,5.39,-18.91,-18.90,-1.53
92.58,-24.83,-23.30,-24.83,-23.30,6.00,6.01,5.41,-18.83,-18.83,-1.53
93.51,-24.76,-23.23,-24.76,-23.23,6.00,6.01,5.44,-18.76,-18.76,-1.53
94.44,-24.70,-23.17,-24.70,-23.16,6.00,6.01,5.47,-18.70,-18.70,-1.53
95.39,-24.64,-23.11,-24.64,-23.11,6.00,6.01,5.50,-18.64,-18.64,-1.53
96.34,-24.57,-23.04,-24.57,-23.04,6.00,6.01,5.53,-18.57,-18.57,-1.53
97.30,-24.49,-22.97,-24.48,-22.96,6.00,6.00,5.57,-18.49,-18.48,-1.52
98.28,-24.38,-22.86,-24.38,-22.86,6.00,6.00,5.61,-18.38,-18.38,-1.52
99.26,-24.25,-22.73,-24.24,-22.72,6.00,6.00,5.66,-18.25,-18.24,-1.52
100.25,-24.08,-22.56,-24.06,-22.54,6.00,6.00,5.70,-18.08,-18.06,-1.52
101.25,-23.86,-22.33,-23.86,-22.34,6.00,6.00,5.75,-17.86,-17.86,-1.52
102.27,-23.63,-22.11,-23.67,-22.15,6.00,5.99,5.81,-17.63,-17.67,-1.52
103.29,-23.49,-21.97,-23.47,-21.96,6.00,5.99,5.86,-17.49,-17.47,-1.52
104.32,-23.29,-21.77,-23.25,-21.73,6.00,5.99,5.92,-17.29,-17.25,-1.51
105.37,-22.97,-21.46,-22.97,-21.46,6.00,5.99,5.97,-16.97,-16.97,-1.51
106.42,-22.62,-21.11,-22.63,-21.12,6.00,5.99,6.03,-16.62,-16.63,-1.51
107.48,-22.27,-20.76,-22.26,-20.76,6.00,5.99,6.09,-16.27,-16.26,-1.50
108.56,-21.91,-20.41,-21.90,-20.40,6.00,5.98,6.14,-15.91,-15.90,-1.50
109.64,-21.56,-20.05,-21.56,-20.06,6.00,5.98,6.20,-15.56,-15.56,-1.50
110.74,-21.24,-19.74,-21.24,-19.74,6.00,5.98,6.26,-15.24,-15.24,-1.50
111.85,-20.96,-19.47,-20.96,-19.47,6.00,5.98,6.31,-14.96,-14.96,-1.49
112.97,-20.74,-19.25,-20.74,-19.25,6.00,5.98,6.36,-14.74,-14.74,-1.49
114.10,-20.59,-19.10,-20.59,-19.10,6.00,5.97,6.41,-14.59,-14.59,-1.49
115.24,-20.49,-19.00,-20.50,-19.01,6.00,5.97,6.45,-14.49,-14.50,-1.49
116.39,-20.46,-18.97,-20.44,-18.96,6.00,5.97,6.50,-14.46,-14.44,-1.49
117.55,-20.41,-18.93,-20.40,-18.91,6.00,5.97,6.53,-14.41,-14.40,-1.48
118.73,-20.36,-18.88,-20.36,-18.88,6.00,5.96,6.57,-14.36,-14.36,-1.48
119.92,-20.31,-18.83,-20.31,-18.84,6.00,5.96,6.59,-14.31,-14.31,-1.48
121.12,-20.28,-18.81,-20.28,-18.81,6.00,5.96,6.62,-14.28,-14.28,-1.47
122.33,-20.26,-18.79,-20.24,-18.78,6.00,5.96,6.63,-14.26,-14.24,-1.47
123.55,-20.22,-18.76,-20.21,-18.75,6.00,5.95,6.64,-14.22,-14.21,-1.46
124.79,-20.18,-18.72,-20.19,-18.73,6.00,5.95,6.65,-14.18,-14.19,-1.46
126.03,-20.19,-18.73,-20.18,-18.73,6.00,5.95,6.65,-14.19,-14.18,-1.46
127.29,-20.22,-18.77,-20.21,-18.76,6.00,5.95,6.64,-14.22,-14.21,-1.45
128.57,-20.26,-18.81,-20.28,-18.83,6.00,5.95,6.62,-14.26,-14.28,-1.45
129.85,-20.36,-18.92,-20.36,-18.91,6.00,5.94,6.60,-14.36,-14.36,-1.44
131.15,-20.48,-19.04,-20.44,-19.00,6.00,5.94,6.58,-14.48,-14.44,-1.44
132.46,-20.54,-19.10,-20.56,-19.12,6.00,5.94,6.55,-14.54,-14.56,-1.44
133.79,-20.66,-19.22,-20.67,-19.23,6.00,5.94,6.51,-14.66,-14.67,-1.44
135.12,-20.83,-19.39,-20.80,-19.36,6.00,5.93,6.47,-14.83,-14.80,-1.44
136.48,-20.91,-19.47,-20.92,-19.48,6.00,5.93,6.43,-14.91,-14.92,-1.44
137.84,-21.03,-19.60,-21.02,-19.59,6.00,5.93,6.38,-15.03,-15.02,-1.43
139.22,-21.10,-19.67,-21.10,-19.67,6.00,5.93,6.33,-15.10,-15.10,-1.43
140.61,-21.16,-19.73,-21.16,-19.73,6.00,5.92,6.28,-15.16,-15.16,-1.43
142.02,-21.20,-19.77,-21.19,-19.76,6.00,5.92,6.23,-15.20,-15.19,-1.43
143.44,-21.19,-19.76,-21.19,-19.76,6.00,5.92,6.17,-15.19,-15.19,-1.43
144.87,-21.15,-19.73,-21.15,-19.72,6.00,5.91,6.11,-15.15,-15.15,-1.42
146.32,-21.09,-19.67,-21.08,-19.66,6.00,5.91,6.06,-15.09,-15.08,-1.42
147.78,-20.98,-19.56,-20.98,-19.56,6.00,5.91,6.00,-14.98,-14.98,-1.42
149.26,-20.88,-19.47,-20.87,-19.45,6.00,5.91,5.94,-14.88,-14.87,-1.41
150.75,-20.73,-19.32,-20.74,-19.33,6.00,5.90,5.89,-14.73,-14.74,-1.41
152.26,-20.63,-19.22,-20.62,-19.21,6.00,5.90,5.83,-14.63,-14.62,-1.41
153.78,-20.50,-19.10,-20.50,-19.09,6.00,5.90,5.78,-14.50,-14.50,-1.40
155.32,-20.40,-19.00,-20.39,-18.99,6.00,5.90,5.73,-14.40,-14.39,-1.40
156.88,-20.28,-18.88,-20.28,-18.89,6.00,5.89,5.69,-14.28,-14.28,-1.40
158.44,-20.20,-18.81,-20.18,-18.79,6.00,5.89,5.64,-14.20,-14.18,-1.39
160.03,-20.08,-18.69,-20.09,-18.70,6.00,5.89,5.60,-14.08,-14.09,-1.39
161.63,-20.01,-18.62,-20.01,-18.62,6.00,5.89,5.56,-14.01,-14.01,-1.39
163.24,-19.94,-18.55,-19.92,-18.53,6.00,5.88,5.52,-13.94,-13.92,-1.39
164.88,-19.85,-18.46,-19.85,-18.47,6.00,5.88,5.49,-13.85,-13.85,-1.39
166.53,-19.77,-18.39,-19.77,-18.39,6.00,5.88,5.46,-13.77,-13.77,-1.38
168.19,-19.70,-18.32,-19.68,-18.30,6.00,5.87,5.44,-13.70,-13.68,-1.38
169.87,-19.60,-18.22,-19.60,-18.23,6.00,5.87,5.42,-13.60,-13.60,-1.38
171.57,-19.51,-18.14,-19.51,-18.14,6.00,5.87,5.40,-13.51,-13.51,-1.37
173.29,-19.43,-18.06,-19.41,-18.04,6.00,5.87,5.39,-13.43,-13.41,-1.37
175.02,-19.30,-17.93,-19.31,-17.94,6.00,5.86,5.38,-13.30,-13.31,-1.37
176.77,-19.20,-17.83,-19.20,-17.83,6.00,5.86,5.37,-13.20,-13.20,-1.37
178.54,-19.11,-17.75,-19.11,-17.74,6.00,5.86,5.37,-13.11,-13.11,-1.36
180.32,-19.01,-17.65,-19.01,-17.65,6.00,5.86,5.37,-13.01,-13.01,-1.36
182.13,-18.93,-17.57,-18.90,-17.54,6.00,5.85,5.38,-12.93,-12.90,-1.36
183.95,-18.78,-17.42,-18.79,-17.43,6.00,5.85,5.39,-12.78,-12.79,-1.36
185.79,-18.68,-17.31,-18.68,-17.32,6.00,5.85,5.40,-12.68,-12.68,-1.37
187.65,-18.59,-17.22,-18.58,-17.21,6.00,5.85,5.42,-12.59,-12.58,-1.37
189.52,-18.49,-17.12,-18.48,-17.11,6.00,5.84,5.45,-12.49,-12.48,-1.37
191.42,-18.39,-17.02,-18.39,-17.02,6.00,5.84,5.47,-12.39,-12.39,-1.37
193.33,-18.29,-16.93,-18.29,-16.93,6.00,5.84,5.50,-12.29,-12.29,-1.36
195.27,-18.20,-16.84,-18.20,-16.83,6.00,5.84,5.53,-12.20,-12.20,-1.36
197.22,-18.11,-16.75,-18.11,-16.75,6.00,5.84,5.57,-12.11,-12.11,-1.36
199.19,-18.02,-16.66,-18.01,-16.66,6.00,5.83,5.61,-12.02,-12.01,-1.36
201.18,-17.92,-16.57,-17.91,-16.56,6.00,5.83,5.65,-11.92,-11.91,-1.35
203.19,-17.81,-16.46,-17.81,-16.46,6.00,5.83,5.69,-11.81,-11.81,-1.35
205.23,-17.70,-16.35,-17.70,-16.36,6.00,5.83,5.74,-11.70,-11.70,-1.35
207.28,-17.60,-16.26,-17.59,-16.25,6.00,5.83,5.78,-11.60,-11.59,-1.34
209.35,-17.49,-16.15,-17.48,-16.14,6.00,5.83,5.83,-11.49,-11.48,-1.34
211.44,-17.37,-16.03,-17.37,-16.04,6.00,5.82,5.88,-11.37,-11.37,-1.34
213.56,-17.26,-15.93,-17.26,-15.92,6.00,5.82,5.94,-11.26,-11.26,-1.33
215.69,-17.16,-15.83,-17.15,-15.82,6.00,5.82,5.99,-11.16,-11.15,-1.33
217.85,-17.04,-15.71,-17.05,-15.72,6.00,5.82,6.04,-11.04,-11.05,-1.33
220.03,-16.97,-15.64,-16.96,-15.63,6.00,5.82,6.09,-10.97,-10.96,-1.33
222.23,-16.88,-15.56,-16.87,-15.54,6.00,5.82,6.14,-10.88,-10.87,-1.32
224.45,-16.77,-15.45,-16.77,-15.44,6.00,5.82,6.19,-10.77,-10.77,-1.32
226.70,-16.66,-15.34,-16.66,-15.34,6.00,5.82,6.23,-10.66,-10.66,-1.32
228.96,-16.56,-15.24,-16.56,-15.25,6.00,5.82,6.28,-10.56,-10.56,-1.32
231.25,-16.48,-15.17,-16.47,-15.15,6.00,5.82,6.32,-10.48,-10.47,-1.31
233.57,-16.38,-15.07,-16.37,-15.06,6.00,5.82,6.36,-10.38,-10.37,-1.31
235.90,-16.27,-14.97,-16.28,-14.97,6.00,5.82,6.39,-10.27,-10.28,-1.30
238.26,-16.19,-14.89,-16.18,-14.89,6.00,5.82,6.42,-10.19,-10.18,-1.30
240.64,-16.10,-14.81,-16.10,-14.81,6.00,5.82,6.44,-10.10,-10.10,-1.29
243.05,-16.02,-14.74,-16.01,-14.72,6.00,5.82,6.46,-10.02,-10.01,-1.28
245.48,-15.92,-14.64,-15.91,-14.63,6.00,5.82,6.48,-9.92,-9.91,-1.28
247.93,-15.79,-14.52,-15.80,-14.53,6.00,5.82,6.49,-9.79,-9.80,-1.27
250.41,-15.71,-14.45,-15.69,-14.43,6.00,5.82,6.49,-9.71,-9.69,-1.26
252.92,-15.59,-14.34,-15.60,-14.34,6.00,5.82,6.49,-9.59,-9.60,-1.25
255.45,-15.51,-14.26,-15.50,-14.26,6.00,5.82,6.48,-9.51,-9.50,-1.25
258.00,-15.42,-14.18,-15.41,-14.17,6.00,5.83,6.47,-9.42,-9.41,-1.24
260.58,-15.32,-14.08,-15.32,-14.08,6.00,5.83,6.45,-9.32,-9.32,-1.24
263.19,-15.23,-14.00,-15.22,-13.99,6.00,5.83,6.43,-9.23,-9.22,-1.23
265.82,-15.12,-13.89,-15.13,-13.90,6.00,5.83,6.41,-9.12,-9.13,-1.23
268.48,-15.04,-13.82,-15.03,-13.81,6.00,5.84,6.37,-9.04,-9.03,-1.22
271.16,-14.95,-13.73,-14.93,-13.71,6.00,5.84,6.34,-8.95,-8.93,-1.22
273.87,-14.83,-13.61,-14.83,-13.62,6.00,5.84,6.30,-8.83,-8.83,-1.22
276.61,-14.73,-13.52,-14.73,-13.51,6.00,5.85,6.26,-8.73,-8.73,-1.21
279.38,-14.64,-13.43,-14.64,-13.42,6.00,5.85,6.22,-8.64,-8.64,-1.21
282.17,-14.55,-13.34,-14.55,-13.34,6.00,5.86,6.18,-8.55,-8.55,-1.21
284.99,-14.47,-13.27,-14.46,-13.25,6.00,5.86,6.13,-8.47,-8.46,-1.20
287.84,-14.37,-13.17,-14.37,-13.16,6.00,5.87,6.09,-8.37,-8.37,-1.20
290.72,-14.27,-13.07,-14.27,-13.07,6.00,5.87,6.04,-8.27,-8.27,-1.20
293.63,-14.18,-12.98,-14.18,-12.98,6.00,5.88,5.99,-8.18,-8.18,-1.20
296.57,-14.09,-12.89,-14.09,-12.89,6.00,5.88,5.95,-8.09,-8.09,-1.20
299.53,-14.00,-12.80,-13.99,-12.79,6.00,5.89,5.90,-8.00,-7.99,-1.20
302.53,-13.90,-12.71,-13.90,-12.70,6.00,5.90,5.86,-7.90,-7.90,-1.19
305.55,-13.80,-12.61,-13.80,-12.61,6.00,5.90,5.82,-7.80,-7.80,-1.19
308.61,-13.71,-12.53,-13.70,-12.52,6.00,5.91,5.78,-7.71,-7.70,-1.18
311.69,-13.61,-12.43,-13.61,-12.43,6.00,5.92,5.74,-7.61,-7.61,-1.18
314.81,-13.53,-12.36,-13.53,-12.35,6.00,5.93,5.71,-7.53,-7.53,-1.17
317.96,-13.44,-12.27,-13.43,-12.27,6.00,5.93,5.68,-7.44,-7.43,-1.17
321.14,-13.35,-12.19,-13.34,-12.17,6.00,5.94,5.65,-7.35,-7.34,-1.16
324.35,-13.23,-12.07,-13.24,-12.08,6.00,5.95,5.63,-7.23,-7.24,-1.16
327.59,-13.14,-11.98,-13.14,-11.98,6.00,5.96,5.61,-7.14,-7.14,-1.16
330.87,-13.05,-11.90,-13.03,-11.88,6.00,5.97,5.59,-7.05,-7.03,-1.15
334.18,-12.94,-11.79,-12.94,-11.79,6.00,5.98,5.58,-6.94,-6.94,-1.15
337.52,-12.83,-11.69,-12.84,-11.70,6.00,5.99,5.57,-6.83,-6.84,-1.14
340.90,-12.75,-11.62,-12.74,-11.60,6.00,6.00,5.56,-6.75,-6.74,-1.13
344.30,-12.64,-11.51,-12.64,-11.51,6.00,6.01,5.56,-6.64,-6.64,-1.13
