frequency,raw,error,smoothed,error_smoothed,equalization,parametric_eq,fixed_band_eq,equalized_raw,equalized_smoothed,target
20.00,5.79,0.69,5.79,0.69,-0.69,-1.40,-0.95,5.10,5.10,5.10
20.20,5.80,0.71,5.79,0.70,-0.70,-1.42,-0.98,5.10,5.10,5.09
20.40,5.79,0.70,5.80,0.71,-0.70,-1.44,-1.00,5.09,5.09,5.09
20.61,5.80,0.72,5.80,0.72,-0.72,-1.46,-1.03,5.08,5.08,5.08
20.81,5.81,0.73,5.81,0.73,-0.73,-1.48,-1.06,5.08,5.08,5.08
21.02,5.82,0.74,5.82,0.75,-0.75,-1.50,-1.09,5.07,5.07,5.08
21.23,5.83,0.77,5.83,0.77,-0.77,-1.52,-1.12,5.06,5.06,5.06
21.44,5.84,0.80,5.84,0.80,-0.80,-1.54,-1.16,5.04,5.04,5.04
21.66,5.85,0.83,5.85,0.83,-0.83,-1.56,-1.19,5.02,5.02,5.02
21.87,5.85,0.86,5.86,0.86,-0.86,-1.58,-1.23,4.99,5.00,4.99
22.09,5.87,0.90,5.87,0.90,-0.90,-1.60,-1.26,4.97,4.97,4.97
22.31,5.88,0.93,5.88,0.94,-0.94,-1.62,-1.30,4.94,4.94,4.95
22.54,5.89,0.97,5.89,0.98,-0.98,-1.64,-1.33,4.91,4.91,4.92
22.76,5.91,1.02,5.91,1.02,-1.02,-1.66,-1.37,4.89,4.88,4.89
22.99,5.92,1.06,5.92,1.07,-1.06,-1.68,-1.41,4.86,4.86,4.86
23.22,5.94,1.11,5.94,1.11,-1.11,-1.70,-1.45,4.83,4.83,4.83
23.45,5.96,1.15,5.96,1.15,-1.15,-1.72,-1.49,4.81,4.81,4.81
23.69,5.98,1.19,5.98,1.20,-1.19,-1.74,-1.54,4.79,4.79,4.79
23.92,6.00,1.24,6.00,1.23,-1.23,-1.76,-1.58,4.77,4.77,4.76
24.16,6.03,1.28,6.02,1.27,-1.28,-1.78,-1.62,4.75,4.75,4.75
24.40,6.04,1.31,6.05,1.31,-1.32,-1.81,-1.67,4.72,4.73,4.73
24.65,6.07,1.36,6.07,1.35,-1.36,-1.83,-1.71,4.71,4.71,4.71
24.89,6.09,1.40,6.09,1.40,-1.40,-1.85,-1.76,4.69,4.69,4.69
25.14,6.12,1.45,6.12,1.44,-1.44,-1.87,-1.80,4.68,4.67,4.67
25.39,6.14,1.49,6.14,1.49,-1.49,-1.89,-1.85,4.65,4.65,4.65
25.65,6.16,1.52,6.16,1.53,-1.53,-1.91,-1.89,4.63,4.64,4.64
25.91,6.19,1.58,6.19,1.57,-1.57,-1.93,-1.94,4.62,4.61,4.61
26.16,6.21,1.61,6.21,1.61,-1.61,-1.95,-1.99,4.60,4.60,4.60
26.43,6.23,1.65,6.23,1.65,-1.65,-1.98,-2.03,4.58,4.58,4.58
26.69,6.26,1.69,6.26,1.69,-1.69,-2.00,-2.08,4.57,4.57,4.57
26.96,6.28,1.73,6.28,1.73,-1.73,-2.02,-2.12,4.55,4.55,4.55
27.23,6.30,1.76,6.30,1.77,-1.77,-2.04,-2.17,4.53,4.53,4.54
27.50,6.31,1.79,6.32,1.80,-1.81,-2.06,-2.21,4.50,4.51,4.52
27.77,6.34,1.85,6.34,1.84,-1.84,-2.08,-2.25,4.50,4.49,4.49
28.05,6.36,1.88,6.36,1.88,-1.88,-2.11,-2.29,4.48,4.48,4.48
28.33,6.38,1.93,6.38,1.92,-1.92,-2.13,-2.33,4.46,4.47,4.45
28.62,6.41,1.97,6.40,1.96,-1.95,-2.15,-2.37,4.46,4.45,4.44
28.90,6.42,1.98,6.42,1.99,-1.99,-2.17,-2.41,4.43,4.44,4.44
29.19,6.44,2.02,6.44,2.02,-2.02,-2.19,-2.44,4.42,4.42,4.42
29.48,6.47,2.05,6.47,2.05,-2.06,-2.22,-2.47,4.41,4.41,4.42
29.78,6.49,2.09,6.49,2.09,-2.09,-2.24,-2.50,4.40,4.40,4.40
30.08,6.51,2.12,6.51,2.12,-2.12,-2.26,-2.53,4.39,4.38,4.39
30.38,6.52,2.15,6.52,2.16,-2.16,-2.29,-2.55,4.36,4.37,4.36
30.68,6.54,2.20,6.54,2.20,-2.19,-2.31,-2.57,4.35,4.35,4.34
30.99,6.56,2.24,6.56,2.23,-2.23,-2.33,-2.59,4.33,4.33,4.32
31.30,6.57,2.26,6.57,2.26,-2.26,-2.36,-2.61,4.31,4.31,4.31
31.61,6.59,2.29,6.59,2.29,-2.30,-2.38,-2.62,4.29,4.29,4.30
31.93,6.60,2.33,6.60,2.33,-2.33,-2.40,-2.63,4.27,4.27,4.27
32.24,6.62,2.37,6.62,2.37,-2.37,-2.43,-2.64,4.25,4.25,4.25
32.57,6.64,2.42,6.64,2.41,-2.41,-2.45,-2.64,4.23,4.23,4.22
32.89,6.65,2.44,6.65,2.45,-2.44,-2.48,-2.64,4.21,4.21,4.21
33.22,6.67,2.49,6.67,2.48,-2.48,-2.50,-2.64,4.19,4.18,4.18
33.55,6.68,2.51,6.68,2.52,-2.52,-2.53,-2.64,4.16,4.16,4.17
33.89,6.70,2.56,6.70,2.56,-2.56,-2.55,-2.64,4.14,4.14,4.14
34.23,6.72,2.59,6.72,2.60,-2.60,-2.58,-2.63,4.12,4.12,4.13
34.57,6.74,2.65,6.74,2.64,-2.64,-2.61,-2.62,4.10,4.10,4.09
34.92,6.75,2.68,6.75,2.68,-2.68,-2.63,-2.61,4.07,4.08,4.07
35.27,6.77,2.71,6.77,2.72,-2.72,-2.66,-2.60,4.05,4.05,4.06
35.62,6.79,2.75,6.79,2.76,-2.76,-2.69,-2.59,4.03,4.03,4.04
35.97,6.81,2.81,6.81,2.80,-2.80,-2.72,-2.58,4.01,4.01,4.00
36.33,6.83,2.84,6.83,2.84,-2.84,-2.75,-2.57,3.99,3.99,3.99
36.70,6.85,2.88,6.85,2.88,-2.88,-2.78,-2.55,3.97,3.97,3.97
37.06,6.87,2.93,6.87,2.93,-2.92,-2.81,-2.54,3.95,3.95,3.94
37.43,6.89,2.97,6.89,2.97,-2.97,-2.84,-2.53,3.92,3.92,3.92
37.81,6.91,3.01,6.91,3.01,-3.01,-2.88,-2.52,3.90,3.90,3.90
38.19,6.93,3.05,6.93,3.05,-3.05,-2.91,-2.51,3.88,3.88,3.88
38.57,6.95,3.08,6.95,3.09,-3.09,-2.95,-2.49,3.86,3.86,3.87
38.95,6.97,3.13,6.97,3.13,-3.13,-2.98,-2.49,3.84,3.84,3.84
39.34,6.98,3.16,6.98,3.17,-3.17,-3.02,-2.48,3.81,3.82,3.82
39.74,7.00,3.21,7.00,3.20,-3.20,-3.06,-2.47,3.80,3.79,3.79
40.14,7.01,3.24,7.01,3.24,-3.24,-3.10,-2.46,3.77,3.77,3.77
40.54,7.02,3.27,7.02,3.27,-3.27,-3.14,-2.46,3.75,3.75,3.75
40.94,7.04,3.30,7.04,3.31,-3.30,-3.18,-2.46,3.74,3.73,3.74
41.35,7.05,3.34,7.05,3.33,-3.33,-3.22,-2.46,3.72,3.72,3.71
41.76,7.06,3.36,7.06,3.36,-3.36,-3.26,-2.46,3.70,3.70,3.70
42.18,7.06,3.38,7.06,3.38,-3.38,-3.30,-2.46,3.68,3.68,3.68
42.60,7.07,3.41,7.07,3.40,-3.41,-3.34,-2.46,3.66,3.66,3.66
43.03,7.07,3.42,7.07,3.42,-3.43,-3.38,-2.47,3.64,3.64,3.65
43.46,7.07,3.44,7.07,3.45,-3.45,-3.42,-2.47,3.62,3.62,3.63
43.90,7.07,3.47,7.07,3.47,-3.47,-3.45,-2.48,3.60,3.60,3.60
44.33,7.07,3.50,7.07,3.49,-3.49,-3.49,-2.50,3.58,3.58,3.57
44.78,7.05,3.50,7.06,3.50,-3.50,-3.52,-2.51,3.55,3.55,3.55
45.23,7.05,3.52,7.05,3.52,-3.51,-3.55,-2.53,3.54,3.53,3.53
45.68,7.03,3.52,7.04,3.52,-3.52,-3.57,-2.54,3.51,3.51,3.51
46.13,7.03,3.54,7.03,3.53,-3.53,-3.59,-2.56,3.50,3.50,3.49
46.60,7.01,3.53,7.01,3.53,-3.53,-3.60,-2.58,3.48,3.48,3.48
47.06,6.99,3.52,6.99,3.53,-3.53,-3.61,-2.61,3.46,3.47,3.47
47.53,6.97,3.52,6.97,3.52,-3.53,-3.62,-2.63,3.44,3.45,3.45
48.01,6.95,3.52,6.95,3.52,-3.52,-3.62,-2.66,3.43,3.42,3.43
48.49,6.92,3.51,6.92,3.51,-3.52,-3.61,-2.68,3.40,3.40,3.41
48.97,6.89,3.51,6.89,3.51,-3.51,-3.60,-2.71,3.38,3.38,3.38
49.46,6.86,3.51,6.86,3.51,-3.51,-3.59,-2.74,3.35,3.35,3.35
49.96,6.83,3.51,6.83,3.50,-3.50,-3.57,-2.78,3.33,3.33,3.32
50.46,6.80,3.49,6.80,3.50,-3.49,-3.55,-2.81,3.31,3.31,3.31
50.96,6.77,3.48,6.77,3.48,-3.48,-3.53,-2.84,3.29,3.29,3.29
51.47,6.73,3.47,6.73,3.47,-3.47,-3.50,-2.88,3.26,3.26,3.26
51.99,6.69,3.45,6.69,3.45,-3.45,-3.48,-2.91,3.24,3.24,3.24
52.51,6.66,3.43,6.66,3.43,-3.43,-3.45,-2.95,3.23,3.22,3.23
53.03,6.62,3.41,6.62,3.41,-3.42,-3.42,-2.98,3.20,3.20,3.21
53.56,6.58,3.40,6.58,3.40,-3.40,-3.39,-3.02,3.18,3.19,3.18
54.10,6.55,3.39,6.54,3.38,-3.38,-3.37,-3.06,3.17,3.16,3.16
54.64,6.50,3.36,6.50,3.36,-3.36,-3.34,-3.09,3.14,3.14,3.14
55.18,6.46,3.34,6.46,3.34,-3.34,-3.31,-3.12,3.12,3.12,3.12
55.74,6.42,3.32,6.42,3.32,-3.32,-3.29,-3.16,3.10,3.10,3.10
56.29,6.38,3.30,6.38,3.30,-3.30,-3.26,-3.19,3.08,3.08,3.08
56.86,6.34,3.28,6.34,3.28,-3.28,-3.24,-3.22,3.06,3.06,3.06
57.42,6.30,3.27,6.30,3.26,-3.26,-3.21,-3.24,3.04,3.04,3.03
58.00,6.26,3.24,6.26,3.24,-3.23,-3.19,-3.27,3.03,3.03,3.02
58.58,6.21,3.20,6.21,3.20,-3.21,-3.16,-3.29,3.00,3.01,3.01
59.16,6.17,3.17,6.17,3.18,-3.18,-3.14,-3.31,2.99,2.99,3.00
59.76,6.12,3.15,6.12,3.15,-3.16,-3.12,-3.33,2.96,2.96,2.97
60.35,6.08,3.13,6.08,3.13,-3.13,-3.10,-3.34,2.95,2.95,2.95
60.96,6.03,3.10,6.03,3.11,-3.11,-3.08,-3.35,2.92,2.92,2.93
61.57,5.99,3.09,5.99,3.09,-3.09,-3.06,-3.36,2.90,2.90,2.90
62.18,5.94,3.07,5.94,3.07,-3.06,-3.03,-3.36,2.88,2.88,2.87
62.80,5.90,3.04,5.90,3.05,-3.04,-3.01,-3.36,2.86,2.86,2.86
63.43,5.85,3.02,5.85,3.02,-3.01,-2.99,-3.36,2.84,2.84,2.83
64.07,5.80,2.99,5.80,2.99,-2.99,-2.97,-3.35,2.81,2.81,2.81
64.71,5.75,2.96,5.75,2.96,-2.96,-2.95,-3.34,2.79,2.79,2.79
65.35,5.70,2.92,5.70,2.92,-2.93,-2.93,-3.32,2.77,2.77,2.78
66.01,5.65,2.89,5.65,2.90,-2.90,-2.91,-3.31,2.75,2.75,2.76
66.67,5.61,2.87,5.61,2.87,-2.87,-2.89,-3.28,2.74,2.74,2.74
67.33,5.56,2.84,5.56,2.84,-2.84,-2.86,-3.26,2.72,2.72,2.72
68.01,5.51,2.81,5.51,2.81,-2.81,-2.84,-3.24,2.70,2.70,2.70
68.69,5.46,2.78,5.46,2.78,-2.78,-2.82,-3.21,2.68,2.68,2.68
69.37,5.41,2.75,5.41,2.75,-2.75,-2.79,-3.18,2.66,2.66,2.66
70.07,5.36,2.72,5.36,2.72,-2.73,-2.77,-3.14,2.63,2.64,2.64
70.77,5.32,2.70,5.32,2.70,-2.70,-2.75,-3.11,2.62,2.62,2.62
71.48,5.27,2.67,5.27,2.67,-2.67,-2.72,-3.08,2.60,2.60,2.60
72.19,5.22,2.64,5.22,2.65,-2.65,-2.69,-3.04,2.57,2.58,2.58
72.91,5.17,2.63,5.17,2.62,-2.62,-2.67,-3.00,2.55,2.55,2.54
73.64,5.12,2.60,5.12,2.60,-2.60,-2.64,-2.97,2.52,2.52,2.52
74.38,5.07,2.57,5.07,2.57,-2.57,-2.61,-2.93,2.50,2.50,2.50
75.12,5.03,2.55,5.03,2.55,-2.55,-2.58,-2.89,2.48,2.48,2.48
75.87,4.98,2.53,4.98,2.52,-2.53,-2.56,-2.86,2.45,2.45,2.45
76.63,4.93,2.50,4.93,2.50,-2.50,-2.53,-2.82,2.43,2.43,2.43
77.40,4.89,2.48,4.89,2.48,-2.48,-2.50,-2.78,2.41,2.40,2.41
78.17,4.84,2.47,4.84,2.47,-2.46,-2.47,-2.75,2.38,2.38,2.37
78.95,4.80,2.45,4.80,2.44,-2.44,-2.44,-2.72,2.36,2.35,2.35
79.74,4.75,2.42,4.75,2.42,-2.43,-2.42,-2.68,2.32,2.32,2.33
80.54,4.70,2.40,4.71,2.40,-2.41,-2.39,-2.65,2.29,2.30,2.30
81.35,4.67,2.40,4.66,2.39,-2.39,-2.37,-2.62,2.28,2.27,2.27
82.16,4.62,2.38,4.62,2.38,-2.38,-2.34,-2.60,2.24,2.25,2.24
82.98,4.58,2.36,4.58,2.37,-2.36,-2.32,-2.57,2.22,2.22,2.22
83.81,4.54,2.36,4.53,2.35,-2.35,-2.30,-2.55,2.19,2.18,2.18
84.65,4.48,2.33,4.49,2.34,-2.34,-2.28,-2.52,2.14,2.15,2.15
85.50,4.44,2.32,4.44,2.32,-2.32,-2.27,-2.50,2.12,2.12,2.12
86.35,4.40,2.31,4.40,2.31,-2.31,-2.26,-2.48,2.09,2.09,2.09
87.22,4.35,2.29,4.36,2.30,-2.30,-2.25,-2.47,2.05,2.06,2.06
88.09,4.32,2.30,4.31,2.29,-2.28,-2.24,-2.45,2.04,2.03,2.02
88.97,4.27,2.27,4.27,2.27,-2.27,-2.23,-2.44,2.00,2.00,2.00
89.86,4.23,2.26,4.23,2.26,-2.26,-2.23,-2.43,1.97,1.97,1.97
90.76,4.18,2.25,4.18,2.25,-2.25,-2.23,-2.42,1.93,1.93,1.93
91.66,4.14,2.24,4.14,2.24,-2.24,-2.23,-2.41,1.90,1.90,1.90
92.58,4.10,2.24,4.10,2.23,-2.23,-2.24,-2.40,1.87,1.86,1.86
93.51,4.05,2.21,4.06,2.22,-2.22,-2.24,-2.40,1.83,1.83,1.84
94.44,4.02,2.22,4.02,2.22,-2.22,-2.25,-2.40,1.80,1.80,1.80
95.39,3.98,2.21,3.98,2.21,-2.21,-2.25,-2.39,1.77,1.76,1.77
96.34,3.93,2.21,3.93,2.21,-2.21,-2.26,-2.40,1.72,1.73,1.72
97.30,3.89,2.21,3.89,2.21,-2.21,-2.27,-2.40,1.68,1.68,1.68
98.28,3.85,2.21,3.85,2.21,-2.20,-2.28,-2.40,1.65,1.64,1.64
99.26,3.81,2.20,3.81,2.20,-2.20,-2.28,-2.41,1.61,1.61,1.61
100.25,3.77,2.20,3.77,2.20,-2.20,-2.29,-2.41,1.57,1.57,1.57
101.25,3.73,2.20,3.73,2.20,-2.20,-2.30,-2.42,1.53,1.53,1.53
102.27,3.69,2.20,3.69,2.20,-2.20,-2.30,-2.43,1.49,1.49,1.49
103.29,3.65,2.22,3.65,2.21,-2.20,-2.31,-2.44,1.45,1.45,1.43
104.32,3.61,2.20,3.61,2.21,-2.20,-2.31,-2.45,1.41,1.41,1.41
105.37,3.57,2.21,3.57,2.21,-2.21,-2.32,-2.46,1.36,1.36,1.36
106.42,3.52,2.20,3.52,2.20,-2.21,-2.32,-2.47,1.31,1.31,1.32
107.48,3.48,2.20,3.48,2.21,-2.21,-2.32,-2.48,1.27,1.27,1.28
108.56,3.44,2.22,3.44,2.21,-2.22,-2.32,-2.49,1.22,1.22,1.22
109.64,3.41,2.23,3.41,2.22,-2.22,-2.32,-2.50,1.19,1.18,1.18
110.74,3.37,2.23,3.37,2.23,-2.23,-2.32,-2.51,1.14,1.14,1.14
111.85,3.33,2.23,3.33,2.24,-2.24,-2.32,-2.52,1.09,1.09,1.10
112.97,3.29,2.26,3.29,2.25,-2.25,-2.32,-2.53,1.04,1.04,1.03
114.10,3.24,2.25,3.25,2.26,-2.26,-2.31,-2.54,0.98,0.99,0.99
115.24,3.21,2.26,3.21,2.26,-2.26,-2.31,-2.54,0.95,0.94,0.95
116.39,3.17,2.27,3.17,2.27,-2.27,-2.30,-2.55,0.90,0.90,0.90
117.55,3.13,2.28,3.13,2.28,-2.28,-2.30,-2.55,0.85,0.85,0.85
118.73,3.09,2.28,3.09,2.28,-2.28,-2.29,-2.55,0.81,0.81,0.81
119.92,3.05,2.28,3.05,2.28,-2.28,-2.28,-2.55,0.77,0.77,0.77
121.12,3.01,2.29,3.01,2.28,-2.28,-2.27,-2.54,0.73,0.73,0.72
122.33,2.96,2.28,2.96,2.28,-2.28,-2.26,-2.53,0.68,0.68,0.68
123.55,2.92,2.28,2.92,2.28,-2.28,-2.25,-2.53,0.64,0.64,0.64
124.79,2.88,2.27,2.88,2.27,-2.28,-2.24,-2.51,0.60,0.60,0.61
126.03,2.84,2.28,2.84,2.27,-2.28,-2.23,-2.50,0.56,0.56,0.56
127.29,2.80,2.28,2.80,2.28,-2.28,-2.21,-2.48,0.52,0.52,0.52
128.57,2.76,2.28,2.76,2.29,-2.28,-2.20,-2.46,0.48,0.48,0.48
129.85,2.73,2.30,2.72,2.29,-2.28,-2.18,-2.44,0.45,0.44,0.43
131.15,2.68,2.28,2.68,2.28,-2.28,-2.17,-2.42,0.40,0.41,0.40
132.46,2.64,2.27,2.64,2.27,-2.27,-2.15,-2.39,0.37,0.37,0.37
133.79,2.60,2.26,2.60,2.26,-2.26,-2.14,-2.36,0.34,0.33,0.34
135.12,2.56,2.26,2.56,2.25,-2.25,-2.12,-2.33,0.31,0.30,0.30
136.48,2.51,2.23,2.51,2.24,-2.24,-2.10,-2.30,0.27,0.27,0.28
137.84,2.47,2.22,2.47,2.23,-2.23,-2.08,-2.26,0.24,0.24,0.25
139.22,2.43,2.21,2.43,2.21,-2.21,-2.06,-2.23,0.22,0.22,0.22
140.61,2.39,2.20,2.39,2.20,-2.19,-2.04,-2.19,0.20,0.20,0.19
142.02,2.35,2.17,2.35,2.17,-2.17,-2.02,-2.15,0.18,0.18,0.18
143.44,2.31,2.16,2.31,2.15,-2.15,-2.00,-2.11,0.16,0.16,0.15
144.87,2.26,2.12,2.27,2.13,-2.13,-1.98,-2.07,0.13,0.14,0.14
146.32,2.23,2.11,2.23,2.11,-2.11,-1.96,-2.03,0.12,0.12,0.12
147.78,2.19,2.09,2.19,2.08,-2.09,-1.94,-1.99,0.10,0.10,0.10
149.26,2.15,2.06,2.15,2.06,-2.06,-1.92,-1.94,0.09,0.08,0.09
150.75,2.10,2.05,2.10,2.04,-2.04,-1.89,-1.90,0.06,0.06,0.05
152.26,2.06,2.02,2.06,2.02,-2.02,-1.87,-1.86,0.04,0.04,0.04
153.78,2.03,2.00,2.02,2.00,-2.00,-1.85,-1.82,0.03,0.02,0.03
155.32,1.99,1.99,1.99,1.98,-1.98,-1.82,-1.78,0.01,0.00,0.00
156.88,1.95,1.96,1.95,1.96,-1.97,-1.80,-1.74,-0.02,-0.01,-0.01
158.44,1.92,1.95,1.92,1.95,-1.96,-1.77,-1.70,-0.04,-0.04,-0.03
160.03,1.89,1.94,1.88,1.94,-1.94,-1.75,-1.66,-0.05,-0.06,-0.05
161.63,1.85,1.93,1.85,1.93,-1.93,-1.72,-1.62,-0.08,-0.08,-0.08
163.24,1.82,1.92,1.82,1.92,-1.92,-1.70,-1.58,-0.10,-0.10,-0.10
164.88,1.80,1.91,1.79,1.91,-1.91,-1.67,-1.54,-0.11,-0.11,-0.11
166.53,1.76,1.89,1.76,1.90,-1.90,-1.64,-1.50,-0.14,-0.13,-0.13
168.19,1.73,1.89,1.73,1.89,-1.89,-1.61,-1.47,-0.16,-0.16,-0.16
169.87,1.69,1.87,1.69,1.87,-1.87,-1.59,-1.43,-0.18,-0.18,-0.18
171.57,1.66,1.87,1.66,1.86,-1.86,-1.56,-1.40,-0.20,-0.21,-0.21
173.29,1.61,1.83,1.62,1.84,-1.85,-1.53,-1.37,-0.24,-0.23,-0.22
175.02,1.58,1.83,1.58,1.83,-1.83,-1.50,-1.34,-0.25,-0.25,-0.25
176.77,1.53,1.82,1.53,1.82,-1.81,-1.47,-1.31,-0.28,-0.28,-0.29
178.54,1.48,1.80,1.48,1.80,-1.79,-1.44,-1.28,-0.31,-0.31,-0.32
180.32,1.42,1.77,1.42,1.77,-1.76,-1.41,-1.25,-0.34,-0.34,-0.35
182.13,1.36,1.73,1.36,1.74,-1.74,-1.39,-1.22,-0.38,-0.38,-0.37
183.95,1.29,1.71,1.29,1.71,-1.71,-1.36,-1.19,-0.42,-0.41,-0.42
185.79,1.23,1.67,1.23,1.67,-1.67,-1.32,-1.17,-0.44,-0.44,-0.44
187.65,1.17,1.64,1.17,1.64,-1.64,-1.29,-1.14,-0.47,-0.47,-0.47
189.52,1.10,1.60,1.11,1.61,-1.61,-1.26,-1.12,-0.51,-0.50,-0.50
191.42,1.05,1.58,1.05,1.57,-1.58,-1.23,-1.10,-0.53,-0.53,-0.53
193.33,0.99,1.54,0.99,1.54,-1.55,-1.20,-1.08,-0.56,-0.56,-0.55
195.27,0.93,1.51,0.93,1.52,-1.52,-1.17,-1.05,-0.59,-0.59,-0.58
197.22,0.88,1.49,0.88,1.49,-1.49,-1.14,-1.03,-0.61,-0.61,-0.61
199.19,0.83,1.48,0.83,1.47,-1.47,-1.11,-1.01,-0.64,-0.64,-0.65
201.18,0.79,1.45,0.78,1.45,-1.45,-1.08,-0.99,-0.66,-0.66,-0.66
203.19,0.74,1.42,0.74,1.42,-1.42,-1.04,-0.98,-0.68,-0.68,-0.68
205.23,0.69,1.40,0.70,1.39,-1.40,-1.01,-0.96,-0.71,-0.70,-0.71
207.28,0.66,1.37,0.65,1.37,-1.38,-0.98,-0.94,-0.72,-0.72,-0.71
209.35,0.61,1.35,0.61,1.35,-1.35,-0.95,-0.92,-0.74,-0.74,-0.74
211.44,0.57,1.34,0.57,1.33,-1.32,-0.91,-0.91,-0.75,-0.75,-0.77
213.56,0.52,1.30,0.52,1.30,-1.29,-0.88,-0.89,-0.77,-0.77,-0.78
215.69,0.48,1.25,0.48,1.26,-1.26,-0.85,-0.87,-0.78,-0.78,-0.77
217.85,0.43,1.22,0.43,1.23,-1.23,-0.81,-0.86,-0.80,-0.79,-0.79
220.03,0.39,1.19,0.39,1.19,-1.19,-0.78,-0.84,-0.80,-0.80,-0.80
222.23,0.35,1.16,0.35,1.15,-1.15,-0.75,-0.83,-0.80,-0.80,-0.81
224.45,0.30,1.10,0.30,1.11,-1.10,-0.71,-0.81,-0.80,-0.80,-0.80
226.70,0.26,1.05,0.26,1.05,-1.05,-0.68,-0.80,-0.79,-0.79,-0.79
228.96,0.22,1.01,0.22,1.00,-1.01,-0.65,-0.78,-0.79,-0.79,-0.79
231.25,0.17,0.95,0.17,0.95,-0.95,-0.61,-0.76,-0.78,-0.78,-0.78
233.57,0.13,0.90,0.13,0.90,-0.90,-0.58,-0.75,-0.77,-0.77,-0.77
235.90,0.08,0.84,0.08,0.85,-0.85,-0.55,-0.73,-0.77,-0.76,-0.76
238.26,0.05,0.81,0.05,0.80,-0.80,-0.51,-0.71,-0.75,-0.75,-0.76
240.64,0.01,0.74,0.01,0.74,-0.74,-0.48,-0.69,-0.73,-0.73,-0.73
243.05,-0.02,0.70,-0.03,0.69,-0.69,-0.44,-0.68,-0.71,-0.71,-0.72
245.48,-0.07,0.62,-0.06,0.63,-0.64,-0.41,-0.66,-0.71,-0.70,-0.69
247.93,-0.09,0.58,-0.09,0.58,-0.58,-0.38,-0.64,-0.67,-0.67,-0.67
250.41,-0.12,0.54,-0.12,0.53,-0.53,-0.34,-0.62,-0.65,-0.65,-0.66
252.92,-0.15,0.48,-0.15,0.48,-0.48,-0.31,-0.59,-0.63,-0.63,-0.63
255.45,-0.19,0.41,-0.18,0.43,-0.43,-0.27,-0.57,-0.62,-0.61,-0.60
258.00,-0.21,0.38,-0.21,0.37,-0.37,-0.24,-0.55,-0.58,-0.58,-0.59
260.58,-0.23,0.33,-0.24,0.32,-0.32,-0.21,-0.53,-0.55,-0.56,-0.56
263.19,-0.27,0.27,-0.26,0.28,-0.27,-0.17,-0.50,-0.54,-0.53,-0.54
265.82,-0.29,0.23,-0.29,0.22,-0.22,-0.14,-0.48,-0.51,-0.51,-0.52
268.48,-0.32,0.16,-0.32,0.17,-0.17,-0.10,-0.45,-0.49,-0.49,-0.48
271.16,-0.34,0.12,-0.34,0.12,-0.12,-0.07,-0.43,-0.46,-0.47,-0.46
273.87,-0.37,0.07,-0.37,0.07,-0.07,-0.04,-0.40,-0.44,-0.44,-0.44
276.61,-0.39,0.02,-0.39,0.03,-0.03,-0.00,-0.37,-0.42,-0.42,-0.41
279.38,-0.41,-0.01,-0.41,-0.02,0.02,0.03,-0.34,-0.39,-0.39,-0.40
282.17,-0.44,-0.07,-0.44,-0.07,0.07,0.06,-0.31,-0.37,-0.37,-0.37
284.99,-0.46,-0.12,-0.46,-0.11,0.12,0.10,-0.28,-0.34,-0.34,-0.34
287.84,-0.48,-0.16,-0.48,-0.16,0.16,0.13,-0.25,-0.32,-0.32,-0.32
290.72,-0.50,-0.21,-0.50,-0.21,0.21,0.16,-0.22,-0.29,-0.29,-0.29
293.63,-0.52,-0.26,-0.52,-0.26,0.25,0.19,-0.19,-0.27,-0.27,-0.26
296.57,-0.54,-0.30,-0.54,-0.30,0.30,0.23,-0.16,-0.24,-0.24,-0.24
299.53,-0.56,-0.35,-0.56,-0.35,0.35,0.26,-0.13,-0.21,-0.21,-0.21
302.53,-0.57,-0.38,-0.58,-0.39,0.40,0.29,-0.10,-0.17,-0.18,-0.19
305.55,-0.60,-0.46,-0.59,-0.44,0.45,0.32,-0.06,-0.15,-0.15,-0.14
308.61,-0.61,-0.49,-0.61,-0.50,0.50,0.36,-0.03,-0.11,-0.11,-0.12
311.69,-0.62,-0.54,-0.63,-0.55,0.55,0.39,0.00,-0.07,-0.08,-0.08
314.81,-0.64,-0.61,-0.64,-0.60,0.60,0.42,0.04,-0.04,-0.04,-0.03
317.96,-0.66,-0.65,-0.66,-0.65,0.64,0.45,0.07,-0.02,-0.01,-0.01
321.14,-0.67,-0.69,-0.67,-0.69,0.69,0.48,0.10,0.02,0.02,0.02
324.35,-0.69,-0.73,-0.69,-0.73,0.74,0.51,0.14,0.05,0.05,0.04
327.59,-0.71,-0.78,-0.71,-0.78,0.78,0.55,0.17,0.07,0.07,0.07
330.87,-0.73,-0.83,-0.73,-0.83,0.82,0.58,0.21,0.09,0.09,0.10
334.18,-0.75,-0.87,-0.75,-0.87,0.86,0.61,0.24,0.11,0.12,0.12
337.52,-0.76,-0.90,-0.76,-0.90,0.90,0.64,0.28,0.14,0.14,0.14
340.90,-0.78,-0.94,-0.78,-0.94,0.94,0.67,0.32,0.16,0.16,0.16
344.30,-0.80,-0.98,-0.80,-0.98,0.98,0.70,0.35,0.18,0.18,0.18
347.75,-0.82,-1.02,-0.82,-1.02,1.02,0.73,0.39,0.20,0.20,0.20
351.23,-0.83,-1.05,-0.83,-1.05,1.06,0.76,0.43,0.23,0.22,0.22
354.74,-0.85,-1.09,-0.85,-1.09,1.09,0.79,0.47,0.24,0.24,0.24
358.28,-0.87,-1.13,-0.87,-1.13,1.13,0.82,0.50,0.26,0.26,0.26
361.87,-0.89,-1.17,-0.89,-1.16,1.16,0.84,0.54,0.27,0.27,0.28
365.49,-0.90,-1.19,-0.90,-1.19,1.19,0.87,0.58,0.29,0.29,0.29
369.14,-0.91,-1.21,-0.91,-1.22,1.22,0.90,0.62,0.31,0.30,0.30
372.83,-0.92,-1.24,-0.92,-1.24,1.24,0.93,0.66,0.32,0.32,0.32
376.56,-0.92,-1.25,-0.92,-1.26,1.27,0.96,0.70,0.35,0.34,0.33
380.33,-0.93,-1.29,-0.93,-1.29,1.29,0.98,0.74,0.36,0.36,0.36
384.13,-0.93,-1.31,-0.93,-1.31,1.31,1.01,0.78,0.38,0.38,0.38
387.97,-0.94,-1.34,-0.94,-1.33,1.33,1.04,0.82,0.39,0.39,0.40
391.85,-0.94,-1.35,-0.94,-1.35,1.35,1.06,0.86,0.41,0.41,0.41
395.77,-0.93,-1.37,-0.93,-1.37,1.37,1.09,0.91,0.44,0.43,0.44
399.73,-0.92,-1.38,-0.92,-1.38,1.38,1.12,0.95,0.46,0.46,0.46
403.72,-0.92,-1.39,-0.92,-1.39,1.40,1.14,0.99,0.48,0.48,0.47
407.76,-0.91,-1.40,-0.91,-1.41,1.41,1.17,1.03,0.50,0.50,0.49
411.84,-0.91,-1.43,-0.90,-1.42,1.42,1.19,1.07,0.51,0.51,0.52
415.96,-0.89,-1.43,-0.89,-1.43,1.43,1.22,1.11,0.54,0.54,0.54
420.12,-0.87,-1.43,-0.87,-1.44,1.43,1.24,1.15,0.56,0.56,0.56
424.32,-0.86,-1.44,-0.86,-1.44,1.44,1.26,1.19,0.58,0.58,0.58
428.56,-0.84,-1.44,-0.84,-1.44,1.44,1.29,1.23,0.60,0.60,0.60
432.85,-0.83,-1.45,-0.82,-1.45,1.45,1.31,1.27,0.62,0.62,0.62
437.18,-0.80,-1.45,-0.80,-1.45,1.45,1.33,1.31,0.65,0.65,0.65
441.55,-0.78,-1.46,-0.78,-1.45,1.45,1.36,1.35,0.67,0.67,0.68
445.96,-0.76,-1.46,-0.76,-1.46,1.46,1.38,1.39,0.70,0.70,0.70
450.42,-0.74,-1.46,-0.74,-1.46,1.47,1.40,1.42,0.73,0.73,0.72
454.93,-0.72,-1.48,-0.72,-1.47,1.47,1.42,1.46,0.75,0.75,0.76
459.48,-0.70,-1.48,-0.70,-1.48,1.48,1.44,1.49,0.78,0.78,0.78
464.07,-0.68,-1.49,-0.68,-1.49,1.48,1.46,1.52,0.80,0.80,0.81
468.71,-0.66,-1.49,-0.66,-1.49,1.49,1.48,1.55,0.83,0.83,0.83
473.40,-0.63,-1.49,-0.63,-1.50,1.50,1.50,1.58,0.87,0.86,0.86
478.13,-0.61,-1.50,-0.61,-1.50,1.50,1.52,1.61,0.89,0.89,0.89
482.91,-0.59,-1.50,-0.59,-1.51,1.51,1.54,1.63,0.92,0.92,0.91
487.74,-0.57,-1.51,-0.57,-1.51,1.51,1.56,1.65,0.94,0.95,0.94
492.62,-0.54,-1.51,-0.54,-1.52,1.52,1.58,1.67,0.98,0.97,0.97
497.55,-0.52,-1.52,-0.52,-1.53,1.52,1.60,1.69,1.00,1.00,1.00
502.52,-0.51,-1.54,-0.50,-1.53,1.53,1.62,1.71,1.02,1.02,1.03
507.55,-0.48,-1.53,-0.48,-1.53,1.53,1.63,1.72,1.05,1.05,1.05
512.62,-0.46,-1.53,-0.46,-1.54,1.53,1.65,1.74,1.07,1.07,1.07
517.75,-0.43,-1.53,-0.44,-1.54,1.54,1.67,1.75,1.11,1.10,1.10
