frequency,raw,error,smoothed,error_smoothed,equalization,parametric_eq,fixed_band_eq,equalized_raw,equalized_smoothed,target
20.00,2.28,-3.68,2.28,-3.67,3.67,2.95,-0.24,5.95,5.95,5.96
20.20,2.43,-3.52,2.43,-3.53,3.53,2.86,-0.24,5.96,5.96,5.96
20.40,2.57,-3.39,2.57,-3.39,3.39,2.78,-0.25,5.96,5.96,5.97
20.61,2.71,-3.26,2.72,-3.25,3.25,2.69,-0.25,5.96,5.97,5.97
20.81,2.86,-3.10,2.86,-3.11,3.11,2.61,-0.26,5.98,5.97,5.97
21.02,3.00,-2.96,3.00,-2.97,2.98,2.52,-0.26,5.98,5.98,5.97
21.23,3.13,-2.84,3.14,-2.84,2.84,2.44,-0.27,5.97,5.98,5.98
21.44,3.27,-2.71,3.27,-2.71,2.71,2.35,-0.27,5.98,5.98,5.98
21.66,3.40,-2.58,3.41,-2.58,2.57,2.26,-0.28,5.97,5.98,5.98
21.87,3.55,-2.45,3.55,-2.44,2.44,2.18,-0.28,5.99,5.99,5.99
22.09,3.68,-2.30,3.68,-2.31,2.31,2.09,-0.29,5.99,5.99,5.98
22.31,3.81,-2.18,3.81,-2.17,2.18,2.00,-0.29,5.99,5.99,5.99
22.54,3.94,-2.04,3.95,-2.04,2.04,1.92,-0.30,5.99,5.99,5.98
22.76,4.07,-1.92,4.07,-1.92,1.91,1.83,-0.31,5.99,5.99,5.99
22.99,4.20,-1.79,4.20,-1.79,1.78,1.74,-0.31,5.99,5.98,5.99
23.22,4.32,-1.66,4.33,-1.66,1.66,1.65,-0.32,5.98,5.98,5.98
23.45,4.45,-1.53,4.45,-1.53,1.53,1.57,-0.32,5.99,5.98,5.98
23.69,4.57,-1.41,4.57,-1.40,1.41,1.48,-0.33,5.98,5.98,5.98
23.92,4.69,-1.28,4.70,-1.28,1.29,1.39,-0.34,5.98,5.98,5.98
24.16,4.81,-1.16,4.81,-1.17,1.17,1.30,-0.35,5.98,5.98,5.98
24.40,4.92,-1.06,4.93,-1.06,1.05,1.21,-0.35,5.98,5.98,5.99
24.65,5.03,-0.95,5.04,-0.95,0.94,1.12,-0.36,5.97,5.98,5.98
24.89,5.15,-0.83,5.15,-0.83,0.83,1.03,-0.37,5.98,5.98,5.98
25.14,5.26,-0.71,5.26,-0.71,0.71,0.95,-0.38,5.98,5.98,5.97
25.39,5.37,-0.60,5.37,-0.60,0.60,0.86,-0.39,5.98,5.98,5.97
25.65,5.48,-0.49,5.48,-0.49,0.49,0.77,-0.40,5.98,5.98,5.97
25.91,5.58,-0.39,5.59,-0.39,0.39,0.68,-0.40,5.97,5.97,5.97
26.16,5.69,-0.28,5.69,-0.28,0.28,0.59,-0.42,5.97,5.97,5.98
26.43,5.79,-0.19,5.79,-0.18,0.18,0.50,-0.43,5.97,5.97,5.98
26.69,5.89,-0.07,5.89,-0.08,0.08,0.41,-0.44,5.97,5.97,5.97
26.96,5.99,0.03,5.99,0.03,-0.02,0.32,-0.45,5.97,5.97,5.97
27.23,6.09,0.13,6.09,0.13,-0.12,0.23,-0.46,5.97,5.97,5.96
27.50,6.18,0.22,6.18,0.22,-0.22,0.14,-0.47,5.97,5.97,5.96
27.77,6.27,0.30,6.28,0.31,-0.31,0.05,-0.49,5.96,5.97,5.97
28.05,6.37,0.40,6.37,0.40,-0.40,-0.04,-0.50,5.97,5.96,5.97
28.33,6.45,0.50,6.46,0.49,-0.49,-0.13,-0.52,5.96,5.96,5.96
28.62,6.54,0.58,6.54,0.58,-0.58,-0.22,-0.53,5.96,5.96,5.96
28.90,6.62,0.66,6.63,0.67,-0.67,-0.31,-0.55,5.96,5.96,5.96
29.19,6.71,0.75,6.71,0.75,-0.75,-0.40,-0.57,5.96,5.96,5.96
29.48,6.79,0.84,6.79,0.84,-0.84,-0.49,-0.58,5.96,5.96,5.95
29.78,6.87,0.92,6.87,0.92,-0.92,-0.57,-0.60,5.95,5.96,5.95
30.08,6.95,0.99,6.95,1.00,-1.00,-0.66,-0.63,5.95,5.95,5.96
30.38,7.03,1.09,7.03,1.08,-1.08,-0.75,-0.65,5.96,5.95,5.95
30.68,7.10,1.15,7.10,1.15,-1.15,-0.84,-0.67,5.95,5.95,5.95
30.99,7.17,1.22,7.18,1.22,-1.23,-0.93,-0.69,5.94,5.95,5.95
31.30,7.25,1.30,7.25,1.30,-1.30,-1.02,-0.72,5.95,5.95,5.95
31.61,7.32,1.37,7.32,1.37,-1.37,-1.10,-0.74,5.95,5.95,5.96
31.93,7.39,1.45,7.39,1.44,-1.44,-1.19,-0.77,5.95,5.95,5.95
32.24,7.46,1.51,7.46,1.51,-1.51,-1.28,-0.80,5.95,5.95,5.95
32.57,7.53,1.58,7.53,1.58,-1.58,-1.36,-0.83,5.95,5.95,5.95
32.89,7.59,1.65,7.59,1.65,-1.64,-1.45,-0.86,5.95,5.95,5.95
33.22,7.65,1.71,7.65,1.71,-1.71,-1.53,-0.90,5.94,5.94,5.94
33.55,7.71,1.77,7.71,1.77,-1.77,-1.62,-0.93,5.94,5.94,5.94
33.89,7.77,1.83,7.77,1.84,-1.84,-1.70,-0.96,5.93,5.93,5.94
34.23,7.83,1.91,7.83,1.90,-1.90,-1.79,-1.00,5.93,5.93,5.93
34.57,7.88,1.97,7.88,1.97,-1.97,-1.87,-1.04,5.91,5.91,5.91
34.92,7.93,2.03,7.94,2.04,-2.04,-1.95,-1.08,5.90,5.90,5.90
35.27,7.99,2.10,7.99,2.10,-2.10,-2.03,-1.12,5.89,5.89,5.90
35.62,8.04,2.18,8.04,2.17,-2.17,-2.11,-1.16,5.87,5.87,5.86
35.97,8.08,2.23,8.08,2.24,-2.24,-2.19,-1.20,5.85,5.85,5.85
36.33,8.12,2.30,8.13,2.30,-2.30,-2.27,-1.25,5.82,5.82,5.83
36.70,8.17,2.37,8.17,2.37,-2.37,-2.35,-1.30,5.80,5.80,5.80
37.06,8.21,2.44,8.21,2.44,-2.44,-2.43,-1.34,5.78,5.78,5.78
37.43,8.25,2.50,8.26,2.50,-2.50,-2.50,-1.39,5.75,5.76,5.75
37.81,8.30,2.57,8.30,2.56,-2.56,-2.58,-1.44,5.74,5.73,5.73
38.19,8.33,2.62,8.34,2.62,-2.62,-2.65,-1.49,5.71,5.71,5.71
38.57,8.37,2.68,8.37,2.68,-2.68,-2.72,-1.55,5.69,5.69,5.69
38.95,8.40,2.74,8.40,2.74,-2.74,-2.80,-1.60,5.67,5.67,5.66
39.34,8.43,2.79,8.44,2.80,-2.79,-2.87,-1.66,5.64,5.64,5.64
39.74,8.46,2.85,8.46,2.84,-2.84,-2.94,-1.72,5.62,5.62,5.61
40.14,8.49,2.89,8.49,2.89,-2.89,-3.00,-1.78,5.60,5.60,5.60
40.54,8.51,2.93,8.52,2.94,-2.94,-3.07,-1.84,5.57,5.58,5.58
40.94,8.54,2.99,8.54,2.98,-2.99,-3.13,-1.90,5.56,5.56,5.56
41.35,8.57,3.03,8.57,3.03,-3.03,-3.20,-1.96,5.54,5.54,5.54
41.76,8.59,3.08,8.59,3.08,-3.08,-3.26,-2.03,5.51,5.52,5.52
42.18,8.62,3.12,8.62,3.12,-3.12,-3.32,-2.10,5.50,5.49,5.50
42.60,8.63,3.16,8.64,3.17,-3.17,-3.38,-2.17,5.46,5.47,5.47
43.03,8.67,3.22,8.67,3.21,-3.21,-3.44,-2.24,5.46,5.45,5.46
43.46,8.69,3.26,8.69,3.26,-3.26,-3.49,-2.31,5.44,5.43,5.43
43.90,8.71,3.30,8.71,3.31,-3.30,-3.55,-2.39,5.41,5.41,5.41
44.33,8.73,3.35,8.73,3.34,-3.34,-3.60,-2.46,5.39,5.39,5.38
44.78,8.74,3.38,8.75,3.38,-3.38,-3.65,-2.54,5.36,5.36,5.37
45.23,8.76,3.41,8.76,3.42,-3.42,-3.70,-2.62,5.34,5.34,5.36
45.68,8.78,3.46,8.78,3.46,-3.46,-3.74,-2.71,5.32,5.32,5.32
46.13,8.79,3.50,8.79,3.50,-3.50,-3.79,-2.79,5.30,5.30,5.29
46.60,8.80,3.54,8.80,3.54,-3.54,-3.83,-2.88,5.27,5.27,5.26
47.06,8.81,3.57,8.81,3.57,-3.57,-3.87,-2.96,5.24,5.24,5.24
47.53,8.81,3.60,8.81,3.61,-3.61,-3.91,-3.05,5.20,5.20,5.21
48.01,8.81,3.65,8.82,3.65,-3.65,-3.95,-3.14,5.16,5.16,5.16
48.49,8.81,3.68,8.82,3.69,-3.69,-3.99,-3.23,5.12,5.12,5.13
48.97,8.82,3.73,8.82,3.73,-3.73,-4.02,-3.33,5.09,5.09,5.09
49.46,8.81,3.76,8.82,3.77,-3.77,-4.05,-3.42,5.05,5.05,5.06
49.96,8.81,3.82,8.81,3.81,-3.80,-4.08,-3.52,5.01,5.01,5.00
50.46,8.80,3.84,8.80,3.84,-3.84,-4.11,-3.61,4.97,4.97,4.96
50.96,8.80,3.87,8.80,3.87,-3.87,-4.14,-3.71,4.93,4.93,4.93
51.47,8.79,3.90,8.80,3.90,-3.90,-4.16,-3.81,4.89,4.90,4.90
51.99,8.79,3.94,8.79,3.93,-3.93,-4.18,-3.90,4.86,4.86,4.85
52.51,8.78,3.96,8.78,3.96,-3.96,-4.21,-4.00,4.82,4.82,4.82
53.03,8.76,3.98,8.77,3.99,-3.99,-4.23,-4.10,4.77,4.78,4.79
53.56,8.75,4.01,8.76,4.01,-4.02,-4.25,-4.19,4.73,4.74,4.74
54.10,8.75,4.06,8.75,4.05,-4.05,-4.26,-4.29,4.70,4.70,4.70
54.64,8.73,4.07,8.74,4.08,-4.08,-4.28,-4.38,4.66,4.66,4.66
55.18,8.73,4.11,8.73,4.11,-4.10,-4.29,-4.47,4.63,4.63,4.62
55.74,8.72,4.14,8.72,4.13,-4.13,-4.30,-4.55,4.59,4.59,4.59
56.29,8.71,4.16,8.72,4.16,-4.16,-4.32,-4.64,4.56,4.56,4.56
56.86,8.71,4.17,8.71,4.18,-4.18,-4.33,-4.72,4.53,4.53,4.54
57.42,8.70,4.21,8.71,4.21,-4.20,-4.33,-4.79,4.50,4.50,4.49
58.00,8.70,4.24,8.70,4.24,-4.23,-4.34,-4.87,4.47,4.47,4.46
58.58,8.70,4.26,8.70,4.26,-4.26,-4.35,-4.93,4.45,4.44,4.44
59.16,8.68,4.27,8.69,4.28,-4.29,-4.35,-4.99,4.40,4.40,4.41
59.76,8.68,4.30,8.68,4.30,-4.32,-4.36,-5.05,4.36,4.36,4.38
60.35,8.67,4.34,8.68,4.34,-4.36,-4.36,-5.10,4.32,4.32,4.33
60.96,8.67,4.39,8.67,4.39,-4.39,-4.37,-5.14,4.28,4.28,4.29
61.57,8.66,4.44,8.66,4.43,-4.43,-4.37,-5.18,4.24,4.23,4.22
62.18,8.64,4.47,8.65,4.48,-4.46,-4.37,-5.21,4.18,4.18,4.17
62.80,8.63,4.51,8.63,4.51,-4.50,-4.37,-5.23,4.14,4.13,4.12
63.43,8.61,4.53,8.61,4.53,-4.52,-4.37,-5.25,4.09,4.09,4.08
64.07,8.59,4.55,8.59,4.55,-4.55,-4.37,-5.26,4.04,4.04,4.04
64.71,8.57,4.57,8.57,4.57,-4.57,-4.37,-5.26,4.00,4.00,4.01
65.35,8.54,4.58,8.55,4.58,-4.59,-4.37,-5.26,3.96,3.96,3.96
66.01,8.52,4.60,8.52,4.60,-4.60,-4.37,-5.25,3.92,3.92,3.92
66.67,8.50,4.61,8.50,4.61,-4.61,-4.37,-5.23,3.89,3.88,3.89
67.33,8.46,4.62,8.47,4.63,-4.62,-4.37,-5.21,3.84,3.85,3.84
68.01,8.44,4.64,8.44,4.64,-4.64,-4.37,-5.19,3.81,3.81,3.80
68.69,8.42,4.66,8.42,4.65,-4.65,-4.37,-5.16,3.77,3.77,3.76
69.37,8.39,4.66,8.39,4.66,-4.66,-4.37,-5.13,3.73,3.73,3.73
70.07,8.36,4.67,8.37,4.68,-4.68,-4.37,-5.09,3.68,3.69,3.70
70.77,8.34,4.69,8.34,4.69,-4.70,-4.37,-5.06,3.65,3.64,3.65
71.48,8.32,4.71,8.32,4.71,-4.72,-4.37,-5.02,3.61,3.60,3.61
72.19,8.29,4.73,8.30,4.74,-4.74,-4.37,-4.98,3.56,3.56,3.56
72.91,8.28,4.77,8.28,4.76,-4.76,-4.37,-4.93,3.52,3.52,3.52
73.64,8.25,4.78,8.26,4.78,-4.78,-4.37,-4.89,3.47,3.47,3.47
74.38,8.23,4.80,8.24,4.81,-4.80,-4.37,-4.85,3.43,3.44,3.43
75.12,8.22,4.83,8.22,4.82,-4.82,-4.38,-4.80,3.40,3.40,3.39
75.87,8.20,4.84,8.20,4.84,-4.84,-4.38,-4.76,3.36,3.36,3.36
76.63,8.18,4.86,8.18,4.86,-4.85,-4.38,-4.72,3.33,3.33,3.32
77.40,8.16,4.86,8.16,4.87,-4.86,-4.38,-4.68,3.30,3.30,3.30
78.17,8.14,4.88,8.14,4.87,-4.87,-4.39,-4.64,3.27,3.27,3.26
78.95,8.11,4.87,8.12,4.88,-4.88,-4.39,-4.61,3.24,3.24,3.24
79.74,8.09,4.88,8.09,4.88,-4.88,-4.40,-4.57,3.21,3.21,3.22
80.54,8.06,4.88,8.07,4.88,-4.88,-4.40,-4.54,3.18,3.18,3.18
81.35,8.04,4.90,8.04,4.89,-4.89,-4.41,-4.51,3.16,3.15,3.15
82.16,8.01,4.88,8.01,4.88,-4.89,-4.42,-4.48,3.13,3.12,3.13
82.98,7.97,4.88,7.98,4.89,-4.89,-4.43,-4.46,3.09,3.09,3.09
83.81,7.95,4.89,7.95,4.88,-4.89,-4.43,-4.44,3.07,3.06,3.07
84.65,7.92,4.89,7.92,4.89,-4.88,-4.44,-4.42,3.04,3.04,3.03
85.50,7.88,4.88,7.89,4.88,-4.88,-4.45,-4.40,3.00,3.01,3.00
86.35,7.85,4.88,7.85,4.88,-4.88,-4.46,-4.39,2.98,2.97,2.97
87.22,7.81,4.86,7.81,4.87,-4.87,-4.47,-4.38,2.94,2.94,2.95
88.09,7.78,4.87,7.78,4.86,-4.87,-4.48,-4.38,2.92,2.91,2.91
88.97,7.74,4.85,7.75,4.86,-4.86,-4.50,-4.38,2.88,2.88,2.89
89.86,7.71,4.86,7.71,4.86,-4.85,-4.51,-4.38,2.86,2.86,2.85
90.76,7.67,4.85,7.67,4.85,-4.85,-4.52,-4.38,2.83,2.82,2.83
91.66,7.63,4.85,7.63,4.85,-4.84,-4.53,-4.39,2.79,2.79,2.78
92.58,7.59,4.83,7.60,4.84,-4.84,-4.55,-4.40,2.76,2.76,2.76
93.51,7.56,4.84,7.56,4.83,-4.83,-4.56,-4.42,2.73,2.73,2.73
94.44,7.52,4.82,7.52,4.82,-4.83,-4.58,-4.43,2.70,2.69,2.70
95.39,7.47,4.81,7.48,4.82,-4.82,-4.59,-4.45,2.65,2.66,2.66
96.34,7.43,4.82,7.43,4.81,-4.82,-4.61,-4.48,2.61,2.62,2.61
97.30,7.39,4.81,7.39,4.82,-4.82,-4.62,-4.51,2.58,2.57,2.58
98.28,7.35,4.82,7.35,4.82,-4.81,-4.64,-4.54,2.54,2.54,2.53
99.26,7.30,4.81,7.31,4.82,-4.81,-4.65,-4.57,2.49,2.50,2.49
100.25,7.27,4.82,7.27,4.81,-4.81,-4.67,-4.60,2.46,2.46,2.45
101.25,7.23,4.81,7.23,4.81,-4.81,-4.69,-4.64,2.42,2.42,2.43
102.27,7.19,4.80,7.19,4.80,-4.81,-4.70,-4.67,2.39,2.39,2.39
103.29,7.15,4.80,7.16,4.80,-4.80,-4.72,-4.71,2.35,2.35,2.35
104.32,7.12,4.80,7.12,4.80,-4.80,-4.73,-4.75,2.32,2.32,2.32
105.37,7.08,4.80,7.08,4.80,-4.79,-4.75,-4.80,2.29,2.29,2.28
106.42,7.04,4.79,7.04,4.80,-4.79,-4.77,-4.84,2.25,2.26,2.26
107.48,7.00,4.79,7.00,4.79,-4.78,-4.78,-4.88,2.22,2.22,2.21
108.56,6.96,4.78,6.96,4.78,-4.78,-4.80,-4.92,2.18,2.18,2.18
109.64,6.91,4.77,6.92,4.77,-4.77,-4.82,-4.97,2.14,2.14,2.15
110.74,6.87,4.76,6.88,4.77,-4.77,-4.83,-5.01,2.10,2.11,2.11
111.85,6.84,4.77,6.84,4.77,-4.77,-4.85,-5.05,2.08,2.07,2.08
112.97,6.80,4.77,6.80,4.76,-4.77,-4.86,-5.08,2.04,2.03,2.03
114.10,6.75,4.76,6.75,4.76,-4.77,-4.88,-5.12,1.99,1.99,1.99
115.24,6.70,4.76,6.71,4.77,-4.77,-4.89,-5.15,1.93,1.94,1.94
116.39,6.66,4.78,6.66,4.78,-4.78,-4.90,-5.19,1.89,1.89,1.89
117.55,6.62,4.79,6.62,4.79,-4.78,-4.92,-5.21,1.84,1.84,1.83
118.73,6.57,4.80,6.57,4.79,-4.79,-4.93,-5.24,1.78,1.78,1.78
119.92,6.52,4.80,6.53,4.80,-4.80,-4.94,-5.25,1.72,1.73,1.72
121.12,6.48,4.80,6.48,4.81,-4.81,-4.95,-5.27,1.67,1.67,1.68
122.33,6.44,4.82,6.44,4.82,-4.83,-4.96,-5.28,1.62,1.62,1.62
123.55,6.40,4.84,6.40,4.84,-4.84,-4.97,-5.29,1.56,1.56,1.57
124.79,6.36,4.86,6.36,4.85,-4.86,-4.98,-5.29,1.50,1.50,1.51
126.03,6.31,4.87,6.32,4.87,-4.88,-4.99,-5.29,1.44,1.44,1.45
127.29,6.28,4.90,6.28,4.89,-4.90,-4.99,-5.28,1.39,1.38,1.39
128.57,6.24,4.92,6.24,4.92,-4.91,-5.00,-5.27,1.33,1.33,1.33
129.85,6.20,4.94,6.20,4.94,-4.93,-5.01,-5.25,1.27,1.27,1.27
131.15,6.16,4.95,6.16,4.95,-4.94,-5.01,-5.23,1.22,1.22,1.21
132.46,6.11,4.95,6.12,4.96,-4.95,-5.01,-5.20,1.16,1.16,1.16
133.79,6.07,4.96,6.07,4.96,-4.96,-5.01,-5.18,1.11,1.11,1.12
135.12,6.03,4.96,6.03,4.96,-4.96,-5.02,-5.14,1.07,1.07,1.07
136.48,5.99,4.95,6.00,4.96,-4.96,-5.02,-5.11,1.03,1.03,1.04
137.84,5.96,4.96,5.96,4.96,-4.96,-5.01,-5.07,1.00,1.00,1.00
139.22,5.92,4.97,5.92,4.96,-4.96,-5.01,-5.03,0.97,0.97,0.96
140.61,5.88,4.95,5.89,4.96,-4.95,-5.01,-4.99,0.93,0.94,0.93
142.02,5.85,4.95,5.85,4.95,-4.95,-5.00,-4.95,0.91,0.90,0.90
143.44,5.81,4.94,5.81,4.94,-4.94,-5.00,-4.90,0.87,0.87,0.87
144.87,5.77,4.92,5.78,4.93,-4.93,-4.99,-4.86,0.84,0.84,0.85
146.32,5.74,4.92,5.74,4.92,-4.93,-4.98,-4.81,0.82,0.82,0.82
147.78,5.71,4.92,5.71,4.92,-4.92,-4.97,-4.76,0.80,0.79,0.79
149.26,5.67,4.91,5.67,4.91,-4.91,-4.96,-4.72,0.76,0.76,0.76
150.75,5.63,4.91,5.64,4.90,-4.90,-4.95,-4.68,0.73,0.73,0.73
152.26,5.60,4.89,5.60,4.90,-4.90,-4.94,-4.63,0.71,0.70,0.71
153.78,5.56,4.89,5.57,4.89,-4.89,-4.93,-4.59,0.67,0.67,0.67
155.32,5.53,4.88,5.53,4.88,-4.89,-4.92,-4.55,0.65,0.65,0.65
156.88,5.49,4.88,5.49,4.88,-4.88,-4.91,-4.51,0.61,0.61,0.62
158.44,5.45,4.88,5.45,4.88,-4.87,-4.89,-4.48,0.58,0.58,0.57
160.03,5.41,4.87,5.41,4.87,-4.87,-4.88,-4.44,0.55,0.54,0.54
161.63,5.36,4.85,5.36,4.86,-4.86,-4.87,-4.41,0.50,0.51,0.51
163.24,5.31,4.84,5.32,4.85,-4.85,-4.85,-4.38,0.46,0.47,0.47
164.88,5.27,4.84,5.27,4.84,-4.84,-4.84,-4.36,0.44,0.43,0.43
166.53,5.22,4.83,5.22,4.83,-4.83,-4.83,-4.34,0.40,0.40,0.39
168.19,5.17,4.81,5.17,4.81,-4.81,-4.82,-4.32,0.36,0.36,0.36
169.87,5.12,4.80,5.12,4.80,-4.80,-4.80,-4.30,0.32,0.32,0.32
171.57,5.07,4.78,5.08,4.78,-4.79,-4.79,-4.29,0.29,0.29,0.30
173.29,5.03,4.77,5.03,4.77,-4.77,-4.78,-4.28,0.26,0.26,0.26
175.02,4.98,4.76,4.98,4.76,-4.76,-4.77,-4.27,0.22,0.23,0.23
176.77,4.94,4.75,4.94,4.75,-4.75,-4.76,-4.27,0.20,0.19,0.19
178.54,4.89,4.73,4.90,4.74,-4.73,-4.75,-4.27,0.16,0.16,0.17
180.32,4.85,4.73,4.85,4.72,-4.72,-4.74,-4.27,0.13,0.13,0.12
182.13,4.80,4.71,4.80,4.71,-4.71,-4.74,-4.28,0.09,0.09,0.09
183.95,4.75,4.69,4.76,4.70,-4.70,-4.73,-4.28,0.05,0.06,0.06
185.79,4.72,4.70,4.71,4.69,-4.69,-4.72,-4.30,0.03,0.03,0.03
187.65,4.67,4.68,4.67,4.68,-4.68,-4.71,-4.31,-0.01,-0.01,-0.00
189.52,4.62,4.67,4.63,4.67,-4.67,-4.71,-4.33,-0.05,-0.04,-0.04
191.42,4.59,4.66,4.59,4.66,-4.66,-4.70,-4.35,-0.07,-0.07,-0.06
193.33,4.55,4.65,4.55,4.66,-4.66,-4.69,-4.38,-0.10,-0.10,-0.10
195.27,4.51,4.65,4.51,4.65,-4.65,-4.68,-4.40,-0.14,-0.14,-0.14
197.22,4.47,4.65,4.47,4.65,-4.64,-4.68,-4.43,-0.17,-0.17,-0.18
199.19,4.43,4.64,4.44,4.64,-4.64,-4.67,-4.46,-0.21,-0.20,-0.21
201.18,4.40,4.63,4.40,4.64,-4.64,-4.66,-4.50,-0.23,-0.23,-0.23
203.19,4.37,4.63,4.37,4.63,-4.63,-4.65,-4.53,-0.26,-0.26,-0.26
205.23,4.34,4.63,4.34,4.63,-4.63,-4.64,-4.57,-0.29,-0.29,-0.28
207.28,4.31,4.62,4.31,4.62,-4.62,-4.63,-4.60,-0.31,-0.31,-0.31
209.35,4.27,4.62,4.28,4.62,-4.62,-4.62,-4.64,-0.35,-0.34,-0.34
211.44,4.25,4.62,4.25,4.62,-4.61,-4.61,-4.68,-0.36,-0.37,-0.37
213.56,4.22,4.61,4.22,4.61,-4.61,-4.60,-4.72,-0.39,-0.39,-0.39
215.69,4.18,4.60,4.19,4.60,-4.60,-4.59,-4.76,-0.42,-0.41,-0.41
217.85,4.15,4.59,4.15,4.59,-4.59,-4.57,-4.79,-0.44,-0.44,-0.44
220.03,4.11,4.58,4.11,4.58,-4.58,-4.56,-4.83,-0.46,-0.46,-0.47
222.23,4.07,4.56,4.07,4.56,-4.56,-4.54,-4.87,-0.49,-0.49,-0.49
224.45,4.03,4.55,4.03,4.54,-4.54,-4.53,-4.90,-0.51,-0.51,-0.51
226.70,3.98,4.52,3.99,4.52,-4.52,-4.51,-4.93,-0.54,-0.53,-0.53
228.96,3.95,4.50,3.95,4.50,-4.50,-4.49,-4.96,-0.55,-0.55,-0.54
231.25,3.91,4.48,3.91,4.47,-4.48,-4.47,-4.98,-0.56,-0.57,-0.56
233.57,3.86,4.45,3.87,4.46,-4.45,-4.45,-5.00,-0.59,-0.59,-0.58
235.90,3.82,4.44,3.82,4.43,-4.43,-4.43,-5.01,-0.60,-0.61,-0.61
238.26,3.77,4.41,3.78,4.40,-4.40,-4.41,-5.03,-0.63,-0.63,-0.63
240.64,3.73,4.37,3.74,4.38,-4.38,-4.39,-5.03,-0.65,-0.64,-0.63
243.05,3.70,4.35,3.70,4.35,-4.36,-4.37,-5.03,-0.65,-0.66,-0.65
245.48,3.66,4.33,3.66,4.33,-4.33,-4.34,-5.02,-0.67,-0.67,-0.67
247.93,3.62,4.31,3.63,4.31,-4.31,-4.32,-5.01,-0.69,-0.68,-0.69
250.41,3.59,4.29,3.59,4.29,-4.29,-4.29,-4.99,-0.69,-0.70,-0.70
252.92,3.55,4.26,3.55,4.26,-4.26,-4.26,-4.97,-0.71,-0.71,-0.70
255.45,3.52,4.24,3.52,4.24,-4.24,-4.23,-4.94,-0.72,-0.72,-0.72
258.00,3.48,4.21,3.49,4.21,-4.21,-4.20,-4.91,-0.73,-0.73,-0.73
260.58,3.45,4.19,3.45,4.19,-4.19,-4.17,-4.87,-0.73,-0.74,-0.73
263.19,3.41,4.16,3.41,4.16,-4.16,-4.14,-4.82,-0.75,-0.75,-0.75
265.82,3.37,4.13,3.37,4.13,-4.13,-4.11,-4.77,-0.76,-0.76,-0.76
268.48,3.32,4.10,3.33,4.10,-4.10,-4.07,-4.71,-0.78,-0.77,-0.77
271.16,3.28,4.06,3.28,4.06,-4.07,-4.04,-4.65,-0.78,-0.78,-0.78
273.87,3.23,4.03,3.23,4.03,-4.03,-4.00,-4.59,-0.80,-0.80,-0.80
276.61,3.18,3.99,3.18,3.99,-3.99,-3.97,-4.52,-0.81,-0.81,-0.81
279.38,3.13,3.96,3.13,3.96,-3.95,-3.93,-4.45,-0.82,-0.82,-0.83
282.17,3.08,3.91,3.08,3.91,-3.91,-3.89,-4.37,-0.83,-0.83,-0.83
284.99,3.03,3.87,3.03,3.86,-3.87,-3.85,-4.29,-0.84,-0.84,-0.84
287.84,2.97,3.80,2.98,3.82,-3.83,-3.81,-4.21,-0.85,-0.85,-0.83
290.72,2.93,3.79,2.93,3.78,-3.78,-3.77,-4.13,-0.85,-0.85,-0.86
293.63,2.88,3.74,2.88,3.74,-3.73,-3.72,-4.05,-0.85,-0.85,-0.86
296.57,2.82,3.69,2.83,3.69,-3.69,-3.68,-3.97,-0.86,-0.86,-0.86
299.53,2.77,3.64,2.77,3.64,-3.64,-3.64,-3.88,-0.86,-0.86,-0.87
302.53,2.71,3.59,2.71,3.59,-3.59,-3.59,-3.80,-0.87,-0.87,-0.87
305.55,2.66,3.54,2.66,3.53,-3.54,-3.55,-3.72,-0.87,-0.88,-0.88
308.61,2.60,3.47,2.61,3.48,-3.48,-3.50,-3.63,-0.88,-0.88,-0.87
311.69,2.55,3.43,2.55,3.43,-3.43,-3.45,-3.55,-0.88,-0.88,-0.87
314.81,2.50,3.38,2.50,3.38,-3.38,-3.41,-3.47,-0.87,-0.87,-0.88
317.96,2.45,3.33,2.45,3.33,-3.33,-3.36,-3.39,-0.87,-0.87,-0.88
321.14,2.40,3.28,2.40,3.28,-3.28,-3.31,-3.31,-0.87,-0.87,-0.87
324.35,2.35,3.23,2.35,3.22,-3.23,-3.27,-3.24,-0.87,-0.87,-0.88
327.59,2.30,3.16,2.31,3.17,-3.18,-3.22,-3.16,-0.88,-0.87,-0.86
330.87,2.26,3.13,2.26,3.13,-3.13,-3.17,-3.09,-0.87,-0.87,-0.87
334.18,2.22,3.10,2.22,3.09,-3.09,-3.12,-3.01,-0.87,-0.87,-0.87
337.52,2.18,3.05,2.18,3.05,-3.05,-3.07,-2.94,-0.86,-0.86,-0.87
340.90,2.14,3.00,2.14,3.00,-3.00,-3.03,-2.87,-0.86,-0.86,-0.86
344.30,2.10,2.96,2.10,2.96,-2.97,-2.98,-2.81,-0.86,-0.86,-0.86
347.75,2.06,2.92,2.07,2.93,-2.93,-2.93,-2.74,-0.87,-0.86,-0.85
351.23,2.03,2.90,2.03,2.89,-2.89,-2.88,-2.68,-0.86,-0.86,-0.87
354.74,2.00,2.85,2.00,2.86,-2.86,-2.84,-2.62,-0.85,-0.86,-0.85
358.28,1.96,2.82,1.97,2.82,-2.82,-2.79,-2.56,-0.86,-0.86,-0.86
361.87,1.93,2.80,1.93,2.79,-2.79,-2.74,-2.51,-0.85,-0.86,-0.86
365.49,1.89,2.75,1.90,2.75,-2.76,-2.70,-2.45,-0.86,-0.86,-0.85
369.14,1.86,2.72,1.86,2.72,-2.72,-2.65,-2.40,-0.86,-0.86,-0.86
372.83,1.83,2.69,1.83,2.69,-2.69,-2.61,-2.35,-0.86,-0.86,-0.86
376.56,1.79,2.66,1.80,2.66,-2.66,-2.56,-2.30,-0.87,-0.86,-0.87
380.33,1.76,2.63,1.76,2.63,-2.63,-2.51,-2.25,-0.86,-0.86,-0.86
384.13,1.73,2.60,1.73,2.59,-2.59,-2.47,-2.21,-0.86,-0.86,-0.86
387.97,1.70,2.56,1.70,2.56,-2.56,-2.42,-2.16,-0.85,-0.86,-0.86
391.85,1.66,2.52,1.67,2.52,-2.52,-2.38,-2.12,-0.86,-0.85,-0.86
395.77,1.63,2.49,1.63,2.48,-2.48,-2.34,-2.08,-0.85,-0.85,-0.86
399.73,1.59,2.44,1.59,2.44,-2.44,-2.29,-2.04,-0.85,-0.85,-0.85
403.72,1.55,2.39,1.55,2.40,-2.40,-2.25,-2.01,-0.85,-0.85,-0.84
407.76,1.51,2.36,1.51,2.36,-2.36,-2.21,-1.97,-0.84,-0.84,-0.84
411.84,1.47,2.32,1.47,2.31,-2.31,-2.16,-1.94,-0.84,-0.84,-0.84
415.96,1.43,2.27,1.43,2.27,-2.26,-2.12,-1.90,-0.83,-0.84,-0.83
420.12,1.37,2.22,1.38,2.22,-2.22,-2.08,-1.87,-0.84,-0.84,-0.85
424.32,1.32,2.17,1.33,2.17,-2.17,-2.04,-1.84,-0.84,-0.84,-0.85
428.56,1.28,2.11,1.28,2.11,-2.12,-1.99,-1.81,-0.83,-0.84,-0.83
432.85,1.23,2.06,1.23,2.06,-2.07,-1.95,-1.78,-0.83,-0.84,-0.83
437.18,1.17,2.01,1.18,2.01,-2.01,-1.91,-1.75,-0.84,-0.84,-0.84
441.55,1.12,1.96,1.12,1.96,-1.96,-1.87,-1.72,-0.84,-0.84,-0.84
445.96,1.06,1.91,1.06,1.91,-1.91,-1.83,-1.69,-0.84,-0.84,-0.84
450.42,1.01,1.86,1.01,1.85,-1.85,-1.79,-1.66,-0.84,-0.84,-0.84
454.93,0.95,1.80,0.96,1.80,-1.80,-1.75,-1.63,-0.84,-0.84,-0.84
459.48,0.90,1.75,0.90,1.74,-1.74,-1.71,-1.60,-0.84,-0.84,-0.84
464.07,0.85,1.69,0.85,1.69,-1.69,-1.67,-1.57,-0.84,-0.84,-0.84
468.71,0.80,1.63,0.80,1.63,-1.64,-1.63,-1.54,-0.83,-0.83,-0.83
473.40,0.75,1.58,0.75,1.58,-1.58,-1.59,-1.52,-0.83,-0.83,-0.83
478.13,0.70,1.53,0.70,1.53,-1.53,-1.55,-1.49,-0.83,-0.83,-0.83
482.91,0.65,1.48,0.65,1.48,-1.48,-1.51,-1.45,-0.83,-0.83,-0.83
487.74,0.60,1.43,0.60,1.43,-1.43,-1.47,-1.42,-0.83,-0.83,-0.83
492.62,0.55,1.38,0.56,1.39,-1.38,-1.43,-1.39,-0.83,-0.83,-0.83
497.55,0.51,1.34,0.51,1.34,-1.33,-1.39,-1.36,-0.82,-0.83,-0.83
502.52,0.46,1.29,0.46,1.29,-1.28,-1.35,-1.33,-0.82,-0.83,-0.83
507.55,0.40,1.22,0.41,1.24,-1.24,-1.31,-1.29,-0.83,-0.82,-0.82
512.62,0.36,1.19,0.36,1.18,-1.19,-1.28,-1.26,-0.82,-0.83,-0.82
517.75,0.32,1.14,0.32,1.13,-1.14,-1.24,-1.22,-0.81,-0.82,-0.81
