frequency,raw,error,smoothed,error_smoothed,equalization,parametric_eq,fixed_band_eq,equalized_raw,equalized_smoothed,target
20.00,-9.11,-12.83,-9.11,-12.82,6.00,6.09,2.80,-3.11,-3.11,3.72
20.20,-9.04,-12.80,-9.05,-12.80,6.00,6.09,2.88,-3.04,-3.05,3.76
20.40,-8.98,-12.78,-8.98,-12.78,6.00,6.09,2.96,-2.98,-2.98,3.80
20.61,-8.91,-12.73,-8.91,-12.74,6.00,6.08,3.05,-2.91,-2.91,3.81
20.81,-8.84,-12.70,-8.84,-12.70,6.00,6.08,3.13,-2.84,-2.84,3.85
21.02,-8.77,-12.67,-8.76,-12.64,6.00,6.08,3.22,-2.77,-2.76,3.89
21.23,-8.66,-12.57,-8.66,-12.57,6.00,6.08,3.31,-2.66,-2.66,3.90
21.44,-8.55,-12.47,-8.56,-12.48,6.00,6.08,3.41,-2.55,-2.56,3.92
21.66,-8.44,-12.38,-8.44,-12.37,6.00,6.08,3.51,-2.44,-2.44,3.93
21.87,-8.33,-12.26,-8.33,-12.27,6.00,6.08,3.61,-2.33,-2.33,3.93
22.09,-8.22,-12.16,-8.22,-12.16,6.00,6.08,3.71,-2.22,-2.22,3.94
22.31,-8.10,-12.04,-8.10,-12.04,6.00,6.08,3.81,-2.10,-2.10,3.94
22.54,-7.98,-11.92,-7.98,-11.92,6.00,6.08,3.92,-1.98,-1.98,3.94
22.76,-7.86,-11.79,-7.86,-11.79,6.00,6.07,4.03,-1.86,-1.86,3.93
22.99,-7.75,-11.67,-7.76,-11.69,6.00,6.07,4.15,-1.75,-1.76,3.92
23.22,-7.68,-11.60,-7.68,-11.60,6.00,6.07,4.26,-1.68,-1.68,3.92
23.45,-7.62,-11.53,-7.61,-11.53,6.00,6.07,4.38,-1.62,-1.61,3.91
23.69,-7.55,-11.46,-7.55,-11.46,6.00,6.07,4.50,-1.55,-1.55,3.91
23.92,-7.49,-11.40,-7.49,-11.40,6.00,6.07,4.63,-1.49,-1.49,3.91
24.16,-7.43,-11.35,-7.43,-11.34,6.00,6.07,4.75,-1.43,-1.43,3.92
24.40,-7.36,-11.28,-7.37,-11.28,6.00,6.06,4.88,-1.36,-1.37,3.92
24.65,-7.29,-11.20,-7.30,-11.21,6.00,6.06,5.01,-1.29,-1.30,3.91
24.89,-7.23,-11.14,-7.22,-11.12,6.00,6.06,5.14,-1.23,-1.22,3.91
25.14,-7.12,-11.03,-7.11,-11.02,6.00,6.06,5.28,-1.12,-1.11,3.91
25.39,-6.98,-10.88,-6.98,-10.89,6.00,6.06,5.41,-0.98,-0.98,3.90
25.65,-6.85,-10.75,-6.85,-10.74,6.00,6.05,5.55,-0.85,-0.85,3.89
25.91,-6.71,-10.60,-6.73,-10.61,6.00,6.05,5.68,-0.71,-0.73,3.88
26.16,-6.63,-10.51,-6.64,-10.52,6.00,6.05,5.82,-0.63,-0.64,3.88
26.43,-6.58,-10.46,-6.59,-10.47,6.00,6.05,5.96,-0.58,-0.59,3.88
26.69,-6.54,-10.42,-6.54,-10.42,6.00,6.04,6.09,-0.54,-0.54,3.88
26.96,-6.49,-10.36,-6.47,-10.34,6.00,6.04,6.22,-0.49,-0.47,3.87
27.23,-6.35,-10.22,-6.35,-10.22,6.00,6.04,6.35,-0.35,-0.35,3.87
27.50,-6.20,-10.07,-6.21,-10.07,6.00,6.04,6.48,-0.20,-0.21,3.87
27.77,-6.05,-9.91,-6.06,-9.92,6.00,6.03,6.60,-0.05,-0.06,3.86
28.05,-5.92,-9.78,-5.93,-9.79,6.00,6.03,6.72,0.08,0.07,3.86
28.33,-5.84,-9.69,-5.84,-9.69,6.00,6.03,6.83,0.16,0.16,3.85
28.62,-5.76,-9.61,-5.76,-9.61,6.00,6.02,6.94,0.24,0.24,3.85
28.90,-5.69,-9.54,-5.69,-9.53,6.00,6.02,7.04,0.31,0.31,3.84
29.19,-5.61,-9.45,-5.61,-9.45,6.00,6.02,7.13,0.39,0.39,3.84
29.48,-5.52,-9.37,-5.53,-9.38,6.00,6.01,7.21,0.48,0.47,3.85
29.78,-5.44,-9.28,-5.44,-9.29,6.00,6.01,7.29,0.56,0.56,3.84
30.08,-5.35,-9.20,-5.35,-9.19,6.00,6.00,7.35,0.65,0.65,3.85
30.38,-5.24,-9.07,-5.24,-9.07,6.00,6.00,7.40,0.76,0.76,3.83
30.68,-5.13,-8.96,-5.13,-8.96,6.00,5.99,7.44,0.87,0.87,3.83
30.99,-5.02,-8.84,-5.04,-8.86,6.00,5.99,7.47,0.98,0.96,3.82
31.30,-4.98,-8.80,-4.99,-8.80,6.00,5.98,7.48,1.02,1.01,3.81
31.61,-4.94,-8.75,-4.94,-8.75,6.00,5.98,7.49,1.06,1.06,3.81
31.93,-4.90,-8.69,-4.88,-8.68,6.00,5.97,7.48,1.10,1.12,3.79
32.24,-4.79,-8.57,-4.78,-8.57,6.00,5.97,7.47,1.21,1.22,3.78
32.57,-4.65,-8.43,-4.66,-8.43,6.00,5.96,7.43,1.35,1.34,3.78
32.89,-4.51,-8.28,-4.53,-8.29,6.00,5.95,7.40,1.49,1.47,3.77
33.22,-4.42,-8.17,-4.42,-8.17,6.00,5.95,7.34,1.58,1.58,3.74
33.55,-4.34,-8.08,-4.33,-8.07,6.00,5.94,7.29,1.66,1.67,3.74
33.89,-4.26,-7.98,-4.26,-7.99,6.00,5.93,7.22,1.74,1.74,3.72
34.23,-4.19,-7.91,-4.19,-7.91,6.00,5.92,7.14,1.81,1.81,3.72
34.57,-4.13,-7.83,-4.13,-7.83,6.00,5.92,7.06,1.87,1.87,3.70
34.92,-4.07,-7.76,-4.07,-7.76,6.00,5.91,6.97,1.93,1.93,3.69
35.27,-4.00,-7.69,-4.01,-7.68,6.00,5.90,6.88,2.00,1.99,3.68
35.62,-3.91,-7.57,-3.92,-7.58,6.00,5.89,6.78,2.09,2.08,3.66
35.97,-3.83,-7.48,-3.80,-7.45,6.00,5.88,6.68,2.17,2.20,3.65
36.33,-3.65,-7.30,-3.64,-7.28,6.00,5.87,6.58,2.35,2.36,3.65
36.70,-3.47,-7.11,-3.48,-7.11,6.00,5.86,6.47,2.53,2.52,3.63
37.06,-3.31,-6.93,-3.35,-6.98,6.00,5.84,6.36,2.69,2.65,3.62
37.43,-3.28,-6.91,-3.28,-6.90,6.00,5.83,6.26,2.72,2.72,3.63
37.81,-3.25,-6.87,-3.23,-6.85,6.00,5.82,6.15,2.75,2.77,3.62
38.19,-3.19,-6.79,-3.19,-6.80,6.00,5.81,6.05,2.81,2.81,3.60
38.57,-3.12,-6.73,-3.12,-6.72,6.00,5.79,5.94,2.88,2.88,3.61
38.95,-3.04,-6.64,-3.06,-6.66,6.00,5.78,5.84,2.96,2.94,3.60
39.34,-3.01,-6.60,-3.03,-6.62,6.00,5.76,5.74,2.99,2.98,3.59
39.74,-2.99,-6.57,-2.98,-6.56,6.01,5.74,5.64,3.02,3.03,3.58
40.14,-2.93,-6.51,-2.89,-6.47,6.02,5.73,5.54,3.09,3.13,3.58
40.54,-2.76,-6.34,-2.77,-6.34,6.02,5.71,5.45,3.26,3.26,3.57
40.94,-2.60,-6.17,-2.65,-6.21,6.02,5.69,5.35,3.42,3.37,3.57
41.35,-2.56,-6.12,-2.56,-6.12,6.00,5.67,5.27,3.44,3.44,3.56
41.76,-2.53,-6.07,-2.51,-6.05,5.96,5.64,5.18,3.43,3.45,3.54
42.18,-2.46,-6.00,-2.45,-5.99,5.90,5.62,5.10,3.44,3.45,3.54
42.60,-2.35,-5.87,-2.36,-5.88,5.83,5.60,5.02,3.48,3.48,3.52
43.03,-2.24,-5.76,-2.24,-5.75,5.75,5.57,4.95,3.51,3.51,3.52
43.46,-2.13,-5.62,-2.13,-5.62,5.66,5.55,4.88,3.53,3.53,3.49
43.90,-2.03,-5.50,-2.04,-5.51,5.56,5.52,4.81,3.53,3.52,3.47
44.33,-1.96,-5.41,-1.96,-5.41,5.46,5.49,4.75,3.50,3.49,3.45
44.78,-1.91,-5.34,-1.91,-5.34,5.35,5.45,4.69,3.44,3.45,3.43
45.23,-1.85,-5.27,-1.86,-5.27,5.26,5.42,4.63,3.40,3.40,3.41
45.68,-1.81,-5.21,-1.80,-5.20,5.18,5.39,4.58,3.36,3.37,3.40
46.13,-1.74,-5.12,-1.73,-5.11,5.10,5.35,4.53,3.36,3.37,3.38
46.60,-1.64,-5.02,-1.65,-5.02,5.03,5.31,4.48,3.38,3.38,3.38
47.06,-1.55,-4.92,-1.56,-4.93,4.95,5.27,4.44,3.40,3.39,3.37
47.53,-1.50,-4.86,-1.50,-4.86,4.87,5.22,4.40,3.37,3.37,3.36
48.01,-1.44,-4.80,-1.45,-4.80,4.79,5.18,4.36,3.35,3.34,3.36
48.49,-1.40,-4.74,-1.40,-4.74,4.71,5.13,4.33,3.31,3.31,3.34
48.97,-1.35,-4.67,-1.33,-4.65,4.64,5.08,4.30,3.29,3.32,3.32
49.46,-1.25,-4.57,-1.25,-4.56,4.58,5.02,4.27,3.33,3.33,3.31
49.96,-1.15,-4.45,-1.19,-4.49,4.53,4.97,4.25,3.37,3.34,3.30
50.46,-1.14,-4.45,-1.14,-4.45,4.47,4.91,4.23,3.33,3.33,3.31
50.96,-1.14,-4.44,-1.12,-4.42,4.42,4.84,4.21,3.28,3.30,3.30
51.47,-1.10,-4.39,-1.10,-4.39,4.37,4.78,4.19,3.27,3.27,3.29
51.99,-1.05,-4.34,-1.06,-4.34,4.32,4.71,4.17,3.26,3.26,3.28
52.51,-1.00,-4.29,-1.00,-4.29,4.27,4.63,4.16,3.27,3.26,3.28
53.03,-0.95,-4.24,-0.95,-4.23,4.22,4.56,4.15,3.27,3.27,3.29
53.56,-0.89,-4.17,-0.89,-4.16,4.17,4.47,4.14,3.28,3.28,3.28
54.10,-0.83,-4.10,-0.81,-4.08,4.12,4.39,4.13,3.29,3.30,3.27
54.64,-0.74,-4.01,-0.77,-4.03,4.06,4.31,4.12,3.32,3.29,3.27
55.18,-0.71,-3.97,-0.75,-4.00,4.00,4.22,4.11,3.29,3.25,3.25
55.74,-0.76,-4.00,-0.72,-3.97,3.94,4.12,4.10,3.18,3.22,3.24
56.29,-0.72,-3.96,-0.69,-3.93,3.89,4.03,4.09,3.17,3.20,3.24
56.86,-0.60,-3.82,-0.63,-3.85,3.84,3.93,4.09,3.24,3.21,3.22
57.42,-0.55,-3.76,-0.56,-3.77,3.80,3.84,4.08,3.25,3.24,3.21
58.00,-0.52,-3.72,-0.52,-3.72,3.75,3.74,4.07,3.23,3.23,3.20
58.58,-0.51,-3.69,-0.50,-3.69,3.70,3.64,4.06,3.19,3.19,3.18
59.16,-0.49,-3.66,-0.48,-3.65,3.64,3.54,4.05,3.15,3.16,3.17
59.76,-0.45,-3.60,-0.47,-3.61,3.58,3.45,4.04,3.13,3.12,3.15
60.35,-0.43,-3.55,-0.44,-3.56,3.53,3.36,4.03,3.10,3.09,3.12
60.96,-0.43,-3.53,-0.40,-3.49,3.48,3.28,4.01,3.04,3.08,3.10
61.57,-0.35,-3.40,-0.36,-3.41,3.42,3.20,4.00,3.07,3.07,3.05
62.18,-0.30,-3.32,-0.33,-3.35,3.37,3.13,3.98,3.07,3.04,3.02
62.80,-0.32,-3.30,-0.31,-3.29,3.32,3.07,3.96,3.00,3.01,2.98
63.43,-0.33,-3.27,-0.32,-3.26,3.27,3.02,3.94,2.94,2.95,2.94
64.07,-0.33,-3.24,-0.33,-3.24,3.23,2.98,3.92,2.90,2.90,2.91
64.71,-0.33,-3.20,-0.33,-3.20,3.19,2.95,3.89,2.86,2.86,2.87
65.35,-0.33,-3.17,-0.33,-3.17,3.16,2.93,3.87,2.83,2.83,2.84
66.01,-0.33,-3.13,-0.33,-3.13,3.12,2.93,3.84,2.79,2.79,2.80
66.67,-0.33,-3.09,-0.33,-3.10,3.09,2.94,3.81,2.75,2.75,2.76
67.33,-0.33,-3.06,-0.33,-3.06,3.05,2.96,3.78,2.72,2.72,2.73
68.01,-0.33,-3.02,-0.33,-3.02,3.02,2.99,3.75,2.69,2.69,2.69
68.69,-0.33,-2.98,-0.33,-2.99,3.00,3.03,3.72,2.67,2.67,2.65
69.37,-0.35,-2.96,-0.35,-2.96,2.99,3.08,3.68,2.64,2.64,2.61
70.07,-0.38,-2.95,-0.39,-2.96,2.99,3.14,3.65,2.60,2.60,2.57
70.77,-0.44,-2.98,-0.43,-2.97,2.98,3.21,3.62,2.54,2.55,2.54
71.48,-0.50,-3.00,-0.51,-3.01,2.98,3.27,3.58,2.48,2.47,2.49
72.19,-0.58,-3.03,-0.60,-3.05,2.99,3.35,3.55,2.41,2.39,2.45
72.91,-0.71,-3.11,-0.67,-3.07,3.02,3.42,3.52,2.31,2.35,2.40
73.64,-0.73,-3.08,-0.71,-3.06,3.07,3.50,3.49,2.33,2.36,2.35
74.38,-0.74,-3.05,-0.76,-3.06,3.13,3.57,3.45,2.39,2.37,2.31
75.12,-0.79,-3.05,-0.84,-3.11,3.20,3.64,3.42,2.41,2.35,2.26
75.87,-1.01,-3.24,-1.00,-3.23,3.28,3.72,3.39,2.27,2.28,2.23
76.63,-1.21,-3.40,-1.19,-3.38,3.37,3.79,3.37,2.15,2.17,2.19
77.40,-1.38,-3.53,-1.37,-3.52,3.46,3.85,3.34,2.08,2.09,2.15
78.17,-1.50,-3.61,-1.51,-3.62,3.56,3.92,3.32,2.06,2.06,2.11
78.95,-1.61,-3.70,-1.61,-3.70,3.67,3.98,3.29,2.05,2.05,2.08
79.74,-1.71,-3.77,-1.70,-3.75,3.76,4.03,3.27,2.04,2.06,2.06
80.54,-1.78,-3.81,-1.81,-3.84,3.83,4.09,3.25,2.05,2.02,2.03
81.35,-1.90,-3.90,-1.91,-3.91,3.90,4.14,3.24,2.00,1.99,2.00
82.16,-2.06,-4.03,-2.00,-3.97,3.97,4.18,3.22,1.91,1.96,1.96
82.98,-2.07,-4.02,-2.10,-4.04,4.04,4.22,3.21,1.97,1.94,1.94
83.81,-2.18,-4.08,-2.20,-4.11,4.14,4.26,3.20,1.95,1.94,1.90
84.65,-2.33,-4.20,-2.31,-4.19,4.24,4.29,3.19,1.91,1.93,1.87
85.50,-2.47,-4.32,-2.48,-4.32,4.36,4.32,3.19,1.89,1.88,1.85
86.35,-2.64,-4.46,-2.67,-4.48,4.49,4.35,3.18,1.85,1.82,1.81
87.22,-2.86,-4.64,-2.84,-4.62,4.62,4.37,3.18,1.76,1.78,1.78
88.09,-3.06,-4.81,-3.00,-4.75,4.75,4.39,3.18,1.69,1.75,1.75
88.97,-3.09,-4.81,-3.17,-4.88,4.86,4.40,3.19,1.76,1.69,1.72
89.86,-3.29,-4.98,-3.31,-5.00,4.95,4.41,3.19,1.66,1.63,1.69
90.76,-3.49,-5.14,-3.42,-5.07,5.02,4.42,3.20,1.53,1.60,1.65
91.66,-3.51,-5.14,-3.50,-5.12,5.08,4.42,3.21,1.57,1.58,1.63
92.58,-3.47,-5.06,-3.51,-5.10,5.13,4.42,3.23,1.66,1.62,1.59
93.51,-3.50,-5.06,-3.50,-5.07,5.16,4.42,3.24,1.66,1.66,1.56
94.44,-3.54,-5.08,-3.54,-5.08,5.17,4.41,3.26,1.63,1.63,1.54
95.39,-3.60,-5.11,-3.63,-5.13,5.16,4.40,3.28,1.56,1.53,1.51
96.34,-3.70,-5.17,-3.70,-5.18,5.11,4.39,3.31,1.41,1.41,1.47
97.30,-3.75,-5.20,-3.72,-5.16,5.04,4.37,3.33,1.29,1.33,1.45
98.28,-3.67,-5.09,-3.64,-5.06,4.95,4.35,3.35,1.28,1.31,1.42
99.26,-3.47,-4.87,-3.49,-4.88,4.84,4.33,3.38,1.37,1.36,1.40
100.25,-3.27,-4.64,-3.31,-4.68,4.72,4.31,3.41,1.45,1.41,1.37
101.25,-3.17,-4.51,-3.16,-4.50,4.58,4.28,3.44,1.41,1.42,1.34
102.27,-3.05,-4.37,-3.04,-4.35,4.43,4.25,3.47,1.38,1.39,1.32
103.29,-2.95,-4.22,-2.95,-4.22,4.28,4.22,3.50,1.33,1.34,1.27
104.32,-2.86,-4.11,-2.88,-4.13,4.14,4.18,3.53,1.28,1.26,1.25
105.37,-2.82,-4.03,-2.86,-4.07,4.02,4.14,3.56,1.20,1.16,1.21
106.42,-2.84,-4.02,-2.80,-3.98,3.90,4.10,3.59,1.06,1.11,1.18
107.48,-2.75,-3.89,-2.67,-3.81,3.79,4.06,3.62,1.04,1.12,1.14
108.56,-2.48,-3.59,-2.56,-3.66,3.67,4.01,3.65,1.19,1.11,1.11
109.64,-2.36,-3.43,-2.45,-3.53,3.54,3.96,3.67,1.18,1.09,1.07
110.74,-2.49,-3.53,-2.39,-3.43,3.42,3.91,3.70,0.93,1.03,1.04
111.85,-2.35,-3.36,-2.33,-3.33,3.31,3.85,3.72,0.96,0.99,1.01
112.97,-2.23,-3.20,-2.23,-3.21,3.22,3.79,3.74,0.99,0.99,0.96
114.10,-2.07,-3.02,-2.14,-3.08,3.15,3.74,3.75,1.07,1.01,0.95
115.24,-2.13,-3.04,-2.13,-3.04,3.09,3.67,3.76,0.96,0.96,0.91
116.39,-2.19,-3.07,-2.16,-3.05,3.06,3.61,3.77,0.86,0.89,0.88
117.55,-2.22,-3.08,-2.21,-3.07,3.04,3.54,3.78,0.82,0.83,0.86
118.73,-2.21,-3.04,-2.22,-3.05,3.03,3.47,3.78,0.82,0.81,0.83
119.92,-2.20,-3.02,-2.21,-3.02,3.02,3.40,3.77,0.82,0.82,0.82
121.12,-2.20,-3.00,-2.19,-2.99,3.02,3.33,3.76,0.81,0.83,0.80
122.33,-2.19,-2.97,-2.22,-3.01,3.00,3.25,3.74,0.80,0.77,0.78
123.55,-2.21,-2.99,-2.25,-3.02,2.96,3.18,3.72,0.75,0.71,0.78
124.79,-2.31,-3.06,-2.21,-2.96,2.91,3.10,3.68,0.60,0.70,0.75
126.03,-2.14,-2.88,-2.13,-2.87,2.85,3.02,3.65,0.70,0.72,0.74
127.29,-1.95,-2.68,-2.07,-2.79,2.79,2.94,3.60,0.83,0.72,0.72
128.57,-1.99,-2.69,-1.99,-2.69,2.73,2.85,3.56,0.74,0.75,0.70
129.85,-2.06,-2.75,-1.94,-2.63,2.68,2.77,3.50,0.62,0.74,0.69
131.15,-1.85,-2.53,-1.92,-2.59,2.63,2.68,3.44,0.78,0.72,0.68
132.46,-1.84,-2.51,-1.89,-2.55,2.59,2.60,3.38,0.75,0.70,0.66
133.79,-1.90,-2.56,-1.88,-2.54,2.55,2.51,3.31,0.65,0.67,0.66
135.12,-1.95,-2.58,-1.93,-2.57,2.51,2.42,3.23,0.56,0.58,0.63
136.48,-1.93,-2.56,-1.92,-2.54,2.47,2.33,3.15,0.54,0.56,0.63
137.84,-1.86,-2.47,-1.85,-2.45,2.43,2.23,3.06,0.57,0.58,0.61
139.22,-1.75,-2.33,-1.79,-2.38,2.38,2.14,2.97,0.62,0.59,0.58
140.61,-1.70,-2.26,-1.72,-2.29,2.32,2.05,2.88,0.62,0.60,0.56
142.02,-1.72,-2.29,-1.65,-2.21,2.26,1.96,2.78,0.54,0.60,0.57
143.44,-1.58,-2.13,-1.61,-2.16,2.19,1.86,2.68,0.61,0.58,0.55
144.87,-1.53,-2.05,-1.58,-2.10,2.11,1.77,2.58,0.58,0.53,0.52
146.32,-1.58,-2.08,-1.54,-2.04,2.03,1.67,2.47,0.45,0.49,0.49
147.78,-1.54,-2.01,-1.53,-1.99,1.95,1.57,2.36,0.41,0.42,0.47
149.26,-1.46,-1.89,-1.48,-1.91,1.85,1.48,2.25,0.39,0.37,0.43
150.75,-1.41,-1.79,-1.40,-1.78,1.75,1.38,2.14,0.33,0.35,0.38
152.26,-1.32,-1.66,-1.32,-1.66,1.63,1.29,2.03,0.31,0.31,0.33
153.78,-1.24,-1.52,-1.24,-1.52,1.52,1.19,1.92,0.28,0.28,0.28
155.32,-1.18,-1.40,-1.17,-1.39,1.43,1.10,1.80,0.25,0.26,0.22
156.88,-1.11,-1.28,-1.12,-1.28,1.36,1.00,1.69,0.25,0.24,0.17
158.44,-1.11,-1.20,-1.11,-1.21,1.31,0.90,1.58,0.20,0.20,0.09
160.03,-1.13,-1.16,-1.15,-1.18,1.28,0.81,1.46,0.15,0.13,0.03
161.63,-1.24,-1.22,-1.24,-1.22,1.25,0.71,1.34,0.01,0.00,-0.02
163.24,-1.32,-1.24,-1.33,-1.26,1.21,0.62,1.23,-0.11,-0.13,-0.08
164.88,-1.42,-1.31,-1.38,-1.26,1.14,0.52,1.11,-0.28,-0.23,-0.11
166.53,-1.33,-1.18,-1.34,-1.19,1.05,0.43,1.00,-0.28,-0.28,-0.15
168.19,-1.19,-1.01,-1.20,-1.02,0.93,0.34,0.88,-0.27,-0.27,-0.18
169.87,-1.01,-0.81,-0.98,-0.78,0.76,0.24,0.76,-0.25,-0.22,-0.21
171.57,-0.72,-0.50,-0.76,-0.54,0.57,0.15,0.65,-0.15,-0.19,-0.22
173.29,-0.53,-0.30,-0.53,-0.30,0.36,0.06,0.53,-0.17,-0.17,-0.23
175.02,-0.34,-0.10,-0.32,-0.08,0.15,-0.03,0.42,-0.19,-0.17,-0.24
176.77,-0.12,0.12,-0.14,0.10,-0.06,-0.12,0.30,-0.18,-0.20,-0.24
178.54,0.03,0.28,0.03,0.27,-0.24,-0.21,0.19,-0.21,-0.21,-0.25
180.32,0.18,0.41,0.17,0.41,-0.41,-0.30,0.07,-0.23,-0.23,-0.23
182.13,0.30,0.53,0.30,0.53,-0.55,-0.38,-0.04,-0.26,-0.25,-0.23
183.95,0.42,0.65,0.44,0.67,-0.69,-0.47,-0.16,-0.28,-0.26,-0.23
185.79,0.58,0.82,0.57,0.81,-0.83,-0.55,-0.27,-0.25,-0.26,-0.24
187.65,0.72,0.97,0.71,0.96,-0.96,-0.64,-0.39,-0.25,-0.26,-0.25
189.52,0.81,1.06,0.83,1.08,-1.09,-0.72,-0.50,-0.28,-0.26,-0.25
191.42,0.97,1.23,0.94,1.20,-1.21,-0.80,-0.62,-0.24,-0.27,-0.27
193.33,1.02,1.30,1.06,1.34,-1.32,-0.88,-0.73,-0.30,-0.26,-0.28
195.27,1.17,1.46,1.18,1.47,-1.43,-0.96,-0.84,-0.26,-0.25,-0.29
197.22,1.30,1.61,1.25,1.56,-1.53,-1.04,-0.95,-0.23,-0.28,-0.31
199.19,1.31,1.64,1.28,1.61,-1.61,-1.11,-1.06,-0.31,-0.33,-0.33
201.18,1.26,1.60,1.31,1.65,-1.69,-1.19,-1.17,-0.43,-0.39,-0.34
203.19,1.32,1.67,1.37,1.73,-1.77,-1.26,-1.28,-0.45,-0.40,-0.35
205.23,1.50,1.88,1.47,1.85,-1.85,-1.33,-1.39,-0.35,-0.38,-0.39
207.28,1.61,1.99,1.55,1.94,-1.93,-1.40,-1.50,-0.32,-0.38,-0.38
209.35,1.59,2.00,1.58,2.00,-2.01,-1.46,-1.60,-0.42,-0.43,-0.41
211.44,1.55,1.98,1.62,2.04,-2.08,-1.53,-1.71,-0.53,-0.47,-0.43
213.56,1.66,2.10,1.69,2.13,-2.14,-1.59,-1.81,-0.48,-0.45,-0.44
215.69,1.84,2.29,1.78,2.23,-2.19,-1.65,-1.91,-0.35,-0.41,-0.45
217.85,1.87,2.33,1.84,2.31,-2.22,-1.71,-2.00,-0.35,-0.38,-0.46
220.03,1.81,2.29,1.83,2.31,-2.25,-1.77,-2.10,-0.44,-0.41,-0.48
222.23,1.78,2.26,1.76,2.24,-2.27,-1.82,-2.18,-0.49,-0.51,-0.48
224.45,1.72,2.19,1.73,2.21,-2.29,-1.87,-2.27,-0.57,-0.55,-0.47
226.70,1.70,2.17,1.76,2.23,-2.30,-1.92,-2.35,-0.60,-0.53,-0.47
228.96,1.87,2.34,1.81,2.28,-2.30,-1.96,-2.43,-0.43,-0.49,-0.47
231.25,1.89,2.34,1.87,2.33,-2.30,-2.01,-2.50,-0.41,-0.43,-0.45
233.57,1.90,2.34,1.91,2.35,-2.31,-2.05,-2.57,-0.41,-0.39,-0.44
235.90,1.91,2.33,1.91,2.34,-2.31,-2.08,-2.62,-0.41,-0.40,-0.43
238.26,1.93,2.33,1.93,2.33,-2.32,-2.12,-2.68,-0.39,-0.40,-0.40
240.64,1.95,2.33,1.94,2.32,-2.32,-2.15,-2.73,-0.38,-0.38,-0.38
243.05,1.96,2.30,1.97,2.31,-2.32,-2.18,-2.77,-0.36,-0.35,-0.34
245.48,1.98,2.30,1.98,2.30,-2.31,-2.21,-2.80,-0.34,-0.33,-0.32
247.93,2.01,2.30,1.98,2.28,-2.31,-2.23,-2.83,-0.30,-0.33,-0.29
250.41,1.99,2.27,2.02,2.29,-2.30,-2.25,-2.85,-0.32,-0.29,-0.28
252.92,2.02,2.26,2.06,2.30,-2.30,-2.27,-2.87,-0.29,-0.25,-0.24
255.45,2.15,2.37,2.08,2.31,-2.30,-2.28,-2.87,-0.15,-0.22,-0.22
258.00,2.10,2.30,2.10,2.30,-2.29,-2.29,-2.87,-0.19,-0.19,-0.20
260.58,2.07,2.26,2.09,2.28,-2.26,-2.30,-2.87,-0.20,-0.17,-0.19
263.19,2.07,2.23,2.08,2.25,-2.23,-2.31,-2.86,-0.16,-0.15,-0.16
265.82,2.08,2.22,2.08,2.22,-2.18,-2.31,-2.84,-0.10,-0.10,-0.15
268.48,2.09,2.21,2.04,2.16,-2.13,-2.31,-2.81,-0.04,-0.09,-0.12
271.16,1.96,2.05,1.96,2.06,-2.07,-2.31,-2.78,-0.11,-0.11,-0.09
273.87,1.84,1.92,1.89,1.96,-2.01,-2.31,-2.75,-0.17,-0.12,-0.08
276.61,1.84,1.89,1.84,1.90,-1.94,-2.30,-2.71,-0.11,-0.10,-0.05
279.38,1.86,1.88,1.85,1.87,-1.88,-2.29,-2.67,-0.02,-0.04,-0.02
282.17,1.87,1.88,1.84,1.85,-1.82,-2.28,-2.62,0.04,0.02,-0.01
284.99,1.82,1.79,1.82,1.80,-1.77,-2.26,-2.57,0.05,0.06,0.03
287.84,1.77,1.71,1.79,1.74,-1.72,-2.25,-2.52,0.05,0.08,0.06
290.72,1.78,1.69,1.76,1.67,-1.67,-2.23,-2.47,0.11,0.10,0.09
293.63,1.75,1.63,1.74,1.62,-1.61,-2.21,-2.41,0.14,0.13,0.12
296.57,1.72,1.56,1.73,1.58,-1.56,-2.19,-2.35,0.16,0.18,0.16
299.53,1.72,1.54,1.72,1.54,-1.51,-2.16,-2.29,0.21,0.21,0.17
302.53,1.73,1.53,1.70,1.49,-1.49,-2.14,-2.23,0.24,0.21,0.20
305.55,1.72,1.48,1.70,1.47,-1.50,-2.11,-2.17,0.22,0.20,0.24
308.61,1.68,1.42,1.74,1.48,-1.55,-2.08,-2.10,0.13,0.19,0.26
311.69,1.85,1.57,1.83,1.55,-1.65,-2.05,-2.04,0.20,0.18,0.28
314.81,2.01,1.70,1.99,1.69,-1.78,-2.02,-1.98,0.23,0.21,0.31
317.96,2.19,1.87,2.21,1.89,-1.94,-1.99,-1.92,0.25,0.27,0.32
321.14,2.43,2.09,2.43,2.09,-2.10,-1.95,-1.85,0.32,0.33,0.34
324.35,2.67,2.32,2.67,2.32,-2.26,-1.92,-1.79,0.40,0.40,0.35
327.59,2.87,2.50,2.87,2.51,-2.40,-1.88,-1.73,0.47,0.47,0.37
330.87,3.02,2.65,2.99,2.61,-2.50,-1.85,-1.67,0.52,0.48,0.37
334.18,3.03,2.65,3.01,2.63,-2.55,-1.81,-1.61,0.48,0.46,0.38
337.52,2.94,2.55,2.97,2.58,-2.55,-1.77,-1.55,0.39,0.42,0.39
340.90,2.88,2.47,2.89,2.49,-2.49,-1.73,-1.49,0.38,0.40,0.41
344.30,2.83,2.41,2.80,2.38,-2.41,-1.69,-1.43,0.42,0.39,0.42
347.75,2.70,2.27,2.70,2.27,-2.29,-1.65,-1.38,0.41,0.40,0.43
351.23,2.56,2.12,2.57,2.14,-2.17,-1.61,-1.32,0.39,0.41,0.43
354.74,2.45,2.02,2.44,2.01,-2.04,-1.57,-1.27,0.41,0.40,0.43
358.28,2.34,1.90,2.34,1.90,-1.93,-1.53,-1.22,0.41,0.41,0.44
361.87,2.24,1.80,2.26,1.81,-1.82,-1.49,-1.16,0.41,0.43,0.44
365.49,2.19,1.74,2.18,1.73,-1.73,-1.45,-1.11,0.46,0.45,0.45
369.14,2.11,1.66,2.09,1.64,-1.64,-1.41,-1.06,0.47,0.44,0.45
372.83,2.01,1.56,2.00,1.55,-1.56,-1.37,-1.01,0.45,0.45,0.45
376.56,1.88,1.43,1.94,1.49,-1.48,-1.32,-0.97,0.40,0.46,0.44
380.33,1.90,1.43,1.88,1.43,-1.40,-1.28,-0.92,0.49,0.47,0.46
384.13,1.86,1.41,1.81,1.36,-1.34,-1.24,-0.87,0.52,0.47,0.45
387.97,1.72,1.27,1.73,1.27,-1.28,-1.20,-0.83,0.43,0.44,0.45
391.85,1.61,1.16,1.64,1.19,-1.23,-1.16,-0.79,0.38,0.41,0.45
395.77,1.58,1.12,1.59,1.13,-1.18,-1.11,-0.74,0.40,0.41,0.46
399.73,1.60,1.14,1.58,1.13,-1.12,-1.07,-0.70,0.47,0.46,0.46
403.72,1.58,1.13,1.57,1.11,-1.07,-1.03,-0.66,0.51,0.50,0.45
407.76,1.53,1.08,1.52,1.07,-1.01,-0.99,-0.62,0.51,0.51,0.45
411.84,1.44,0.98,1.44,0.99,-0.96,-0.95,-0.58,0.48,0.47,0.46
415.96,1.36,0.91,1.35,0.90,-0.91,-0.90,-0.55,0.45,0.44,0.45
420.12,1.25,0.80,1.30,0.85,-0.87,-0.86,-0.51,0.38,0.42,0.45
424.32,1.27,0.81,1.25,0.80,-0.84,-0.82,-0.47,0.43,0.42,0.45
428.56,1.27,0.81,1.22,0.76,-0.80,-0.78,-0.44,0.46,0.41,0.45
432.85,1.17,0.70,1.21,0.73,-0.77,-0.74,-0.40,0.39,0.43,0.47
437.18,1.20,0.71,1.25,0.75,-0.75,-0.70,-0.37,0.45,0.50,0.49
441.55,1.30,0.77,1.29,0.77,-0.73,-0.66,-0.33,0.57,0.57,0.53
445.96,1.42,0.86,1.32,0.76,-0.70,-0.61,-0.30,0.72,0.62,0.56
450.42,1.28,0.69,1.31,0.71,-0.66,-0.57,-0.27,0.62,0.65,0.59
454.93,1.21,0.56,1.28,0.64,-0.63,-0.53,-0.24,0.58,0.65,0.65
459.48,1.30,0.61,1.24,0.54,-0.60,-0.49,-0.21,0.70,0.64,0.69
464.07,1.26,0.51,1.26,0.51,-0.56,-0.45,-0.18,0.70,0.70,0.75
468.71,1.24,0.44,1.27,0.47,-0.51,-0.41,-0.15,0.73,0.76,0.80
473.40,1.31,0.46,1.28,0.43,-0.45,-0.37,-0.12,0.85,0.82,0.85
478.13,1.30,0.40,1.34,0.44,-0.39,-0.33,-0.10,0.90,0.94,0.90
482.91,1.36,0.42,1.37,0.43,-0.33,-0.29,-0.07,1.03,1.04,0.94
487.74,1.42,0.43,1.32,0.34,-0.27,-0.25,-0.04,1.15,1.05,0.99
492.62,1.22,0.19,1.24,0.21,-0.22,-0.21,-0.02,1.00,1.02,1.03
497.55,1.10,0.04,1.16,0.10,-0.17,-0.17,0.01,0.93,0.99,1.06
502.52,1.08,-0.01,1.12,0.04,-0.13,-0.13,0.03,0.95,0.99,1.09
