frequency,raw,error,smoothed,error_smoothed,equalization,parametric_eq,fixed_band_eq,equalized_raw,equalized_smoothed,target
20.00,19.12,12.52,19.12,12.51,-12.52,-12.16,-5.03,6.60,6.60,6.61
20.20,19.10,12.50,19.10,12.49,-12.50,-12.15,-5.16,6.61,6.61,6.61
20.40,19.08,12.47,19.08,12.47,-12.47,-12.15,-5.29,6.62,6.61,6.62
20.61,19.05,12.44,19.06,12.44,-12.44,-12.13,-5.42,6.62,6.62,6.62
20.81,19.03,12.42,19.03,12.41,-12.41,-12.12,-5.56,6.63,6.62,6.62
21.02,19.00,12.39,19.00,12.38,-12.37,-12.10,-5.71,6.63,6.63,6.62
21.23,18.96,12.34,18.97,12.34,-12.34,-12.07,-5.85,6.62,6.63,6.63
21.44,18.93,12.30,18.93,12.30,-12.30,-12.05,-6.01,6.63,6.63,6.63
21.66,18.89,12.26,18.89,12.26,-12.26,-12.02,-6.16,6.63,6.63,6.63
21.87,18.85,12.21,18.86,12.22,-12.22,-11.98,-6.32,6.63,6.64,6.64
22.09,18.82,12.19,18.82,12.18,-12.18,-11.95,-6.48,6.64,6.64,6.63
22.31,18.78,12.14,18.78,12.14,-12.14,-11.91,-6.65,6.64,6.64,6.64
22.54,18.73,12.10,18.74,12.10,-12.10,-11.86,-6.82,6.64,6.64,6.63
22.76,18.69,12.05,18.69,12.05,-12.06,-11.82,-7.00,6.64,6.64,6.64
22.99,18.64,12.00,18.65,12.01,-12.01,-11.77,-7.18,6.63,6.63,6.64
23.22,18.60,11.97,18.60,11.97,-11.97,-11.72,-7.37,6.64,6.64,6.63
23.45,18.55,11.92,18.55,11.92,-11.92,-11.67,-7.56,6.64,6.64,6.63
23.69,18.50,11.87,18.50,11.87,-11.86,-11.62,-7.75,6.64,6.64,6.63
23.92,18.44,11.81,18.45,11.82,-11.81,-11.56,-7.95,6.63,6.63,6.63
24.16,18.39,11.76,18.39,11.76,-11.76,-11.50,-8.16,6.63,6.63,6.63
24.40,18.33,11.69,18.33,11.70,-11.70,-11.44,-8.36,6.63,6.63,6.64
24.65,18.27,11.64,18.28,11.64,-11.65,-11.38,-8.58,6.63,6.63,6.64
24.89,18.22,11.59,18.22,11.59,-11.59,-11.32,-8.79,6.63,6.63,6.64
25.14,18.16,11.54,18.16,11.53,-11.53,-11.26,-9.01,6.63,6.63,6.63
25.39,18.10,11.48,18.10,11.48,-11.47,-11.20,-9.24,6.63,6.63,6.62
25.65,18.04,11.42,18.04,11.42,-11.42,-11.13,-9.46,6.63,6.63,6.62
25.91,17.98,11.36,17.98,11.36,-11.36,-11.07,-9.69,6.63,6.63,6.62
26.16,17.92,11.29,17.92,11.30,-11.30,-11.00,-9.93,6.62,6.63,6.63
26.43,17.86,11.23,17.86,11.24,-11.24,-10.94,-10.16,6.63,6.62,6.63
26.69,17.80,11.18,17.80,11.18,-11.18,-10.87,-10.39,6.63,6.62,6.62
26.96,17.73,11.11,17.74,11.12,-11.11,-10.81,-10.63,6.62,6.62,6.62
27.23,17.67,11.06,17.67,11.05,-11.05,-10.74,-10.86,6.62,6.62,6.62
27.50,17.60,10.99,17.61,10.98,-10.99,-10.67,-11.09,6.62,6.62,6.62
27.77,17.54,10.92,17.54,10.92,-10.92,-10.61,-11.31,6.62,6.62,6.63
28.05,17.47,10.85,17.47,10.85,-10.86,-10.54,-11.53,6.62,6.62,6.62
28.33,17.40,10.79,17.41,10.79,-10.79,-10.47,-11.74,6.61,6.62,6.61
28.62,17.34,10.73,17.34,10.72,-10.72,-10.41,-11.94,6.62,6.62,6.61
28.90,17.27,10.65,17.27,10.66,-10.66,-10.34,-12.13,6.61,6.62,6.62
29.19,17.21,10.59,17.21,10.59,-10.59,-10.28,-12.30,6.62,6.61,6.62
29.48,17.13,10.52,17.14,10.53,-10.53,-10.21,-12.46,6.61,6.61,6.61
29.78,17.07,10.47,17.07,10.46,-10.46,-10.15,-12.60,6.61,6.61,6.61
30.08,17.00,10.39,17.00,10.39,-10.39,-10.09,-12.72,6.61,6.61,6.61
30.38,16.93,10.33,16.93,10.33,-10.32,-10.02,-12.82,6.61,6.61,6.60
30.68,16.86,10.25,16.86,10.25,-10.26,-9.96,-12.90,6.61,6.61,6.61
30.99,16.79,10.18,16.79,10.18,-10.19,-9.90,-12.95,6.61,6.61,6.61
31.30,16.72,10.12,16.73,10.12,-10.12,-9.84,-12.98,6.60,6.61,6.61
31.61,16.66,10.05,16.66,10.05,-10.05,-9.78,-12.99,6.61,6.61,6.62
31.93,16.59,9.99,16.59,9.98,-9.98,-9.72,-12.97,6.61,6.61,6.60
32.24,16.52,9.91,16.53,9.92,-9.91,-9.66,-12.92,6.61,6.61,6.61
32.57,16.46,9.85,16.46,9.85,-9.85,-9.61,-12.86,6.62,6.61,6.61
32.89,16.39,9.79,16.39,9.78,-9.78,-9.55,-12.78,6.61,6.61,6.61
33.22,16.32,9.72,16.32,9.72,-9.72,-9.49,-12.67,6.60,6.60,6.60
33.55,16.25,9.65,16.25,9.65,-9.66,-9.44,-12.55,6.60,6.60,6.60
33.89,16.19,9.59,16.19,9.59,-9.60,-9.38,-12.42,6.60,6.59,6.60
34.23,16.12,9.54,16.13,9.54,-9.54,-9.33,-12.28,6.59,6.59,6.59
34.57,16.06,9.49,16.06,9.48,-9.48,-9.28,-12.12,6.58,6.58,6.57
34.92,15.99,9.43,15.99,9.43,-9.43,-9.23,-11.96,6.56,6.56,6.56
35.27,15.92,9.37,15.93,9.38,-9.38,-9.17,-11.79,6.55,6.55,6.56
35.62,15.86,9.34,15.86,9.33,-9.33,-9.12,-11.62,6.53,6.53,6.53
35.97,15.79,9.28,15.79,9.28,-9.28,-9.08,-11.45,6.51,6.51,6.51
36.33,15.72,9.23,15.73,9.24,-9.24,-9.03,-11.27,6.48,6.49,6.49
36.70,15.66,9.20,15.66,9.19,-9.20,-8.98,-11.10,6.47,6.46,6.46
37.06,15.59,9.15,15.60,9.16,-9.15,-8.93,-10.92,6.44,6.44,6.44
37.43,15.53,9.12,15.53,9.12,-9.11,-8.89,-10.75,6.42,6.42,6.42
37.81,15.47,9.08,15.47,9.07,-9.07,-8.84,-10.58,6.40,6.40,6.39
38.19,15.40,9.02,15.41,9.03,-9.03,-8.80,-10.42,6.37,6.38,6.38
38.57,15.34,8.99,15.34,8.99,-8.99,-8.76,-10.25,6.35,6.35,6.35
38.95,15.27,8.94,15.28,8.95,-8.95,-8.72,-10.10,6.33,6.33,6.33
39.34,15.21,8.91,15.21,8.91,-8.90,-8.67,-9.95,6.31,6.31,6.31
39.74,15.15,8.87,15.15,8.86,-8.86,-8.63,-9.80,6.29,6.29,6.28
40.14,15.08,8.82,15.08,8.82,-8.82,-8.59,-9.66,6.27,6.27,6.27
40.54,15.01,8.76,15.02,8.77,-8.77,-8.56,-9.52,6.24,6.25,6.25
40.94,14.96,8.74,14.96,8.73,-8.73,-8.52,-9.39,6.23,6.22,6.23
41.35,14.89,8.68,14.90,8.69,-8.69,-8.48,-9.27,6.20,6.21,6.21
41.76,14.83,8.65,14.83,8.65,-8.65,-8.44,-9.15,6.18,6.18,6.18
42.18,14.77,8.61,14.77,8.60,-8.61,-8.41,-9.04,6.17,6.16,6.17
42.60,14.70,8.56,14.71,8.57,-8.56,-8.37,-8.94,6.14,6.14,6.14
43.03,14.65,8.53,14.65,8.52,-8.52,-8.34,-8.84,6.13,6.12,6.12
43.46,14.58,8.48,14.59,8.49,-8.48,-8.31,-8.74,6.10,6.10,6.10
43.90,14.52,8.44,14.52,8.45,-8.44,-8.27,-8.66,6.08,6.08,6.08
44.33,14.46,8.41,14.46,8.40,-8.40,-8.24,-8.58,6.06,6.06,6.05
44.78,14.39,8.36,14.40,8.36,-8.36,-8.21,-8.50,6.03,6.03,6.04
45.23,14.33,8.31,14.33,8.32,-8.32,-8.18,-8.43,6.01,6.01,6.03
45.68,14.27,8.28,14.27,8.28,-8.29,-8.15,-8.37,5.99,5.99,5.99
46.13,14.22,8.26,14.22,8.25,-8.25,-8.12,-8.31,5.97,5.97,5.96
46.60,14.15,8.22,14.16,8.22,-8.22,-8.09,-8.26,5.94,5.94,5.93
47.06,14.10,8.19,14.10,8.19,-8.19,-8.06,-8.22,5.91,5.91,5.91
47.53,14.03,8.15,14.03,8.16,-8.16,-8.03,-8.18,5.87,5.87,5.88
48.01,13.97,8.14,13.97,8.13,-8.14,-8.01,-8.14,5.84,5.84,5.83
48.49,13.91,8.11,13.91,8.11,-8.11,-7.98,-8.11,5.80,5.80,5.80
48.97,13.85,8.09,13.85,8.09,-8.09,-7.95,-8.08,5.76,5.76,5.76
49.46,13.79,8.06,13.79,8.07,-8.07,-7.93,-8.06,5.73,5.73,5.73
49.96,13.73,8.06,13.73,8.05,-8.04,-7.90,-8.04,5.69,5.69,5.67
50.46,13.66,8.02,13.67,8.02,-8.02,-7.88,-8.03,5.64,5.65,5.64
50.96,13.60,8.00,13.60,8.00,-8.00,-7.85,-8.02,5.60,5.60,5.61
51.47,13.54,7.97,13.54,7.97,-7.98,-7.83,-8.02,5.57,5.57,5.57
51.99,13.48,7.95,13.49,7.95,-7.95,-7.80,-8.01,5.53,5.53,5.53
52.51,13.43,7.94,13.43,7.93,-7.93,-7.78,-8.01,5.50,5.49,5.50
53.03,13.36,7.90,13.37,7.91,-7.91,-7.76,-8.01,5.45,5.46,5.46
53.56,13.30,7.88,13.30,7.89,-7.89,-7.73,-8.01,5.42,5.42,5.42
54.10,13.24,7.87,13.24,7.86,-7.86,-7.71,-8.02,5.38,5.38,5.37
54.64,13.18,7.84,13.18,7.85,-7.84,-7.69,-8.02,5.34,5.34,5.34
55.18,13.12,7.82,13.12,7.82,-7.82,-7.67,-8.03,5.31,5.31,5.30
55.74,13.06,7.80,13.06,7.79,-7.79,-7.64,-8.03,5.27,5.27,5.27
56.29,13.00,7.76,13.00,7.76,-7.76,-7.62,-8.03,5.24,5.24,5.24
56.86,12.93,7.71,12.94,7.73,-7.73,-7.60,-8.04,5.20,5.21,5.22
57.42,12.87,7.70,12.88,7.70,-7.70,-7.58,-8.04,5.18,5.18,5.17
58.00,12.82,7.68,12.82,7.67,-7.66,-7.56,-8.03,5.16,5.15,5.14
58.58,12.76,7.64,12.76,7.64,-7.63,-7.53,-8.03,5.13,5.13,5.12
59.16,12.69,7.60,12.70,7.60,-7.61,-7.51,-8.02,5.08,5.09,5.09
59.76,12.63,7.57,12.63,7.57,-7.59,-7.49,-8.00,5.05,5.05,5.06
60.35,12.56,7.55,12.57,7.55,-7.57,-7.47,-7.98,5.00,5.00,5.01
60.96,12.51,7.54,12.51,7.54,-7.55,-7.45,-7.96,4.96,4.96,4.97
61.57,12.44,7.54,12.44,7.54,-7.53,-7.43,-7.93,4.91,4.91,4.91
62.18,12.38,7.53,12.38,7.53,-7.52,-7.40,-7.90,4.86,4.86,4.85
62.80,12.32,7.51,12.32,7.52,-7.51,-7.38,-7.86,4.82,4.82,4.81
63.43,12.26,7.50,12.26,7.50,-7.49,-7.36,-7.81,4.77,4.77,4.76
64.07,12.20,7.48,12.20,7.48,-7.47,-7.34,-7.76,4.73,4.73,4.73
64.71,12.14,7.45,12.14,7.45,-7.45,-7.32,-7.71,4.69,4.69,4.69
65.35,12.07,7.43,12.08,7.43,-7.43,-7.29,-7.65,4.64,4.65,4.64
66.01,12.01,7.41,12.01,7.41,-7.41,-7.27,-7.58,4.61,4.61,4.61
66.67,11.95,7.38,11.95,7.38,-7.38,-7.25,-7.51,4.57,4.56,4.58
67.33,11.88,7.36,11.88,7.36,-7.36,-7.23,-7.44,4.53,4.53,4.53
68.01,11.81,7.33,11.82,7.33,-7.33,-7.20,-7.36,4.48,4.49,4.49
68.69,11.76,7.32,11.76,7.31,-7.30,-7.18,-7.28,4.46,4.45,4.44
69.37,11.69,7.28,11.69,7.28,-7.28,-7.16,-7.20,4.41,4.41,4.41
70.07,11.62,7.24,11.63,7.25,-7.26,-7.13,-7.11,4.37,4.37,4.38
70.77,11.56,7.23,11.56,7.23,-7.23,-7.11,-7.02,4.33,4.33,4.34
71.48,11.50,7.21,11.50,7.20,-7.21,-7.08,-6.94,4.29,4.29,4.29
72.19,11.42,7.18,11.43,7.18,-7.19,-7.06,-6.85,4.24,4.24,4.25
72.91,11.36,7.16,11.36,7.16,-7.16,-7.03,-6.76,4.20,4.20,4.20
73.64,11.29,7.14,11.29,7.14,-7.14,-7.01,-6.67,4.15,4.15,4.15
74.38,11.23,7.12,11.23,7.12,-7.11,-6.98,-6.58,4.12,4.12,4.11
75.12,11.16,7.09,11.17,7.09,-7.09,-6.95,-6.50,4.08,4.08,4.07
75.87,11.10,7.06,11.10,7.06,-7.06,-6.93,-6.41,4.05,4.04,4.04
76.63,11.03,7.03,11.03,7.03,-7.02,-6.90,-6.33,4.01,4.01,4.00
77.40,10.96,6.98,10.97,6.99,-6.99,-6.87,-6.25,3.97,3.98,3.98
78.17,10.90,6.96,10.90,6.95,-6.95,-6.84,-6.17,3.95,3.94,3.94
78.95,10.82,6.91,10.83,6.91,-6.91,-6.81,-6.09,3.91,3.92,3.92
79.74,10.76,6.87,10.76,6.87,-6.87,-6.79,-6.02,3.89,3.89,3.89
80.54,10.69,6.84,10.69,6.83,-6.83,-6.76,-5.95,3.86,3.86,3.86
81.35,10.62,6.80,10.62,6.80,-6.80,-6.73,-5.88,3.83,3.83,3.82
82.16,10.55,6.75,10.55,6.75,-6.76,-6.70,-5.82,3.80,3.80,3.81
82.98,10.48,6.71,10.48,6.71,-6.72,-6.66,-5.76,3.77,3.77,3.77
83.81,10.41,6.67,10.41,6.67,-6.68,-6.63,-5.70,3.74,3.74,3.74
84.65,10.34,6.64,10.34,6.64,-6.64,-6.60,-5.65,3.71,3.71,3.70
85.50,10.27,6.60,10.27,6.60,-6.60,-6.57,-5.60,3.68,3.68,3.67
86.35,10.20,6.56,10.20,6.56,-6.56,-6.53,-5.56,3.65,3.64,3.64
87.22,10.12,6.50,10.13,6.51,-6.52,-6.50,-5.52,3.61,3.61,3.62
88.09,10.06,6.48,10.06,6.47,-6.48,-6.47,-5.48,3.59,3.58,3.58
88.97,9.98,6.43,9.99,6.43,-6.43,-6.43,-5.45,3.55,3.55,3.56
89.86,9.91,6.40,9.91,6.40,-6.39,-6.40,-5.42,3.52,3.52,3.51
90.76,9.84,6.35,9.84,6.35,-6.35,-6.36,-5.39,3.49,3.49,3.49
91.66,9.76,6.32,9.77,6.31,-6.31,-6.33,-5.37,3.45,3.46,3.45
92.58,9.69,6.27,9.69,6.27,-6.27,-6.29,-5.36,3.42,3.42,3.42
93.51,9.61,6.23,9.62,6.23,-6.23,-6.25,-5.34,3.38,3.39,3.39
94.44,9.54,6.18,9.54,6.18,-6.19,-6.21,-5.33,3.35,3.35,3.36
95.39,9.46,6.15,9.46,6.15,-6.15,-6.18,-5.33,3.31,3.31,3.32
96.34,9.38,6.11,9.39,6.11,-6.12,-6.14,-5.32,3.27,3.27,3.27
97.30,9.31,6.08,9.31,6.08,-6.08,-6.10,-5.32,3.23,3.23,3.23
98.28,9.23,6.05,9.23,6.05,-6.04,-6.06,-5.33,3.19,3.19,3.19
99.26,9.15,6.01,9.15,6.01,-6.00,-6.02,-5.33,3.15,3.15,3.14
100.25,9.07,5.97,9.07,5.97,-5.96,-5.98,-5.34,3.11,3.11,3.10
101.25,8.99,5.92,8.99,5.92,-5.92,-5.94,-5.35,3.07,3.07,3.08
102.27,8.90,5.87,8.91,5.87,-5.88,-5.89,-5.37,3.03,3.03,3.04
103.29,8.83,5.83,8.83,5.83,-5.83,-5.85,-5.38,3.00,3.00,3.00
104.32,8.74,5.78,8.75,5.78,-5.78,-5.81,-5.40,2.96,2.96,2.96
105.37,8.66,5.74,8.67,5.74,-5.74,-5.77,-5.41,2.93,2.93,2.92
106.42,8.58,5.69,8.58,5.69,-5.69,-5.72,-5.43,2.89,2.89,2.90
107.48,8.50,5.65,8.50,5.65,-5.64,-5.68,-5.45,2.86,2.86,2.85
108.56,8.41,5.59,8.41,5.60,-5.60,-5.64,-5.47,2.82,2.82,2.82
109.64,8.33,5.55,8.33,5.55,-5.55,-5.59,-5.49,2.78,2.78,2.78
110.74,8.24,5.50,8.25,5.50,-5.50,-5.55,-5.50,2.74,2.74,2.75
111.85,8.17,5.46,8.17,5.46,-5.46,-5.50,-5.52,2.71,2.71,2.71
112.97,8.08,5.42,8.08,5.42,-5.42,-5.45,-5.53,2.66,2.66,2.66
114.10,7.99,5.37,7.99,5.37,-5.38,-5.41,-5.55,2.61,2.62,2.62
115.24,7.90,5.33,7.90,5.34,-5.34,-5.36,-5.55,2.56,2.57,2.57
116.39,7.81,5.30,7.82,5.30,-5.30,-5.32,-5.56,2.51,2.51,2.51
117.55,7.73,5.28,7.73,5.27,-5.26,-5.27,-5.56,2.47,2.46,2.46
118.73,7.63,5.23,7.64,5.23,-5.23,-5.22,-5.56,2.40,2.41,2.40
119.92,7.54,5.20,7.54,5.19,-5.19,-5.17,-5.55,2.35,2.35,2.35
121.12,7.45,5.15,7.45,5.15,-5.16,-5.12,-5.54,2.29,2.29,2.30
122.33,7.36,5.12,7.36,5.12,-5.12,-5.08,-5.53,2.24,2.24,2.24
123.55,7.27,5.09,7.27,5.09,-5.09,-5.03,-5.50,2.18,2.18,2.19
124.79,7.18,5.06,7.18,5.06,-5.06,-4.98,-5.48,2.12,2.12,2.12
126.03,7.08,5.02,7.09,5.02,-5.03,-4.93,-5.45,2.06,2.06,2.06
127.29,6.99,4.99,6.99,4.99,-4.99,-4.88,-5.41,2.00,2.00,2.00
128.57,6.90,4.96,6.90,4.96,-4.96,-4.83,-5.37,1.95,1.94,1.94
129.85,6.80,4.92,6.81,4.92,-4.92,-4.78,-5.32,1.88,1.89,1.88
131.15,6.71,4.89,6.71,4.88,-4.88,-4.73,-5.26,1.84,1.83,1.82
132.46,6.60,4.83,6.61,4.84,-4.83,-4.68,-5.21,1.77,1.78,1.77
133.79,6.51,4.79,6.51,4.79,-4.78,-4.63,-5.14,1.73,1.73,1.73
135.12,6.41,4.73,6.41,4.73,-4.73,-4.58,-5.08,1.68,1.68,1.68
136.48,6.32,4.67,6.32,4.68,-4.68,-4.53,-5.01,1.65,1.65,1.65
137.84,6.22,4.61,6.22,4.62,-4.62,-4.48,-4.94,1.61,1.61,1.61
139.22,6.13,4.57,6.13,4.55,-4.55,-4.43,-4.86,1.58,1.57,1.56
140.61,6.02,4.48,6.03,4.49,-4.49,-4.38,-4.78,1.53,1.54,1.54
142.02,5.93,4.42,5.93,4.43,-4.43,-4.32,-4.70,1.51,1.51,1.51
143.44,5.84,4.37,5.83,4.35,-4.36,-4.27,-4.62,1.48,1.48,1.48
144.87,5.73,4.28,5.74,4.29,-4.29,-4.22,-4.53,1.44,1.45,1.46
146.32,5.64,4.22,5.65,4.22,-4.22,-4.17,-4.45,1.42,1.42,1.43
147.78,5.55,4.16,5.55,4.15,-4.15,-4.12,-4.36,1.40,1.40,1.40
149.26,5.45,4.09,5.45,4.09,-4.08,-4.07,-4.28,1.37,1.37,1.37
150.75,5.34,4.01,5.35,4.01,-4.01,-4.01,-4.19,1.33,1.34,1.33
152.26,5.25,3.94,5.25,3.94,-3.94,-3.96,-4.11,1.31,1.31,1.31
153.78,5.14,3.86,5.15,3.87,-3.87,-3.91,-4.02,1.27,1.28,1.28
155.32,5.05,3.80,5.05,3.80,-3.80,-3.86,-3.94,1.25,1.25,1.25
156.88,4.94,3.72,4.95,3.73,-3.74,-3.81,-3.86,1.21,1.21,1.22
158.44,4.85,3.68,4.85,3.67,-3.67,-3.75,-3.77,1.18,1.18,1.18
160.03,4.75,3.61,4.75,3.61,-3.61,-3.70,-3.69,1.14,1.14,1.14
161.63,4.65,3.54,4.66,3.55,-3.55,-3.65,-3.62,1.11,1.11,1.11
163.24,4.56,3.49,4.56,3.49,-3.49,-3.60,-3.54,1.07,1.07,1.07
164.88,4.46,3.43,4.46,3.43,-3.43,-3.54,-3.47,1.03,1.04,1.03
166.53,4.37,3.38,4.37,3.38,-3.37,-3.49,-3.39,1.00,1.00,0.99
168.19,4.27,3.31,4.27,3.31,-3.31,-3.44,-3.32,0.96,0.96,0.96
169.87,4.18,3.26,4.18,3.26,-3.26,-3.39,-3.26,0.93,0.93,0.93
171.57,4.09,3.19,4.09,3.20,-3.20,-3.34,-3.19,0.89,0.89,0.90
173.29,4.01,3.15,4.01,3.15,-3.15,-3.28,-3.13,0.86,0.86,0.86
175.02,3.92,3.10,3.92,3.09,-3.10,-3.23,-3.07,0.83,0.83,0.83
176.77,3.84,3.05,3.84,3.05,-3.05,-3.18,-3.01,0.79,0.80,0.79
178.54,3.76,2.99,3.76,3.00,-3.00,-3.13,-2.95,0.76,0.76,0.77
180.32,3.69,2.97,3.69,2.96,-2.96,-3.08,-2.89,0.73,0.73,0.73
182.13,3.61,2.92,3.61,2.92,-2.92,-3.03,-2.84,0.69,0.70,0.69
183.95,3.54,2.88,3.54,2.88,-2.88,-2.97,-2.79,0.66,0.66,0.66
185.79,3.47,2.84,3.47,2.84,-2.85,-2.92,-2.74,0.63,0.63,0.63
187.65,3.41,2.81,3.41,2.81,-2.81,-2.87,-2.70,0.60,0.59,0.60
189.52,3.34,2.78,3.35,2.78,-2.79,-2.82,-2.65,0.56,0.56,0.56
191.42,3.29,2.75,3.29,2.75,-2.76,-2.77,-2.61,0.54,0.53,0.54
193.33,3.23,2.73,3.23,2.73,-2.73,-2.72,-2.57,0.50,0.50,0.50
195.27,3.17,2.71,3.17,2.71,-2.70,-2.66,-2.53,0.47,0.47,0.46
197.22,3.11,2.69,3.11,2.68,-2.68,-2.61,-2.50,0.44,0.43,0.43
199.19,3.05,2.65,3.05,2.65,-2.65,-2.56,-2.46,0.40,0.40,0.40
201.18,2.99,2.62,3.00,2.62,-2.62,-2.51,-2.43,0.37,0.38,0.37
203.19,2.94,2.59,2.94,2.59,-2.59,-2.46,-2.40,0.35,0.35,0.35
205.23,2.87,2.55,2.88,2.55,-2.55,-2.41,-2.36,0.32,0.32,0.32
207.28,2.81,2.51,2.81,2.52,-2.51,-2.36,-2.33,0.30,0.30,0.30
209.35,2.74,2.48,2.74,2.48,-2.47,-2.31,-2.30,0.27,0.27,0.26
211.44,2.67,2.43,2.68,2.44,-2.43,-2.26,-2.28,0.24,0.24,0.24
213.56,2.61,2.40,2.61,2.39,-2.39,-2.21,-2.25,0.22,0.22,0.22
215.69,2.53,2.34,2.54,2.34,-2.34,-2.16,-2.22,0.19,0.19,0.19
217.85,2.46,2.29,2.46,2.30,-2.30,-2.11,-2.19,0.17,0.17,0.17
220.03,2.39,2.25,2.39,2.25,-2.25,-2.06,-2.17,0.14,0.14,0.14
222.23,2.32,2.20,2.32,2.20,-2.20,-2.01,-2.14,0.12,0.12,0.12
224.45,2.25,2.15,2.25,2.15,-2.15,-1.96,-2.11,0.10,0.10,0.10
226.70,2.17,2.10,2.18,2.10,-2.10,-1.91,-2.09,0.08,0.08,0.08
228.96,2.10,2.04,2.11,2.04,-2.05,-1.86,-2.06,0.06,0.06,0.07
231.25,2.04,2.00,2.04,1.99,-1.99,-1.81,-2.03,0.05,0.04,0.05
233.57,1.96,1.94,1.97,1.94,-1.94,-1.76,-2.00,0.02,0.02,0.03
235.90,1.89,1.89,1.89,1.89,-1.89,-1.71,-1.97,0.00,0.00,-0.00
238.26,1.82,1.84,1.82,1.84,-1.84,-1.66,-1.94,-0.01,-0.01,-0.02
240.64,1.75,1.77,1.76,1.78,-1.78,-1.61,-1.90,-0.03,-0.03,-0.02
243.05,1.69,1.73,1.69,1.73,-1.73,-1.56,-1.87,-0.04,-0.04,-0.04
245.48,1.62,1.68,1.62,1.68,-1.68,-1.51,-1.83,-0.05,-0.05,-0.06
247.93,1.55,1.63,1.56,1.63,-1.62,-1.46,-1.79,-0.07,-0.07,-0.07
250.41,1.49,1.57,1.49,1.57,-1.57,-1.41,-1.75,-0.07,-0.08,-0.08
252.92,1.42,1.51,1.42,1.51,-1.51,-1.36,-1.71,-0.09,-0.09,-0.09
255.45,1.35,1.46,1.35,1.45,-1.46,-1.32,-1.67,-0.10,-0.10,-0.10
258.00,1.28,1.39,1.29,1.40,-1.40,-1.27,-1.62,-0.12,-0.11,-0.11
260.58,1.22,1.34,1.22,1.34,-1.35,-1.22,-1.58,-0.12,-0.12,-0.12
263.19,1.16,1.30,1.16,1.29,-1.29,-1.17,-1.53,-0.13,-0.13,-0.13
265.82,1.09,1.23,1.10,1.24,-1.24,-1.12,-1.48,-0.14,-0.14,-0.14
268.48,1.03,1.19,1.03,1.18,-1.18,-1.07,-1.42,-0.15,-0.15,-0.16
271.16,0.96,1.12,0.96,1.13,-1.13,-1.02,-1.37,-0.17,-0.17,-0.16
273.87,0.89,1.07,0.90,1.07,-1.08,-0.97,-1.31,-0.18,-0.18,-0.18
276.61,0.83,1.02,0.83,1.02,-1.02,-0.93,-1.26,-0.19,-0.19,-0.19
279.38,0.76,0.97,0.77,0.97,-0.96,-0.88,-1.20,-0.20,-0.20,-0.21
282.17,0.70,0.91,0.70,0.91,-0.91,-0.83,-1.14,-0.20,-0.21,-0.21
284.99,0.63,0.85,0.63,0.85,-0.85,-0.78,-1.08,-0.22,-0.22,-0.22
287.84,0.56,0.77,0.57,0.79,-0.79,-0.73,-1.02,-0.23,-0.22,-0.21
290.72,0.50,0.74,0.50,0.73,-0.73,-0.68,-0.95,-0.23,-0.23,-0.23
293.63,0.43,0.67,0.43,0.67,-0.67,-0.64,-0.89,-0.24,-0.24,-0.24
296.57,0.36,0.61,0.37,0.61,-0.61,-0.59,-0.82,-0.24,-0.24,-0.24
299.53,0.30,0.55,0.30,0.55,-0.54,-0.54,-0.76,-0.24,-0.24,-0.25
302.53,0.23,0.48,0.23,0.48,-0.48,-0.49,-0.69,-0.25,-0.25,-0.25
305.55,0.16,0.42,0.16,0.41,-0.42,-0.44,-0.63,-0.25,-0.25,-0.25
308.61,0.09,0.34,0.10,0.35,-0.35,-0.39,-0.56,-0.26,-0.25,-0.25
311.69,0.03,0.28,0.03,0.28,-0.28,-0.34,-0.49,-0.25,-0.25,-0.25
314.81,-0.03,0.23,-0.03,0.22,-0.22,-0.30,-0.42,-0.24,-0.25,-0.25
317.96,-0.11,0.15,-0.10,0.15,-0.15,-0.25,-0.35,-0.26,-0.25,-0.26
321.14,-0.17,0.08,-0.17,0.08,-0.08,-0.20,-0.29,-0.25,-0.25,-0.25
324.35,-0.24,0.01,-0.24,0.01,-0.01,-0.15,-0.22,-0.25,-0.25,-0.25
327.59,-0.30,-0.06,-0.30,-0.06,0.05,-0.10,-0.15,-0.24,-0.24,-0.23
330.87,-0.37,-0.12,-0.37,-0.12,0.12,-0.05,-0.08,-0.24,-0.24,-0.25
334.18,-0.43,-0.18,-0.43,-0.19,0.19,-0.00,-0.01,-0.24,-0.24,-0.25
337.52,-0.50,-0.26,-0.50,-0.25,0.26,0.04,0.07,-0.24,-0.24,-0.24
340.90,-0.56,-0.32,-0.56,-0.33,0.32,0.09,0.14,-0.23,-0.24,-0.23
344.30,-0.63,-0.39,-0.62,-0.39,0.39,0.14,0.21,-0.24,-0.24,-0.24
347.75,-0.69,-0.46,-0.68,-0.45,0.45,0.19,0.28,-0.24,-0.23,-0.23
351.23,-0.74,-0.50,-0.74,-0.51,0.51,0.24,0.35,-0.22,-0.23,-0.24
354.74,-0.81,-0.59,-0.80,-0.57,0.58,0.29,0.43,-0.23,-0.23,-0.22
358.28,-0.87,-0.63,-0.87,-0.63,0.64,0.34,0.50,-0.23,-0.23,-0.23
361.87,-0.93,-0.69,-0.93,-0.70,0.70,0.39,0.57,-0.23,-0.23,-0.23
365.49,-0.99,-0.76,-0.99,-0.76,0.75,0.43,0.65,-0.23,-0.23,-0.23
369.14,-1.05,-0.82,-1.04,-0.81,0.81,0.48,0.72,-0.24,-0.23,-0.23
372.83,-1.10,-0.87,-1.10,-0.87,0.87,0.53,0.79,-0.23,-0.23,-0.23
376.56,-1.16,-0.92,-1.16,-0.92,0.92,0.58,0.87,-0.23,-0.23,-0.24
380.33,-1.21,-0.97,-1.21,-0.98,0.98,0.63,0.94,-0.23,-0.23,-0.23
384.13,-1.27,-1.03,-1.26,-1.03,1.03,0.68,1.02,-0.23,-0.23,-0.23
387.97,-1.32,-1.09,-1.32,-1.09,1.09,0.73,1.10,-0.23,-0.23,-0.23
391.85,-1.37,-1.14,-1.37,-1.14,1.14,0.78,1.17,-0.22,-0.23,-0.23
395.77,-1.42,-1.19,-1.42,-1.20,1.19,0.83,1.25,-0.22,-0.22,-0.23
399.73,-1.47,-1.25,-1.47,-1.25,1.25,0.88,1.32,-0.22,-0.22,-0.22
403.72,-1.52,-1.31,-1.51,-1.30,1.30,0.93,1.40,-0.22,-0.22,-0.21
407.76,-1.56,-1.35,-1.56,-1.35,1.34,0.98,1.47,-0.21,-0.21,-0.21
411.84,-1.60,-1.39,-1.60,-1.39,1.39,1.03,1.55,-0.21,-0.21,-0.21
415.96,-1.64,-1.43,-1.64,-1.43,1.44,1.08,1.62,-0.20,-0.20,-0.20
420.12,-1.69,-1.47,-1.68,-1.47,1.48,1.12,1.70,-0.21,-0.21,-0.21
424.32,-1.73,-1.51,-1.73,-1.52,1.52,1.17,1.77,-0.21,-0.21,-0.21
428.56,-1.77,-1.57,-1.77,-1.56,1.56,1.22,1.84,-0.21,-0.21,-0.20
432.85,-1.80,-1.60,-1.80,-1.60,1.59,1.27,1.91,-0.20,-0.21,-0.20
437.18,-1.84,-1.63,-1.84,-1.63,1.63,1.32,1.98,-0.21,-0.21,-0.21
441.55,-1.87,-1.66,-1.87,-1.66,1.66,1.37,2.05,-0.20,-0.21,-0.21
445.96,-1.91,-1.70,-1.90,-1.69,1.70,1.42,2.11,-0.21,-0.20,-0.21
450.42,-1.94,-1.73,-1.94,-1.73,1.73,1.47,2.17,-0.21,-0.21,-0.21
454.93,-1.97,-1.76,-1.97,-1.76,1.76,1.52,2.23,-0.20,-0.21,-0.21
459.48,-2.01,-1.80,-2.00,-1.79,1.79,1.56,2.29,-0.21,-0.21,-0.21
464.07,-2.03,-1.83,-2.03,-1.83,1.83,1.61,2.34,-0.20,-0.20,-0.20
468.71,-2.06,-1.86,-2.06,-1.86,1.86,1.66,2.39,-0.20,-0.20,-0.19
473.40,-2.08,-1.88,-2.08,-1.89,1.88,1.71,2.44,-0.19,-0.19,-0.19
478.13,-2.11,-1.91,-2.10,-1.91,1.91,1.76,2.48,-0.20,-0.19,-0.19
