frequency,raw,error,smoothed,error_smoothed,equalization,parametric_eq,fixed_band_eq,equalized_raw,equalized_smoothed,target
20.00,-19.14,-19.39,-19.15,-19.39,6.00,5.16,2.72,-13.14,-13.15,0.25
20.20,-19.00,-19.25,-18.99,-19.24,6.00,5.20,2.79,-13.00,-12.99,0.25
20.40,-18.85,-19.10,-18.84,-19.10,6.00,5.23,2.87,-12.85,-12.84,0.25
20.61,-18.71,-18.97,-18.70,-18.96,6.00,5.26,2.95,-12.71,-12.70,0.26
20.81,-18.56,-18.82,-18.56,-18.82,6.00,5.29,3.03,-12.56,-12.56,0.26
21.02,-18.42,-18.68,-18.43,-18.69,6.00,5.32,3.12,-12.42,-12.43,0.26
21.23,-18.33,-18.59,-18.32,-18.58,6.00,5.34,3.20,-12.33,-12.32,0.26
21.44,-18.23,-18.50,-18.23,-18.49,6.00,5.37,3.30,-12.23,-12.23,0.27
21.66,-18.14,-18.41,-18.13,-18.40,6.00,5.40,3.39,-12.14,-12.13,0.27
21.87,-18.04,-18.30,-18.05,-18.32,6.00,5.43,3.48,-12.04,-12.05,0.27
22.09,-17.97,-18.23,-17.97,-18.24,6.00,5.46,3.58,-11.97,-11.97,0.27
22.31,-17.91,-18.18,-17.91,-18.18,6.00,5.48,3.68,-11.91,-11.91,0.28
22.54,-17.85,-18.12,-17.86,-18.13,6.00,5.51,3.78,-11.85,-11.86,0.27
22.76,-17.79,-18.06,-17.79,-18.07,6.00,5.54,3.89,-11.79,-11.79,0.27
22.99,-17.73,-18.00,-17.71,-17.98,6.00,5.56,4.00,-11.73,-11.71,0.27
23.22,-17.59,-17.86,-17.59,-17.87,6.00,5.59,4.11,-11.59,-11.59,0.27
23.45,-17.44,-17.71,-17.45,-17.72,6.00,5.61,4.22,-11.44,-11.45,0.27
23.69,-17.29,-17.57,-17.29,-17.56,6.00,5.64,4.34,-11.29,-11.29,0.27
23.92,-17.14,-17.42,-17.15,-17.42,6.00,5.66,4.46,-11.14,-11.15,0.28
24.16,-17.02,-17.29,-17.02,-17.30,6.00,5.68,4.58,-11.02,-11.02,0.27
24.40,-16.91,-17.18,-16.90,-17.18,6.00,5.71,4.70,-10.91,-10.90,0.27
24.65,-16.80,-17.07,-16.80,-17.06,6.00,5.73,4.82,-10.80,-10.80,0.27
24.89,-16.69,-16.95,-16.69,-16.96,6.00,5.75,4.95,-10.69,-10.69,0.26
25.14,-16.59,-16.85,-16.60,-16.86,6.00,5.77,5.08,-10.59,-10.60,0.26
25.39,-16.52,-16.77,-16.52,-16.77,6.00,5.79,5.20,-10.52,-10.52,0.25
25.65,-16.44,-16.69,-16.44,-16.69,6.00,5.81,5.33,-10.44,-10.44,0.25
25.91,-16.36,-16.60,-16.36,-16.60,6.00,5.83,5.46,-10.36,-10.36,0.24
26.16,-16.27,-16.51,-16.27,-16.50,6.00,5.85,5.59,-10.27,-10.27,0.24
26.43,-16.17,-16.40,-16.18,-16.41,6.00,5.87,5.72,-10.17,-10.18,0.23
26.69,-16.07,-16.30,-16.08,-16.30,6.00,5.89,5.85,-10.07,-10.08,0.23
26.96,-15.97,-16.20,-15.95,-16.18,6.00,5.90,5.98,-9.97,-9.95,0.23
27.23,-15.80,-16.03,-15.80,-16.02,6.00,5.92,6.10,-9.80,-9.80,0.23
27.50,-15.62,-15.84,-15.62,-15.84,6.00,5.94,6.23,-9.62,-9.62,0.22
27.77,-15.44,-15.65,-15.44,-15.66,6.00,5.95,6.34,-9.44,-9.44,0.21
28.05,-15.28,-15.50,-15.30,-15.52,6.00,5.97,6.46,-9.28,-9.30,0.22
28.33,-15.21,-15.43,-15.20,-15.43,6.00,5.98,6.57,-9.21,-9.20,0.22
28.62,-15.14,-15.36,-15.13,-15.35,6.00,5.99,6.67,-9.14,-9.13,0.22
28.90,-15.07,-15.29,-15.07,-15.29,6.00,6.00,6.77,-9.07,-9.07,0.22
29.19,-15.00,-15.22,-15.00,-15.22,6.00,6.01,6.86,-9.00,-9.00,0.22
29.48,-14.93,-15.15,-14.93,-15.15,6.00,6.02,6.95,-8.93,-8.93,0.22
29.78,-14.86,-15.08,-14.86,-15.08,6.00,6.03,7.02,-8.86,-8.86,0.22
30.08,-14.78,-14.99,-14.77,-14.98,6.00,6.04,7.09,-8.78,-8.77,0.21
30.38,-14.67,-14.88,-14.67,-14.88,6.00,6.05,7.15,-8.67,-8.67,0.21
30.68,-14.55,-14.76,-14.56,-14.76,6.00,6.06,7.20,-8.55,-8.56,0.20
30.99,-14.44,-14.64,-14.44,-14.64,6.00,6.06,7.24,-8.44,-8.44,0.19
31.30,-14.34,-14.53,-14.35,-14.54,6.00,6.07,7.27,-8.34,-8.35,0.19
31.61,-14.25,-14.43,-14.25,-14.43,6.00,6.07,7.29,-8.25,-8.25,0.18
31.93,-14.15,-14.33,-14.14,-14.32,6.00,6.08,7.30,-8.15,-8.14,0.18
32.24,-14.02,-14.19,-14.02,-14.18,6.00,6.08,7.30,-8.02,-8.02,0.17
32.57,-13.88,-14.04,-13.88,-14.04,6.00,6.08,7.30,-7.88,-7.88,0.16
32.89,-13.75,-13.90,-13.75,-13.91,6.00,6.08,7.28,-7.75,-7.75,0.16
33.22,-13.64,-13.79,-13.65,-13.80,6.00,6.08,7.26,-7.64,-7.65,0.15
33.55,-13.56,-13.70,-13.56,-13.70,6.00,6.08,7.23,-7.56,-7.56,0.14
33.89,-13.48,-13.61,-13.48,-13.61,6.00,6.08,7.19,-7.48,-7.48,0.13
34.23,-13.40,-13.53,-13.41,-13.53,6.00,6.07,7.14,-7.40,-7.41,0.13
34.57,-13.32,-13.44,-13.33,-13.45,6.00,6.07,7.10,-7.32,-7.33,0.12
34.92,-13.24,-13.36,-13.22,-13.34,6.00,6.06,7.04,-7.24,-7.22,0.12
35.27,-13.10,-13.22,-13.09,-13.20,6.00,6.05,6.99,-7.10,-7.09,0.11
35.62,-12.94,-13.05,-12.94,-13.05,6.00,6.04,6.93,-6.94,-6.94,0.11
35.97,-12.78,-12.88,-12.80,-12.90,6.00,6.04,6.87,-6.78,-6.80,0.10
36.33,-12.68,-12.78,-12.68,-12.78,6.00,6.03,6.80,-6.68,-6.68,0.10
36.70,-12.59,-12.69,-12.58,-12.67,6.00,6.01,6.74,-6.59,-6.58,0.10
37.06,-12.50,-12.59,-12.50,-12.60,6.00,6.00,6.68,-6.50,-6.50,0.09
37.43,-12.42,-12.51,-12.42,-12.52,6.00,5.99,6.61,-6.42,-6.42,0.09
37.81,-12.35,-12.45,-12.35,-12.44,6.00,5.98,6.55,-6.35,-6.35,0.10
38.19,-12.27,-12.37,-12.26,-12.35,6.00,5.96,6.49,-6.27,-6.26,0.10
38.57,-12.18,-12.27,-12.18,-12.27,6.00,5.95,6.43,-6.18,-6.18,0.09
38.95,-12.09,-12.18,-12.12,-12.21,6.00,5.93,6.38,-6.09,-6.12,0.09
39.34,-12.08,-12.17,-12.09,-12.17,6.00,5.92,6.33,-6.08,-6.09,0.09
39.74,-12.08,-12.16,-12.07,-12.15,6.00,5.90,6.28,-6.08,-6.07,0.08
40.14,-12.05,-12.13,-12.04,-12.12,6.00,5.88,6.23,-6.05,-6.04,0.08
40.54,-11.96,-12.04,-11.97,-12.04,6.00,5.87,6.19,-5.96,-5.97,0.08
40.94,-11.86,-11.93,-11.85,-11.92,6.00,5.85,6.15,-5.86,-5.85,0.07
41.35,-11.71,-11.77,-11.70,-11.76,6.00,5.84,6.11,-5.71,-5.70,0.06
41.76,-11.54,-11.58,-11.55,-11.60,6.00,5.83,6.08,-5.54,-5.55,0.05
42.18,-11.40,-11.43,-11.41,-11.45,6.00,5.81,6.05,-5.40,-5.41,0.03
42.60,-11.28,-11.30,-11.28,-11.30,6.00,5.80,6.03,-5.28,-5.28,0.02
43.03,-11.16,-11.16,-11.12,-11.12,6.00,5.79,6.01,-5.16,-5.12,0.00
43.46,-10.96,-10.94,-10.95,-10.94,6.00,5.79,6.00,-4.96,-4.95,-0.02
43.90,-10.76,-10.73,-10.82,-10.78,6.00,5.78,5.99,-4.76,-4.82,-0.03
44.33,-10.71,-10.66,-10.73,-10.68,6.00,5.77,5.99,-4.71,-4.73,-0.05
44.78,-10.71,-10.65,-10.68,-10.61,6.00,5.77,5.99,-4.71,-4.68,-0.06
45.23,-10.64,-10.56,-10.63,-10.55,6.00,5.77,5.99,-4.64,-4.63,-0.08
45.68,-10.51,-10.42,-10.52,-10.42,6.00,5.77,6.00,-4.51,-4.52,-0.09
46.13,-10.37,-10.27,-10.35,-10.25,6.00,5.77,6.02,-4.37,-4.35,-0.10
46.60,-10.19,-10.09,-10.19,-10.08,6.00,5.78,6.03,-4.19,-4.19,-0.11
47.06,-10.03,-9.92,-10.08,-9.97,6.00,5.78,6.06,-4.03,-4.08,-0.11
47.53,-10.03,-9.91,-10.02,-9.91,6.00,5.79,6.08,-4.03,-4.02,-0.12
48.01,-10.03,-9.92,-10.03,-9.91,6.00,5.79,6.11,-4.03,-4.03,-0.11
48.49,-10.03,-9.92,-10.03,-9.92,6.00,5.80,6.15,-4.03,-4.03,-0.11
48.97,-10.03,-9.92,-9.99,-9.88,6.00,5.81,6.18,-4.03,-3.99,-0.11
49.46,-9.92,-9.81,-9.92,-9.81,6.00,5.82,6.23,-3.92,-3.92,-0.11
49.96,-9.81,-9.71,-9.85,-9.75,6.00,5.83,6.27,-3.81,-3.85,-0.10
50.46,-9.82,-9.73,-9.82,-9.72,6.00,5.84,6.32,-3.82,-3.82,-0.09
50.96,-9.85,-9.76,-9.85,-9.76,6.00,5.85,6.37,-3.85,-3.85,-0.09
51.47,-9.94,-9.85,-9.94,-9.85,6.00,5.86,6.42,-3.94,-3.94,-0.09
51.99,-10.03,-9.93,-10.06,-9.97,6.00,5.87,6.47,-4.03,-4.06,-0.09
52.51,-10.15,-10.05,-10.16,-10.05,6.00,5.87,6.52,-4.15,-4.16,-0.10
53.03,-10.25,-10.14,-10.15,-10.04,6.00,5.88,6.58,-4.25,-4.15,-0.11
53.56,-10.03,-9.91,-10.05,-9.93,6.00,5.89,6.63,-4.03,-4.05,-0.12
54.10,-9.82,-9.69,-9.88,-9.74,6.00,5.90,6.69,-3.82,-3.88,-0.13
54.64,-9.67,-9.52,-9.66,-9.51,6.00,5.90,6.74,-3.67,-3.66,-0.15
55.18,-9.49,-9.32,-9.47,-9.29,6.00,5.91,6.79,-3.49,-3.47,-0.17
55.74,-9.24,-9.05,-9.23,-9.04,6.00,5.91,6.84,-3.24,-3.23,-0.19
56.29,-8.98,-8.75,-8.98,-8.76,6.00,5.91,6.88,-2.98,-2.98,-0.22
56.86,-8.72,-8.48,-8.75,-8.50,6.00,5.92,6.92,-2.72,-2.75,-0.25
57.42,-8.56,-8.28,-8.57,-8.29,6.00,5.92,6.96,-2.56,-2.57,-0.28
58.00,-8.43,-8.12,-8.43,-8.12,6.00,5.92,6.99,-2.43,-2.43,-0.31
58.58,-8.30,-7.96,-8.28,-7.94,6.00,5.92,7.01,-2.30,-2.28,-0.34
59.16,-8.13,-7.75,-8.10,-7.72,6.00,5.92,7.03,-2.13,-2.10,-0.38
59.76,-7.87,-7.46,-7.89,-7.48,6.00,5.92,7.04,-1.87,-1.89,-0.41
60.35,-7.67,-7.23,-7.69,-7.25,6.00,5.91,7.04,-1.67,-1.69,-0.44
60.96,-7.53,-7.05,-7.52,-7.05,6.00,5.91,7.03,-1.53,-1.52,-0.48
61.57,-7.39,-6.89,-7.38,-6.87,6.00,5.91,7.02,-1.39,-1.38,-0.50
62.18,-7.25,-6.71,-7.25,-6.71,6.00,5.90,6.99,-1.25,-1.25,-0.54
62.80,-7.11,-6.53,-7.13,-6.55,6.00,5.90,6.96,-1.11,-1.13,-0.57
63.43,-7.03,-6.42,-7.03,-6.42,6.00,5.90,6.91,-1.03,-1.03,-0.61
64.07,-6.96,-6.31,-6.95,-6.30,6.00,5.89,6.86,-0.96,-0.95,-0.65
64.71,-6.88,-6.19,-6.89,-6.20,6.00,5.89,6.80,-0.88,-0.89,-0.69
65.35,-6.84,-6.12,-6.84,-6.12,6.00,5.88,6.73,-0.84,-0.84,-0.72
66.01,-6.84,-6.09,-6.82,-6.07,6.00,5.88,6.65,-0.84,-0.82,-0.75
66.67,-6.84,-6.06,-6.86,-6.08,6.00,5.87,6.56,-0.84,-0.86,-0.78
67.33,-6.95,-6.15,-6.97,-6.16,6.00,5.87,6.46,-0.95,-0.97,-0.80
68.01,-7.16,-6.33,-7.16,-6.33,6.00,5.87,6.36,-1.16,-1.16,-0.83
68.69,-7.44,-6.59,-7.44,-6.59,6.00,5.86,6.25,-1.44,-1.44,-0.85
69.37,-7.77,-6.91,-7.79,-6.93,6.00,5.86,6.14,-1.77,-1.79,-0.86
70.07,-8.17,-7.29,-8.18,-7.31,6.00,5.86,6.02,-2.17,-2.18,-0.87
70.77,-8.60,-7.71,-8.57,-7.68,6.00,5.85,5.90,-2.60,-2.57,-0.89
71.48,-8.92,-8.02,-8.92,-8.02,6.00,5.85,5.77,-2.92,-2.92,-0.90
72.19,-9.16,-8.25,-9.16,-8.25,6.00,5.85,5.65,-3.16,-3.16,-0.91
72.91,-9.32,-8.40,-9.29,-8.37,6.00,5.84,5.52,-3.32,-3.29,-0.92
73.64,-9.34,-8.41,-9.36,-8.43,6.00,5.84,5.38,-3.34,-3.36,-0.93
74.38,-9.34,-8.39,-9.37,-8.42,6.00,5.84,5.25,-3.34,-3.37,-0.95
75.12,-9.32,-8.36,-9.28,-8.32,6.00,5.83,5.11,-3.32,-3.28,-0.96
75.87,-9.17,-8.18,-9.12,-8.13,6.00,5.83,4.98,-3.17,-3.12,-0.99
76.63,-8.87,-7.86,-8.92,-7.91,6.00,5.82,4.85,-2.87,-2.92,-1.01
77.40,-8.67,-7.64,-8.72,-7.69,6.00,5.81,4.71,-2.67,-2.72,-1.03
78.17,-8.57,-7.53,-8.55,-7.51,6.01,5.80,4.58,-2.56,-2.55,-1.04
78.95,-8.44,-7.37,-8.41,-7.34,6.03,5.78,4.45,-2.41,-2.38,-1.07
79.74,-8.23,-7.14,-8.22,-7.13,6.04,5.76,4.32,-2.19,-2.18,-1.09
80.54,-7.98,-6.87,-8.01,-6.90,6.04,5.73,4.19,-1.94,-1.97,-1.11
81.35,-7.76,-6.63,-7.75,-6.61,6.02,5.69,4.06,-1.74,-1.72,-1.13
82.16,-7.55,-6.39,-7.50,-6.35,5.98,5.65,3.93,-1.57,-1.53,-1.15
82.98,-7.20,-6.02,-7.28,-6.11,5.89,5.59,3.81,-1.31,-1.39,-1.18
83.81,-7.09,-5.90,-7.07,-5.87,5.77,5.53,3.69,-1.32,-1.30,-1.19
84.65,-6.89,-5.68,-6.86,-5.65,5.60,5.45,3.57,-1.29,-1.26,-1.21
85.50,-6.64,-5.42,-6.67,-5.44,5.40,5.36,3.45,-1.24,-1.26,-1.23
86.35,-6.41,-5.17,-6.41,-5.17,5.18,5.26,3.34,-1.22,-1.22,-1.24
87.22,-6.19,-4.94,-6.15,-4.90,4.95,5.14,3.22,-1.24,-1.20,-1.25
88.09,-5.86,-4.59,-5.91,-4.64,4.72,5.01,3.11,-1.14,-1.19,-1.27
88.97,-5.71,-4.43,-5.71,-4.42,4.49,4.87,3.00,-1.22,-1.22,-1.28
89.86,-5.54,-4.23,-5.55,-4.25,4.29,4.72,2.90,-1.25,-1.27,-1.31
90.76,-5.46,-4.13,-5.44,-4.12,4.10,4.55,2.79,-1.37,-1.35,-1.33
91.66,-5.31,-3.97,-5.30,-3.96,3.92,4.37,2.69,-1.39,-1.39,-1.34
92.58,-5.16,-3.80,-5.15,-3.79,3.76,4.19,2.59,-1.40,-1.39,-1.36
93.51,-4.97,-3.59,-4.98,-3.60,3.60,3.99,2.49,-1.37,-1.38,-1.38
94.44,-4.80,-3.41,-4.82,-3.42,3.44,3.79,2.40,-1.36,-1.38,-1.39
95.39,-4.69,-3.28,-4.67,-3.26,3.26,3.58,2.31,-1.43,-1.40,-1.41
96.34,-4.52,-3.09,-4.54,-3.11,3.09,3.37,2.22,-1.43,-1.45,-1.43
97.30,-4.41,-2.96,-4.41,-2.96,2.93,3.16,2.13,-1.48,-1.48,-1.45
98.28,-4.28,-2.81,-4.23,-2.77,2.77,2.96,2.04,-1.51,-1.46,-1.47
99.26,-4.07,-2.58,-4.07,-2.59,2.63,2.76,1.95,-1.44,-1.45,-1.49
100.25,-3.88,-2.37,-3.95,-2.44,2.49,2.56,1.87,-1.39,-1.46,-1.51
101.25,-3.87,-2.34,-3.86,-2.32,2.35,2.38,1.79,-1.52,-1.51,-1.53
102.27,-3.84,-2.28,-3.80,-2.24,2.21,2.21,1.71,-1.63,-1.59,-1.56
103.29,-3.73,-2.14,-3.72,-2.13,2.08,2.05,1.64,-1.65,-1.65,-1.59
104.32,-3.60,-1.97,-3.61,-1.98,1.95,1.90,1.56,-1.65,-1.66,-1.63
105.37,-3.48,-1.81,-3.50,-1.83,1.83,1.77,1.49,-1.65,-1.67,-1.67
106.42,-3.42,-1.71,-3.40,-1.68,1.71,1.65,1.42,-1.71,-1.69,-1.71
107.48,-3.32,-1.56,-3.31,-1.54,1.58,1.54,1.35,-1.74,-1.73,-1.76
108.56,-3.20,-1.38,-3.25,-1.44,1.44,1.44,1.28,-1.76,-1.81,-1.82
109.64,-3.19,-1.32,-3.18,-1.31,1.31,1.35,1.22,-1.88,-1.87,-1.87
110.74,-3.18,-1.26,-3.11,-1.19,1.18,1.26,1.15,-2.00,-1.93,-1.92
111.85,-2.99,-1.02,-3.06,-1.09,1.05,1.18,1.09,-1.94,-2.00,-1.97
112.97,-2.96,-0.93,-2.96,-0.93,0.93,1.10,1.03,-2.03,-2.03,-2.03
114.10,-2.92,-0.85,-2.86,-0.79,0.80,1.01,0.98,-2.12,-2.06,-2.07
115.24,-2.74,-0.62,-2.81,-0.69,0.68,0.93,0.92,-2.06,-2.14,-2.12
116.39,-2.74,-0.57,-2.74,-0.56,0.56,0.84,0.87,-2.18,-2.18,-2.17
117.55,-2.72,-0.50,-2.65,-0.44,0.45,0.76,0.82,-2.27,-2.21,-2.22
118.73,-2.56,-0.30,-2.60,-0.34,0.35,0.67,0.77,-2.21,-2.25,-2.26
119.92,-2.51,-0.22,-2.53,-0.24,0.27,0.58,0.73,-2.24,-2.26,-2.29
121.12,-2.51,-0.18,-2.50,-0.17,0.20,0.49,0.68,-2.31,-2.29,-2.33
122.33,-2.51,-0.14,-2.51,-0.14,0.15,0.40,0.64,-2.36,-2.36,-2.37
123.55,-2.51,-0.12,-2.51,-0.11,0.10,0.31,0.61,-2.41,-2.41,-2.39
124.79,-2.51,-0.08,-2.51,-0.09,0.07,0.21,0.57,-2.44,-2.44,-2.43
126.03,-2.51,-0.06,-2.51,-0.06,0.05,0.12,0.54,-2.46,-2.46,-2.45
127.29,-2.51,-0.03,-2.51,-0.03,0.02,0.04,0.51,-2.49,-2.49,-2.48
128.57,-2.51,0.00,-2.51,-0.00,0.00,-0.05,0.48,-2.51,-2.51,-2.51
129.85,-2.51,0.02,-2.51,0.02,-0.02,-0.14,0.45,-2.53,-2.53,-2.53
131.15,-2.51,0.05,-2.51,0.05,-0.05,-0.22,0.42,-2.56,-2.56,-2.56
132.46,-2.51,0.08,-2.51,0.08,-0.08,-0.29,0.40,-2.59,-2.59,-2.59
133.79,-2.51,0.11,-2.51,0.11,-0.11,-0.36,0.38,-2.62,-2.62,-2.62
135.12,-2.51,0.13,-2.51,0.14,-0.13,-0.43,0.36,-2.64,-2.64,-2.64
136.48,-2.51,0.16,-2.51,0.16,-0.16,-0.49,0.34,-2.67,-2.67,-2.67
137.84,-2.51,0.19,-2.51,0.19,-0.19,-0.54,0.33,-2.70,-2.70,-2.70
139.22,-2.51,0.21,-2.51,0.22,-0.22,-0.59,0.31,-2.73,-2.73,-2.72
140.61,-2.51,0.24,-2.51,0.24,-0.24,-0.64,0.30,-2.75,-2.75,-2.75
142.02,-2.51,0.27,-2.51,0.27,-0.27,-0.67,0.29,-2.78,-2.78,-2.78
143.44,-2.51,0.30,-2.51,0.30,-0.30,-0.70,0.28,-2.81,-2.81,-2.81
144.87,-2.51,0.33,-2.51,0.33,-0.33,-0.72,0.27,-2.84,-2.84,-2.84
146.32,-2.51,0.36,-2.51,0.36,-0.37,-0.74,0.26,-2.88,-2.88,-2.87
147.78,-2.51,0.40,-2.51,0.40,-0.41,-0.74,0.25,-2.92,-2.92,-2.91
149.26,-2.51,0.44,-2.51,0.44,-0.46,-0.75,0.25,-2.97,-2.97,-2.95
150.75,-2.51,0.48,-2.51,0.48,-0.50,-0.74,0.24,-3.01,-3.01,-2.99
152.26,-2.51,0.52,-2.51,0.53,-0.54,-0.73,0.24,-3.05,-3.05,-3.03
153.78,-2.51,0.58,-2.50,0.59,-0.57,-0.72,0.23,-3.08,-3.06,-3.09
155.32,-2.51,0.63,-2.52,0.62,-0.58,-0.70,0.23,-3.09,-3.10,-3.14
156.88,-2.53,0.66,-2.58,0.62,-0.59,-0.67,0.23,-3.12,-3.16,-3.19
158.44,-2.68,0.56,-2.64,0.60,-0.58,-0.65,0.22,-3.26,-3.22,-3.24
160.03,-2.74,0.54,-2.71,0.57,-0.57,-0.62,0.22,-3.31,-3.28,-3.28
161.63,-2.74,0.58,-2.80,0.51,-0.55,-0.58,0.22,-3.29,-3.35,-3.32
163.24,-2.88,0.47,-2.87,0.48,-0.51,-0.55,0.22,-3.40,-3.38,-3.35
164.88,-2.96,0.42,-2.92,0.46,-0.47,-0.51,0.22,-3.43,-3.39,-3.38
166.53,-2.96,0.44,-2.96,0.44,-0.43,-0.47,0.21,-3.39,-3.39,-3.40
168.19,-2.96,0.46,-2.99,0.43,-0.39,-0.42,0.21,-3.35,-3.38,-3.42
169.87,-3.01,0.41,-3.04,0.38,-0.35,-0.38,0.21,-3.36,-3.39,-3.42
171.57,-3.15,0.27,-3.11,0.31,-0.32,-0.34,0.21,-3.47,-3.43,-3.42
173.29,-3.19,0.23,-3.17,0.25,-0.29,-0.30,0.21,-3.48,-3.47,-3.42
175.02,-3.19,0.23,-3.20,0.21,-0.27,-0.25,0.21,-3.46,-3.47,-3.42
176.77,-3.19,0.21,-3.19,0.21,-0.23,-0.21,0.21,-3.42,-3.43,-3.40
178.54,-3.19,0.20,-3.18,0.21,-0.19,-0.17,0.21,-3.38,-3.37,-3.39
180.32,-3.19,0.18,-3.18,0.19,-0.14,-0.13,0.21,-3.33,-3.32,-3.37
182.13,-3.19,0.17,-3.23,0.14,-0.08,-0.09,0.21,-3.27,-3.31,-3.36
183.95,-3.28,0.07,-3.28,0.07,-0.02,-0.05,0.21,-3.30,-3.30,-3.35
185.79,-3.41,-0.06,-3.37,-0.03,0.04,-0.01,0.21,-3.37,-3.33,-3.35
187.65,-3.42,-0.08,-3.48,-0.14,0.11,0.03,0.21,-3.31,-3.37,-3.34
189.52,-3.60,-0.26,-3.57,-0.23,0.18,0.06,0.21,-3.42,-3.39,-3.34
191.42,-3.65,-0.31,-3.63,-0.28,0.23,0.10,0.21,-3.42,-3.39,-3.34
193.33,-3.65,-0.29,-3.66,-0.31,0.27,0.13,0.21,-3.38,-3.39,-3.36
195.27,-3.65,-0.29,-3.65,-0.30,0.30,0.16,0.21,-3.35,-3.36,-3.36
197.22,-3.65,-0.29,-3.65,-0.29,0.31,0.19,0.21,-3.34,-3.34,-3.36
199.19,-3.65,-0.28,-3.65,-0.28,0.30,0.21,0.21,-3.35,-3.35,-3.37
201.18,-3.65,-0.27,-3.65,-0.27,0.28,0.24,0.21,-3.37,-3.37,-3.38
203.19,-3.65,-0.26,-3.65,-0.26,0.25,0.26,0.21,-3.40,-3.40,-3.39
205.23,-3.65,-0.25,-3.65,-0.25,0.22,0.29,0.21,-3.43,-3.43,-3.40
207.28,-3.65,-0.23,-3.65,-0.23,0.21,0.31,0.21,-3.44,-3.44,-3.42
209.35,-3.65,-0.21,-3.65,-0.21,0.21,0.33,0.20,-3.44,-3.44,-3.44
211.44,-3.65,-0.20,-3.63,-0.18,0.22,0.35,0.20,-3.43,-3.41,-3.45
213.56,-3.65,-0.18,-3.65,-0.18,0.25,0.36,0.20,-3.40,-3.40,-3.47
215.69,-3.65,-0.18,-3.71,-0.23,0.28,0.38,0.20,-3.37,-3.43,-3.48
217.85,-3.85,-0.36,-3.82,-0.33,0.33,0.39,0.20,-3.52,-3.49,-3.49
220.03,-3.96,-0.46,-3.95,-0.45,0.40,0.40,0.20,-3.56,-3.55,-3.50
222.23,-4.07,-0.55,-4.04,-0.53,0.49,0.41,0.20,-3.58,-3.55,-3.52
224.45,-4.10,-0.57,-4.08,-0.55,0.59,0.42,0.19,-3.51,-3.50,-3.53
226.70,-4.10,-0.56,-4.17,-0.63,0.69,0.43,0.19,-3.41,-3.48,-3.54
228.96,-4.26,-0.71,-4.29,-0.74,0.78,0.43,0.19,-3.48,-3.51,-3.55
231.25,-4.49,-0.92,-4.43,-0.87,0.86,0.44,0.19,-3.63,-3.57,-3.57
233.57,-4.56,-0.99,-4.54,-0.97,0.92,0.44,0.18,-3.64,-3.62,-3.57
235.90,-4.56,-0.98,-4.58,-1.00,0.95,0.44,0.18,-3.61,-3.63,-3.58
238.26,-4.56,-0.97,-4.58,-0.99,0.96,0.45,0.18,-3.60,-3.62,-3.59
240.64,-4.56,-0.96,-4.56,-0.96,0.94,0.45,0.17,-3.62,-3.62,-3.60
243.05,-4.56,-0.96,-4.52,-0.92,0.89,0.44,0.17,-3.67,-3.64,-3.60
245.48,-4.40,-0.79,-4.43,-0.82,0.80,0.44,0.16,-3.60,-3.63,-3.61
247.93,-4.33,-0.72,-4.31,-0.69,0.68,0.44,0.16,-3.64,-3.62,-3.61
250.41,-4.14,-0.52,-4.16,-0.54,0.56,0.43,0.15,-3.58,-3.60,-3.62
252.92,-4.06,-0.44,-4.05,-0.42,0.44,0.43,0.14,-3.62,-3.61,-3.62
255.45,-3.90,-0.27,-3.93,-0.30,0.32,0.42,0.14,-3.58,-3.61,-3.63
258.00,-3.87,-0.24,-3.83,-0.20,0.22,0.41,0.13,-3.65,-3.61,-3.63
260.58,-3.73,-0.09,-3.74,-0.10,0.12,0.40,0.12,-3.61,-3.62,-3.64
263.19,-3.66,-0.01,-3.68,-0.04,0.05,0.39,0.12,-3.61,-3.63,-3.65
265.82,-3.65,0.00,-3.64,0.01,0.00,0.38,0.11,-3.65,-3.64,-3.65
268.48,-3.65,0.01,-3.64,0.02,-0.03,0.36,0.10,-3.68,-3.67,-3.66
271.16,-3.65,0.02,-3.65,0.02,-0.03,0.35,0.09,-3.68,-3.68,-3.67
273.87,-3.65,0.02,-3.63,0.04,-0.02,0.33,0.08,-3.67,-3.65,-3.67
276.61,-3.65,0.03,-3.65,0.03,0.01,0.31,0.07,-3.64,-3.65,-3.68
279.38,-3.65,0.04,-3.71,-0.02,0.04,0.29,0.06,-3.61,-3.67,-3.69
282.17,-3.81,-0.12,-3.78,-0.08,0.08,0.27,0.05,-3.73,-3.70,-3.69
284.99,-3.87,-0.17,-3.84,-0.14,0.12,0.25,0.04,-3.75,-3.73,-3.70
287.84,-3.87,-0.17,-3.88,-0.18,0.15,0.23,0.03,-3.72,-3.74,-3.70
290.72,-3.87,-0.17,-3.88,-0.17,0.16,0.20,0.02,-3.71,-3.71,-3.70
293.63,-3.87,-0.16,-3.87,-0.17,0.16,0.17,0.01,-3.71,-3.71,-3.71
296.57,-3.87,-0.16,-3.89,-0.18,0.15,0.14,-0.00,-3.72,-3.74,-3.71
299.53,-3.87,-0.16,-3.86,-0.15,0.12,0.11,-0.02,-3.75,-3.74,-3.71
302.53,-3.87,-0.15,-3.81,-0.09,0.08,0.07,-0.03,-3.79,-3.72,-3.72
305.55,-3.68,0.04,-3.73,-0.01,0.04,0.04,-0.04,-3.64,-3.69,-3.72
308.61,-3.65,0.08,-3.67,0.06,-0.01,-0.00,-0.05,-3.66,-3.68,-3.73
311.69,-3.65,0.09,-3.63,0.10,-0.06,-0.05,-0.06,-3.71,-3.69,-3.74
314.81,-3.65,0.10,-3.66,0.09,-0.11,-0.09,-0.08,-3.76,-3.78,-3.75
317.96,-3.65,0.11,-3.64,0.12,-0.17,-0.14,-0.09,-3.82,-3.81,-3.76
321.14,-3.64,0.14,-3.58,0.20,-0.22,-0.20,-0.10,-3.86,-3.81,-3.78
324.35,-3.47,0.33,-3.51,0.29,-0.28,-0.25,-0.11,-3.75,-3.79,-3.80
327.59,-3.42,0.39,-3.46,0.35,-0.34,-0.31,-0.13,-3.76,-3.80,-3.81
330.87,-3.42,0.40,-3.41,0.41,-0.41,-0.37,-0.14,-3.83,-3.82,-3.82
334.18,-3.42,0.41,-3.37,0.46,-0.48,-0.43,-0.15,-3.90,-3.85,-3.83
337.52,-3.29,0.55,-3.31,0.53,-0.54,-0.49,-0.17,-3.83,-3.85,-3.84
340.90,-3.21,0.63,-3.24,0.61,-0.59,-0.55,-0.18,-3.80,-3.83,-3.84
344.30,-3.19,0.67,-3.19,0.66,-0.63,-0.60,-0.19,-3.82,-3.81,-3.86
347.75,-3.19,0.67,-3.18,0.67,-0.65,-0.65,-0.21,-3.84,-3.83,-3.86
351.23,-3.19,0.67,-3.19,0.67,-0.67,-0.69,-0.22,-3.86,-3.86,-3.86
354.74,-3.19,0.67,-3.19,0.67,-0.68,-0.72,-0.24,-3.87,-3.87,-3.86
358.28,-3.19,0.67,-3.19,0.67,-0.68,-0.74,-0.25,-3.87,-3.87,-3.86
361.87,-3.19,0.66,-3.19,0.66,-0.68,-0.75,-0.27,-3.87,-3.87,-3.85
365.49,-3.19,0.66,-3.19,0.66,-0.67,-0.75,-0.28,-3.86,-3.86,-3.85
369.14,-3.19,0.66,-3.19,0.66,-0.66,-0.74,-0.30,-3.85,-3.85,-3.85
372.83,-3.19,0.66,-3.19,0.66,-0.66,-0.73,-0.31,-3.85,-3.85,-3.85
376.56,-3.19,0.66,-3.19,0.66,-0.66,-0.71,-0.33,-3.85,-3.85,-3.85
380.33,-3.19,0.66,-3.19,0.66,-0.66,-0.69,-0.34,-3.85,-3.85,-3.85
384.13,-3.19,0.66,-3.19,0.66,-0.66,-0.66,-0.36,-3.85,-3.85,-3.85
387.97,-3.19,0.66,-3.19,0.66,-0.66,-0.64,-0.37,-3.85,-3.85,-3.85
391.85,-3.19,0.66,-3.19,0.66,-0.66,-0.61,-0.39,-3.85,-3.85,-3.85
395.77,-3.19,0.66,-3.19,0.66,-0.66,-0.59,-0.40,-3.85,-3.85,-3.85
399.73,-3.19,0.65,-3.19,0.65,-0.65,-0.57,-0.42,-3.84,-3.84,-3.84
403.72,-3.19,0.65,-3.19,0.65,-0.65,-0.56,-0.44,-3.84,-3.84,-3.84
407.76,-3.19,0.65,-3.19,0.65,-0.64,-0.54,-0.45,-3.83,-3.83,-3.84
411.84,-3.19,0.65,-3.19,0.65,-0.64,-0.53,-0.47,-3.83,-3.83,-3.84
415.96,-3.19,0.65,-3.19,0.65,-0.65,-0.53,-0.49,-3.84,-3.84,-3.84
420.12,-3.19,0.65,-3.19,0.65,-0.66,-0.52,-0.51,-3.85,-3.85,-3.84
