frequency,raw,error,smoothed,error_smoothed,equalization,parametric_eq,fixed_band_eq,equalized_raw,equalized_smoothed,target
20.00,4.80,-2.39,4.80,-2.39,2.39,2.20,0.89,7.19,7.18,7.19
20.20,4.81,-2.36,4.81,-2.36,2.36,2.20,0.92,7.17,7.17,7.17
20.40,4.82,-2.34,4.82,-2.34,2.34,2.20,0.95,7.16,7.16,7.16
20.61,4.84,-2.32,4.84,-2.32,2.32,2.20,0.97,7.16,7.15,7.16
20.81,4.85,-2.29,4.85,-2.29,2.30,2.20,1.00,7.15,7.15,7.14
21.02,4.86,-2.27,4.86,-2.27,2.28,2.20,1.03,7.14,7.14,7.13
21.23,4.87,-2.25,4.87,-2.25,2.26,2.20,1.07,7.13,7.13,7.12
21.44,4.88,-2.25,4.88,-2.24,2.24,2.19,1.10,7.12,7.12,7.13
21.66,4.89,-2.23,4.89,-2.23,2.22,2.19,1.13,7.11,7.11,7.12
21.87,4.90,-2.21,4.90,-2.21,2.20,2.19,1.17,7.10,7.10,7.11
22.09,4.91,-2.19,4.91,-2.19,2.19,2.19,1.20,7.10,7.10,7.10
22.31,4.93,-2.17,4.93,-2.17,2.17,2.18,1.24,7.10,7.10,7.10
22.54,4.94,-2.15,4.94,-2.15,2.15,2.18,1.28,7.09,7.09,7.09
22.76,4.95,-2.15,4.95,-2.14,2.14,2.18,1.31,7.09,7.09,7.10
22.99,4.96,-2.13,4.96,-2.12,2.12,2.17,1.35,7.08,7.08,7.09
23.22,4.97,-2.10,4.97,-2.11,2.11,2.17,1.39,7.08,7.08,7.07
23.45,4.98,-2.09,4.98,-2.09,2.09,2.16,1.43,7.07,7.07,7.07
23.69,4.99,-2.08,4.99,-2.08,2.08,2.16,1.48,7.07,7.08,7.07
23.92,5.01,-2.06,5.01,-2.07,2.07,2.15,1.52,7.08,7.08,7.07
24.16,5.02,-2.05,5.02,-2.06,2.06,2.14,1.56,7.08,7.08,7.07
24.40,5.03,-2.05,5.03,-2.05,2.04,2.14,1.61,7.08,7.08,7.08
24.65,5.04,-2.04,5.04,-2.04,2.03,2.13,1.65,7.07,7.07,7.08
24.89,5.05,-2.02,5.05,-2.03,2.02,2.12,1.70,7.07,7.07,7.07
25.14,5.05,-2.01,5.05,-2.01,2.01,2.12,1.74,7.06,7.06,7.06
25.39,5.06,-2.00,5.06,-1.99,2.00,2.11,1.79,7.06,7.06,7.06
25.65,5.07,-1.98,5.07,-1.98,1.99,2.10,1.83,7.06,7.06,7.05
25.91,5.08,-1.97,5.08,-1.97,1.97,2.09,1.88,7.05,7.05,7.05
26.16,5.09,-1.97,5.09,-1.96,1.96,2.09,1.92,7.05,7.05,7.06
26.43,5.09,-1.96,5.09,-1.96,1.95,2.08,1.97,7.04,7.04,7.05
26.69,5.10,-1.94,5.10,-1.94,1.94,2.07,2.01,7.04,7.04,7.04
26.96,5.11,-1.93,5.11,-1.93,1.93,2.06,2.05,7.04,7.04,7.04
27.23,5.12,-1.91,5.12,-1.92,1.92,2.05,2.09,7.04,7.04,7.03
27.50,5.13,-1.90,5.13,-1.91,1.91,2.04,2.13,7.04,7.04,7.03
27.77,5.13,-1.91,5.13,-1.90,1.90,2.03,2.17,7.03,7.04,7.04
28.05,5.14,-1.90,5.14,-1.90,1.89,2.02,2.21,7.03,7.03,7.04
28.33,5.15,-1.89,5.15,-1.89,1.89,2.01,2.24,7.04,7.04,7.04
28.62,5.16,-1.88,5.16,-1.88,1.88,1.99,2.27,7.04,7.04,7.04
28.90,5.17,-1.87,5.17,-1.88,1.88,1.98,2.30,7.05,7.04,7.04
29.19,5.17,-1.87,5.17,-1.87,1.87,1.97,2.33,7.04,7.05,7.04
29.48,5.17,-1.87,5.17,-1.87,1.87,1.96,2.35,7.04,7.04,7.04
29.78,5.18,-1.86,5.18,-1.87,1.87,1.94,2.37,7.05,7.04,7.04
30.08,5.18,-1.88,5.18,-1.87,1.86,1.93,2.39,7.04,7.04,7.06
30.38,5.19,-1.86,5.19,-1.86,1.86,1.92,2.40,7.05,7.05,7.05
30.68,5.19,-1.86,5.19,-1.86,1.85,1.90,2.41,7.04,7.04,7.05
30.99,5.20,-1.84,5.20,-1.85,1.85,1.89,2.42,7.05,7.04,7.04
31.30,5.20,-1.84,5.20,-1.84,1.84,1.88,2.42,7.04,7.04,7.04
31.61,5.21,-1.83,5.21,-1.83,1.83,1.86,2.41,7.04,7.03,7.04
31.93,5.21,-1.82,5.21,-1.82,1.82,1.85,2.41,7.03,7.03,7.03
32.24,5.21,-1.82,5.21,-1.81,1.81,1.83,2.40,7.02,7.02,7.03
32.57,5.22,-1.79,5.22,-1.80,1.80,1.82,2.38,7.02,7.02,7.01
32.89,5.22,-1.79,5.22,-1.79,1.80,1.80,2.36,7.02,7.02,7.01
33.22,5.22,-1.79,5.22,-1.79,1.79,1.78,2.34,7.01,7.01,7.01
33.55,5.21,-1.80,5.21,-1.79,1.79,1.77,2.31,7.00,7.00,7.01
33.89,5.21,-1.78,5.21,-1.78,1.78,1.75,2.29,6.99,7.00,6.99
34.23,5.21,-1.77,5.21,-1.78,1.78,1.73,2.26,6.99,6.99,6.98
34.57,5.20,-1.78,5.20,-1.78,1.78,1.71,2.22,6.98,6.98,6.98
34.92,5.19,-1.77,5.19,-1.78,1.77,1.70,2.18,6.96,6.97,6.97
35.27,5.19,-1.78,5.19,-1.77,1.76,1.68,2.15,6.95,6.95,6.97
35.62,5.19,-1.75,5.19,-1.76,1.76,1.66,2.11,6.95,6.94,6.94
35.97,5.19,-1.75,5.19,-1.74,1.75,1.64,2.06,6.94,6.94,6.94
36.33,5.19,-1.73,5.19,-1.73,1.73,1.62,2.02,6.92,6.92,6.92
36.70,5.19,-1.72,5.19,-1.72,1.72,1.60,1.97,6.91,6.91,6.91
37.06,5.19,-1.70,5.19,-1.71,1.71,1.58,1.93,6.90,6.90,6.89
37.43,5.19,-1.69,5.19,-1.69,1.69,1.56,1.88,6.88,6.88,6.88
37.81,5.19,-1.68,5.19,-1.67,1.67,1.54,1.84,6.86,6.86,6.87
38.19,5.19,-1.65,5.19,-1.66,1.65,1.52,1.79,6.84,6.84,6.84
38.57,5.19,-1.64,5.19,-1.64,1.63,1.50,1.74,6.82,6.82,6.83
38.95,5.19,-1.61,5.19,-1.61,1.61,1.48,1.69,6.80,6.80,6.80
39.34,5.19,-1.59,5.19,-1.59,1.59,1.46,1.65,6.78,6.78,6.78
39.74,5.19,-1.57,5.19,-1.57,1.57,1.44,1.60,6.76,6.76,6.76
40.14,5.19,-1.55,5.19,-1.55,1.55,1.41,1.55,6.74,6.74,6.74
40.54,5.19,-1.53,5.19,-1.53,1.53,1.39,1.51,6.72,6.72,6.72
40.94,5.19,-1.51,5.19,-1.51,1.51,1.37,1.46,6.70,6.70,6.70
41.35,5.19,-1.49,5.19,-1.49,1.49,1.35,1.42,6.68,6.68,6.68
41.76,5.19,-1.48,5.19,-1.48,1.47,1.32,1.37,6.66,6.66,6.67
42.18,5.19,-1.46,5.19,-1.46,1.45,1.30,1.33,6.64,6.64,6.65
42.60,5.19,-1.43,5.19,-1.44,1.43,1.28,1.29,6.62,6.62,6.62
43.03,5.19,-1.41,5.19,-1.41,1.41,1.25,1.25,6.60,6.60,6.60
43.46,5.19,-1.39,5.19,-1.39,1.39,1.23,1.21,6.58,6.58,6.58
43.90,5.19,-1.36,5.19,-1.37,1.37,1.20,1.17,6.56,6.56,6.55
44.33,5.19,-1.35,5.19,-1.35,1.34,1.18,1.13,6.53,6.53,6.54
44.78,5.19,-1.32,5.19,-1.32,1.32,1.15,1.09,6.51,6.51,6.51
45.23,5.19,-1.30,5.19,-1.30,1.29,1.13,1.05,6.48,6.48,6.49
45.68,5.19,-1.26,5.19,-1.26,1.26,1.10,1.02,6.45,6.45,6.45
46.13,5.19,-1.22,5.19,-1.23,1.23,1.08,0.98,6.42,6.42,6.41
46.60,5.19,-1.20,5.19,-1.20,1.20,1.05,0.95,6.39,6.39,6.39
47.06,5.19,-1.17,5.19,-1.17,1.16,1.02,0.92,6.35,6.35,6.36
47.53,5.19,-1.14,5.19,-1.13,1.13,1.00,0.88,6.32,6.32,6.33
48.01,5.19,-1.09,5.19,-1.09,1.09,0.97,0.85,6.28,6.28,6.28
48.49,5.19,-1.06,5.19,-1.06,1.06,0.94,0.82,6.25,6.25,6.25
48.97,5.19,-1.02,5.19,-1.02,1.02,0.92,0.79,6.21,6.21,6.21
49.46,5.19,-0.99,5.19,-0.98,0.98,0.89,0.76,6.17,6.17,6.18
49.96,5.19,-0.93,5.19,-0.94,0.95,0.86,0.73,6.14,6.14,6.12
50.46,5.19,-0.91,5.19,-0.91,0.91,0.83,0.71,6.10,6.10,6.10
50.96,5.19,-0.88,5.19,-0.88,0.88,0.80,0.68,6.07,6.07,6.07
51.47,5.19,-0.85,5.19,-0.85,0.85,0.78,0.65,6.04,6.04,6.04
51.99,5.19,-0.82,5.19,-0.82,0.81,0.75,0.63,6.00,6.00,6.01
52.51,5.19,-0.78,5.19,-0.78,0.78,0.72,0.60,5.97,5.97,5.97
53.03,5.19,-0.76,5.19,-0.75,0.75,0.69,0.58,5.94,5.94,5.95
53.56,5.19,-0.71,5.19,-0.72,0.71,0.66,0.55,5.90,5.90,5.90
54.10,5.19,-0.68,5.19,-0.68,0.68,0.63,0.53,5.87,5.87,5.87
54.64,5.19,-0.64,5.19,-0.64,0.64,0.60,0.50,5.83,5.83,5.83
55.18,5.19,-0.60,5.19,-0.60,0.60,0.57,0.48,5.79,5.79,5.79
55.74,5.19,-0.56,5.19,-0.57,0.57,0.54,0.46,5.76,5.76,5.75
56.29,5.19,-0.54,5.19,-0.54,0.54,0.51,0.43,5.73,5.73,5.73
56.86,5.19,-0.51,5.19,-0.51,0.51,0.48,0.41,5.70,5.70,5.70
57.42,5.19,-0.48,5.19,-0.48,0.48,0.45,0.39,5.67,5.67,5.67
58.00,5.19,-0.45,5.19,-0.45,0.46,0.42,0.36,5.65,5.65,5.64
58.58,5.19,-0.44,5.19,-0.43,0.43,0.39,0.34,5.62,5.62,5.63
59.16,5.19,-0.41,5.19,-0.41,0.40,0.35,0.32,5.59,5.59,5.60
59.76,5.19,-0.38,5.19,-0.38,0.36,0.32,0.29,5.55,5.55,5.57
60.35,5.19,-0.33,5.19,-0.33,0.33,0.29,0.27,5.52,5.52,5.52
60.96,5.19,-0.29,5.19,-0.29,0.29,0.26,0.25,5.48,5.48,5.48
61.57,5.19,-0.24,5.19,-0.24,0.24,0.23,0.22,5.43,5.43,5.43
62.18,5.19,-0.20,5.19,-0.20,0.20,0.20,0.20,5.39,5.39,5.39
62.80,5.19,-0.15,5.19,-0.15,0.16,0.16,0.17,5.35,5.35,5.34
63.43,5.19,-0.11,5.19,-0.11,0.12,0.13,0.15,5.31,5.31,5.30
64.07,5.19,-0.07,5.19,-0.07,0.07,0.10,0.12,5.26,5.26,5.26
64.71,5.19,-0.03,5.19,-0.03,0.03,0.07,0.10,5.22,5.22,5.22
65.35,5.19,0.00,5.19,0.00,-0.01,0.03,0.07,5.18,5.18,5.19
66.01,5.19,0.04,5.19,0.04,-0.04,-0.00,0.04,5.15,5.15,5.15
66.67,5.19,0.07,5.19,0.08,-0.08,-0.03,0.02,5.11,5.11,5.12
67.33,5.19,0.12,5.19,0.12,-0.12,-0.07,-0.01,5.07,5.07,5.07
68.01,5.19,0.16,5.19,0.16,-0.16,-0.10,-0.04,5.03,5.03,5.03
68.69,5.19,0.20,5.19,0.20,-0.19,-0.13,-0.07,5.00,5.00,4.99
69.37,5.19,0.23,5.19,0.23,-0.23,-0.17,-0.10,4.96,4.96,4.96
70.07,5.19,0.27,5.19,0.27,-0.28,-0.20,-0.12,4.91,4.91,4.92
70.77,5.19,0.31,5.19,0.31,-0.32,-0.24,-0.15,4.87,4.87,4.88
71.48,5.19,0.36,5.19,0.35,-0.36,-0.27,-0.18,4.83,4.83,4.83
72.19,5.19,0.40,5.19,0.40,-0.40,-0.30,-0.21,4.79,4.79,4.79
72.91,5.19,0.44,5.19,0.44,-0.44,-0.34,-0.25,4.75,4.75,4.75
73.64,5.19,0.48,5.19,0.48,-0.48,-0.37,-0.28,4.71,4.71,4.71
74.38,5.19,0.52,5.19,0.52,-0.52,-0.41,-0.31,4.67,4.67,4.67
75.12,5.19,0.55,5.19,0.55,-0.55,-0.44,-0.34,4.64,4.64,4.64
75.87,5.19,0.58,5.19,0.58,-0.58,-0.48,-0.37,4.61,4.61,4.61
76.63,5.19,0.61,5.19,0.61,-0.61,-0.51,-0.41,4.58,4.58,4.58
77.40,5.19,0.64,5.19,0.64,-0.64,-0.55,-0.44,4.55,4.55,4.55
78.17,5.19,0.68,5.19,0.67,-0.67,-0.58,-0.48,4.52,4.52,4.51
78.95,5.19,0.70,5.19,0.70,-0.70,-0.62,-0.51,4.49,4.49,4.49
79.74,5.19,0.72,5.19,0.73,-0.73,-0.65,-0.55,4.46,4.46,4.47
80.54,5.19,0.76,5.19,0.75,-0.76,-0.69,-0.58,4.43,4.43,4.43
81.35,5.19,0.78,5.19,0.78,-0.79,-0.72,-0.62,4.40,4.40,4.41
82.16,5.19,0.81,5.19,0.82,-0.82,-0.76,-0.66,4.37,4.37,4.38
82.98,5.19,0.85,5.19,0.85,-0.85,-0.79,-0.70,4.34,4.34,4.34
83.81,5.19,0.89,5.19,0.88,-0.88,-0.83,-0.74,4.31,4.31,4.30
84.65,5.19,0.91,5.19,0.92,-0.92,-0.87,-0.78,4.27,4.27,4.28
85.50,5.19,0.95,5.19,0.95,-0.95,-0.90,-0.82,4.24,4.24,4.24
86.35,5.19,0.98,5.19,0.98,-0.99,-0.94,-0.86,4.20,4.20,4.21
87.22,5.19,1.02,5.19,1.02,-1.02,-0.97,-0.90,4.17,4.17,4.17
88.09,5.19,1.06,5.19,1.05,-1.06,-1.01,-0.94,4.13,4.13,4.13
88.97,5.19,1.09,5.19,1.09,-1.09,-1.04,-0.98,4.10,4.10,4.10
89.86,5.19,1.13,5.19,1.13,-1.13,-1.08,-1.03,4.06,4.06,4.06
90.76,5.19,1.17,5.19,1.16,-1.16,-1.12,-1.07,4.03,4.03,4.02
91.66,5.19,1.20,5.19,1.20,-1.20,-1.15,-1.12,3.99,3.99,3.99
92.58,5.19,1.23,5.19,1.23,-1.24,-1.19,-1.17,3.95,3.95,3.96
93.51,5.19,1.27,5.19,1.27,-1.27,-1.22,-1.21,3.92,3.92,3.92
94.44,5.19,1.30,5.19,1.31,-1.31,-1.26,-1.26,3.88,3.88,3.89
95.39,5.19,1.35,5.19,1.35,-1.35,-1.29,-1.31,3.84,3.84,3.84
96.34,5.19,1.40,5.19,1.39,-1.39,-1.33,-1.36,3.80,3.80,3.79
97.30,5.19,1.43,5.19,1.43,-1.43,-1.37,-1.41,3.76,3.76,3.76
98.28,5.19,1.47,5.19,1.48,-1.47,-1.40,-1.46,3.72,3.72,3.72
99.26,5.19,1.52,5.19,1.51,-1.51,-1.44,-1.51,3.68,3.68,3.67
100.25,5.19,1.55,5.19,1.55,-1.54,-1.47,-1.56,3.65,3.65,3.64
101.25,5.19,1.57,5.19,1.58,-1.58,-1.51,-1.61,3.61,3.61,3.62
102.27,5.19,1.61,5.19,1.61,-1.61,-1.54,-1.66,3.58,3.58,3.58
103.29,5.19,1.65,5.19,1.64,-1.64,-1.58,-1.71,3.55,3.55,3.54
104.32,5.19,1.66,5.19,1.67,-1.67,-1.61,-1.76,3.52,3.52,3.53
105.37,5.19,1.70,5.19,1.70,-1.70,-1.65,-1.81,3.49,3.49,3.49
106.42,5.19,1.73,5.19,1.73,-1.73,-1.68,-1.86,3.46,3.46,3.46
107.48,5.19,1.77,5.19,1.77,-1.76,-1.72,-1.91,3.43,3.43,3.42
108.56,5.19,1.80,5.19,1.80,-1.80,-1.75,-1.96,3.39,3.39,3.39
109.64,5.19,1.83,5.19,1.83,-1.83,-1.79,-2.01,3.36,3.36,3.36
110.74,5.19,1.86,5.19,1.86,-1.86,-1.82,-2.06,3.33,3.33,3.33
111.85,5.19,1.90,5.19,1.90,-1.90,-1.86,-2.10,3.29,3.29,3.29
112.97,5.19,1.93,5.19,1.93,-1.94,-1.89,-2.15,3.25,3.25,3.26
114.10,5.19,1.96,5.19,1.97,-1.97,-1.93,-2.19,3.22,3.22,3.23
115.24,5.19,2.01,5.19,2.01,-2.01,-1.96,-2.23,3.18,3.18,3.18
116.39,5.19,2.05,5.19,2.05,-2.04,-1.99,-2.27,3.15,3.15,3.14
117.55,5.19,2.08,5.19,2.09,-2.08,-2.03,-2.31,3.11,3.11,3.11
118.73,5.19,2.12,5.19,2.12,-2.11,-2.06,-2.34,3.08,3.08,3.07
119.92,5.19,2.15,5.19,2.15,-2.15,-2.09,-2.38,3.04,3.04,3.04
121.12,5.19,2.17,5.19,2.18,-2.18,-2.13,-2.41,3.01,3.01,3.02
122.33,5.19,2.21,5.19,2.20,-2.21,-2.16,-2.43,2.98,2.98,2.98
123.55,5.19,2.24,5.19,2.24,-2.25,-2.19,-2.46,2.94,2.94,2.95
124.79,5.19,2.26,5.19,2.27,-2.28,-2.23,-2.48,2.91,2.91,2.93
126.03,5.20,2.31,5.20,2.31,-2.32,-2.26,-2.50,2.88,2.89,2.89
127.29,5.21,2.35,5.21,2.35,-2.35,-2.29,-2.52,2.86,2.86,2.86
128.57,5.21,2.39,5.21,2.39,-2.38,-2.32,-2.53,2.83,2.82,2.82
129.85,5.20,2.41,5.20,2.42,-2.41,-2.35,-2.54,2.79,2.79,2.79
131.15,5.19,2.44,5.19,2.45,-2.44,-2.39,-2.55,2.75,2.76,2.75
132.46,5.18,2.47,5.17,2.47,-2.46,-2.42,-2.56,2.72,2.72,2.71
133.79,5.15,2.48,5.15,2.48,-2.47,-2.45,-2.56,2.68,2.68,2.67
135.12,5.11,2.48,5.12,2.48,-2.48,-2.48,-2.57,2.63,2.64,2.63
136.48,5.09,2.47,5.08,2.47,-2.48,-2.51,-2.57,2.61,2.60,2.62
137.84,5.05,2.47,5.05,2.48,-2.48,-2.54,-2.57,2.57,2.58,2.58
139.22,5.02,2.48,5.02,2.47,-2.47,-2.57,-2.57,2.55,2.55,2.54
140.61,4.99,2.48,4.98,2.47,-2.47,-2.60,-2.57,2.52,2.51,2.51
142.02,4.94,2.46,4.95,2.47,-2.46,-2.63,-2.56,2.48,2.49,2.48
143.44,4.92,2.47,4.92,2.46,-2.46,-2.66,-2.56,2.46,2.46,2.45
144.87,4.89,2.45,4.89,2.46,-2.46,-2.68,-2.55,2.43,2.43,2.44
146.32,4.88,2.47,4.87,2.46,-2.47,-2.71,-2.55,2.41,2.41,2.41
147.78,4.85,2.46,4.85,2.47,-2.48,-2.74,-2.55,2.37,2.38,2.39
149.26,4.84,2.48,4.84,2.48,-2.49,-2.77,-2.54,2.35,2.35,2.36
150.75,4.84,2.51,4.84,2.50,-2.51,-2.79,-2.54,2.33,2.33,2.33
152.26,4.85,2.53,4.85,2.53,-2.53,-2.82,-2.54,2.32,2.32,2.32
153.78,4.86,2.57,4.86,2.56,-2.56,-2.84,-2.54,2.30,2.30,2.29
155.32,4.86,2.59,4.86,2.59,-2.59,-2.87,-2.53,2.27,2.27,2.27
156.88,4.86,2.62,4.86,2.62,-2.62,-2.90,-2.54,2.24,2.24,2.24
158.44,4.86,2.65,4.86,2.65,-2.65,-2.92,-2.54,2.21,2.21,2.21
160.03,4.86,2.67,4.86,2.68,-2.68,-2.94,-2.54,2.18,2.18,2.19
161.63,4.86,2.70,4.86,2.71,-2.71,-2.97,-2.55,2.15,2.15,2.16
163.24,4.86,2.75,4.86,2.74,-2.74,-2.99,-2.55,2.12,2.12,2.11
164.88,4.86,2.78,4.86,2.77,-2.77,-3.01,-2.56,2.09,2.09,2.08
166.53,4.86,2.80,4.86,2.81,-2.80,-3.04,-2.57,2.06,2.06,2.06
168.19,4.86,2.83,4.86,2.84,-2.84,-3.06,-2.58,2.02,2.02,2.03
169.87,4.86,2.87,4.86,2.87,-2.87,-3.08,-2.60,1.99,1.99,1.99
171.57,4.86,2.90,4.86,2.90,-2.90,-3.10,-2.61,1.96,1.96,1.96
173.29,4.86,2.93,4.86,2.93,-2.93,-3.12,-2.63,1.93,1.93,1.93
175.02,4.86,2.97,4.86,2.97,-2.97,-3.14,-2.65,1.89,1.89,1.89
176.77,4.86,3.00,4.86,3.00,-3.00,-3.16,-2.68,1.86,1.86,1.86
178.54,4.86,3.03,4.86,3.03,-3.03,-3.18,-2.70,1.83,1.83,1.83
180.32,4.86,3.07,4.86,3.07,-3.07,-3.19,-2.73,1.79,1.79,1.79
182.13,4.86,3.10,4.86,3.10,-3.10,-3.21,-2.76,1.76,1.76,1.76
183.95,4.86,3.13,4.86,3.14,-3.14,-3.23,-2.79,1.72,1.72,1.73
185.79,4.86,3.18,4.86,3.17,-3.17,-3.24,-2.82,1.69,1.69,1.68
187.65,4.86,3.21,4.86,3.21,-3.21,-3.26,-2.86,1.65,1.65,1.65
189.52,4.86,3.25,4.86,3.24,-3.25,-3.27,-2.89,1.61,1.61,1.61
191.42,4.86,3.27,4.86,3.28,-3.28,-3.29,-2.93,1.58,1.58,1.59
193.33,4.87,3.31,4.87,3.32,-3.32,-3.30,-2.97,1.55,1.54,1.56
195.27,4.87,3.35,4.87,3.35,-3.36,-3.32,-3.01,1.51,1.52,1.52
197.22,4.88,3.40,4.88,3.39,-3.39,-3.33,-3.06,1.49,1.49,1.48
199.19,4.89,3.43,4.89,3.43,-3.42,-3.34,-3.10,1.47,1.46,1.46
201.18,4.89,3.46,4.89,3.46,-3.45,-3.35,-3.15,1.44,1.44,1.43
203.19,4.88,3.47,4.88,3.47,-3.47,-3.36,-3.19,1.41,1.42,1.41
205.23,4.87,3.48,4.87,3.48,-3.48,-3.37,-3.24,1.39,1.39,1.39
207.28,4.85,3.48,4.85,3.49,-3.48,-3.38,-3.29,1.37,1.37,1.37
209.35,4.83,3.49,4.83,3.49,-3.48,-3.39,-3.34,1.35,1.35,1.34
211.44,4.80,3.49,4.80,3.48,-3.47,-3.39,-3.39,1.33,1.32,1.31
213.56,4.76,3.46,4.76,3.46,-3.46,-3.40,-3.43,1.30,1.30,1.30
215.69,4.72,3.44,4.72,3.44,-3.45,-3.41,-3.48,1.27,1.27,1.28
217.85,4.68,3.42,4.69,3.43,-3.44,-3.41,-3.53,1.24,1.25,1.26
220.03,4.66,3.43,4.66,3.42,-3.42,-3.42,-3.57,1.24,1.24,1.23
222.23,4.63,3.42,4.63,3.41,-3.41,-3.42,-3.61,1.22,1.22,1.21
224.45,4.60,3.41,4.60,3.40,-3.39,-3.42,-3.65,1.20,1.20,1.19
226.70,4.56,3.38,4.57,3.39,-3.39,-3.42,-3.69,1.17,1.18,1.18
228.96,4.54,3.37,4.54,3.37,-3.39,-3.42,-3.73,1.15,1.16,1.17
231.25,4.53,3.38,4.53,3.37,-3.39,-3.43,-3.76,1.14,1.14,1.15
233.57,4.52,3.38,4.52,3.39,-3.40,-3.42,-3.79,1.12,1.13,1.14
235.90,4.52,3.40,4.53,3.40,-3.41,-3.42,-3.81,1.11,1.12,1.12
238.26,4.54,3.43,4.54,3.42,-3.42,-3.42,-3.83,1.12,1.12,1.11
240.64,4.55,3.43,4.55,3.43,-3.43,-3.42,-3.84,1.12,1.12,1.12
243.05,4.56,3.44,4.56,3.45,-3.43,-3.42,-3.85,1.13,1.12,1.12
245.48,4.55,3.45,4.55,3.45,-3.44,-3.41,-3.86,1.11,1.12,1.10
247.93,4.54,3.45,4.54,3.44,-3.43,-3.41,-3.86,1.11,1.11,1.09
250.41,4.52,3.42,4.52,3.42,-3.42,-3.40,-3.85,1.10,1.10,1.10
252.92,4.50,3.39,4.50,3.40,-3.40,-3.39,-3.84,1.10,1.10,1.11
255.45,4.48,3.38,4.48,3.38,-3.38,-3.39,-3.83,1.10,1.10,1.10
258.00,4.45,3.35,4.45,3.35,-3.35,-3.38,-3.81,1.10,1.10,1.10
260.58,4.42,3.32,4.42,3.32,-3.32,-3.37,-3.78,1.10,1.10,1.10
263.19,4.38,3.28,4.38,3.28,-3.28,-3.36,-3.75,1.10,1.10,1.10
265.82,4.34,3.25,4.35,3.25,-3.25,-3.35,-3.71,1.09,1.09,1.09
268.48,4.32,3.22,4.31,3.22,-3.23,-3.33,-3.67,1.09,1.09,1.10
271.16,4.29,3.20,4.29,3.19,-3.20,-3.32,-3.63,1.09,1.09,1.09
273.87,4.26,3.16,4.27,3.17,-3.18,-3.31,-3.58,1.08,1.09,1.10
276.61,4.25,3.16,4.25,3.16,-3.16,-3.29,-3.53,1.09,1.09,1.09
279.38,4.23,3.15,4.23,3.15,-3.14,-3.28,-3.48,1.09,1.09,1.08
282.17,4.22,3.13,4.22,3.13,-3.12,-3.26,-3.42,1.10,1.10,1.09
284.99,4.21,3.11,4.20,3.11,-3.11,-3.25,-3.36,1.10,1.10,1.10
287.84,4.18,3.08,4.18,3.09,-3.09,-3.23,-3.30,1.09,1.10,1.10
290.72,4.16,3.07,4.16,3.06,-3.06,-3.21,-3.24,1.10,1.10,1.09
293.63,4.14,3.04,4.14,3.04,-3.03,-3.19,-3.17,1.11,1.10,1.10
296.57,4.11,3.00,4.11,3.01,-3.00,-3.17,-3.11,1.11,1.11,1.11
299.53,4.08,2.97,4.08,2.97,-2.97,-3.15,-3.05,1.11,1.12,1.11
302.53,4.05,2.94,4.05,2.93,-2.93,-3.13,-2.98,1.12,1.12,1.11
305.55,4.01,2.89,4.01,2.89,-2.89,-3.10,-2.91,1.12,1.12,1.12
308.61,3.98,2.85,3.98,2.85,-2.85,-3.08,-2.85,1.13,1.12,1.13
311.69,3.94,2.81,3.95,2.81,-2.82,-3.06,-2.79,1.12,1.13,1.13
314.81,3.93,2.79,3.93,2.78,-2.79,-3.03,-2.72,1.14,1.14,1.14
317.96,3.91,2.76,3.91,2.76,-2.76,-3.00,-2.66,1.15,1.15,1.15
321.14,3.89,2.73,3.89,2.73,-2.74,-2.98,-2.60,1.15,1.15,1.16
324.35,3.87,2.72,3.88,2.71,-2.72,-2.95,-2.54,1.15,1.15,1.15
327.59,3.87,2.69,3.87,2.70,-2.71,-2.92,-2.48,1.16,1.16,1.18
330.87,3.88,2.70,3.88,2.70,-2.71,-2.89,-2.42,1.17,1.17,1.18
334.18,3.89,2.71,3.89,2.71,-2.71,-2.86,-2.36,1.18,1.18,1.18
337.52,3.90,2.71,3.90,2.71,-2.70,-2.83,-2.31,1.20,1.20,1.19
340.90,3.91,2.71,3.91,2.71,-2.70,-2.80,-2.25,1.21,1.21,1.20
344.30,3.91,2.70,3.91,2.70,-2.70,-2.76,-2.20,1.21,1.22,1.21
347.75,3.91,2.69,3.91,2.69,-2.69,-2.73,-2.15,1.22,1.22,1.22
351.23,3.90,2.68,3.90,2.67,-2.67,-2.70,-2.10,1.23,1.23,1.22
354.74,3.89,2.65,3.89,2.65,-2.65,-2.66,-2.05,1.24,1.24,1.24
358.28,3.86,2.62,3.86,2.62,-2.62,-2.62,-2.01,1.24,1.24,1.24
361.87,3.84,2.60,3.84,2.59,-2.59,-2.59,-1.96,1.25,1.25,1.24
365.49,3.81,2.55,3.81,2.56,-2.55,-2.55,-1.92,1.26,1.26,1.26
369.14,3.78,2.51,3.78,2.52,-2.52,-2.51,-1.88,1.26,1.26,1.27
372.83,3.75,2.48,3.75,2.48,-2.48,-2.47,-1.84,1.27,1.26,1.27
376.56,3.71,2.44,3.72,2.44,-2.45,-2.43,-1.80,1.26,1.27,1.27
380.33,3.69,2.41,3.69,2.41,-2.41,-2.39,-1.77,1.28,1.28,1.28
384.13,3.66,2.37,3.66,2.37,-2.37,-2.35,-1.73,1.29,1.29,1.29
387.97,3.64,2.34,3.64,2.34,-2.33,-2.31,-1.70,1.31,1.31,1.30
391.85,3.61,2.29,3.61,2.30,-2.29,-2.27,-1.67,1.32,1.31,1.32
395.77,3.58,2.26,3.58,2.26,-2.26,-2.22,-1.64,1.32,1.32,1.32
399.73,3.54,2.21,3.55,2.22,-2.23,-2.18,-1.61,1.31,1.32,1.33
403.72,3.52,2.18,3.52,2.18,-2.19,-2.14,-1.58,1.33,1.33,1.34
407.76,3.50,2.15,3.50,2.15,-2.16,-2.09,-1.55,1.34,1.34,1.35
411.84,3.48,2.12,3.48,2.12,-2.12,-2.04,-1.52,1.36,1.36,1.36
415.96,3.46,2.09,3.46,2.09,-2.08,-2.00,-1.50,1.38,1.38,1.37
420.12,3.43,2.06,3.42,2.05,-2.03,-1.95,-1.47,1.40,1.39,1.37
424.32,3.38,2.00,3.38,2.00,-1.99,-1.90,-1.45,1.39,1.40,1.38
428.56,3.33,1.93,3.33,1.94,-1.94,-1.85,-1.42,1.39,1.39,1.40
432.85,3.28,1.86,3.28,1.87,-1.88,-1.80,-1.40,1.40,1.40,1.42
437.18,3.23,1.82,3.23,1.82,-1.83,-1.75,-1.38,1.40,1.40,1.41
441.55,3.18,1.76,3.18,1.77,-1.77,-1.70,-1.35,1.41,1.41,1.42
445.96,3.14,1.72,3.14,1.71,-1.71,-1.65,-1.33,1.43,1.43,1.42
450.42,3.09,1.66,3.09,1.66,-1.65,-1.60,-1.30,1.44,1.44,1.43
454.93,3.04,1.60,3.04,1.60,-1.60,-1.55,-1.28,1.44,1.45,1.44
459.48,3.00,1.55,3.00,1.54,-1.54,-1.49,-1.26,1.46,1.45,1.45
464.07,2.95,1.48,2.95,1.49,-1.49,-1.44,-1.23,1.46,1.46,1.47
468.71,2.91,1.44,2.91,1.43,-1.44,-1.39,-1.21,1.47,1.47,1.47
473.40,2.86,1.38,2.86,1.38,-1.38,-1.33,-1.18,1.48,1.48,1.48
478.13,2.82,1.33,2.82,1.33,-1.33,-1.28,-1.15,1.49,1.49,1.49
482.91,2.78,1.28,2.78,1.28,-1.28,-1.22,-1.12,1.50,1.50,1.50
487.74,2.74,1.23,2.74,1.23,-1.23,-1.16,-1.10,1.51,1.51,1.51
492.62,2.70,1.18,2.70,1.18,-1.18,-1.11,-1.07,1.52,1.52,1.52
497.55,2.66,1.13,2.66,1.13,-1.13,-1.05,-1.03,1.53,1.53,1.53
502.52,2.62,1.08,2.62,1.08,-1.07,-0.99,-1.00,1.55,1.55,1.54
507.55,2.58,1.02,2.58,1.03,-1.02,-0.93,-0.97,1.56,1.56,1.56
512.62,2.54,0.97,2.53,0.96,-0.96,-0.88,-0.93,1.58,1.57,1.57
517.75,2.48,0.89,2.48,0.90,-0.91,-0.82,-0.90,1.57,1.58,1.59
522.93,2.43,0.83,2.43,0.84,-0.85,-0.76,-0.86,1.58,1.58,1.60
528.16,2.38,0.77,2.39,0.78,-0.79,-0.70,-0.82,1.59,1.60,1.61
533.44,2.35,0.73,2.34,0.73,-0.72,-0.63,-0.78,1.63,1.62,1.62
538.77,2.30,0.67,2.30,0.67,-0.66,-0.57,-0.74,1.64,1.64,1.63
544.16,2.25,0.61,2.25,0.61,-0.59,-0.51,-0.70,1.66,1.66,1.64
549.60,2.19,0.54,2.19,0.53,-0.53,-0.45,-0.65,1.66,1.66,1.65
555.10,2.12,0.45,2.13,0.45,-0.46,-0.38,-0.61,1.66,1.67,1.67
560.65,2.06,0.38,2.06,0.38,-0.39,-0.32,-0.56,1.67,1.67,1.68
