frequency,raw,error,smoothed,error_smoothed,equalization,parametric_eq,fixed_band_eq,equalized_raw,equalized_smoothed,target
20.00,5.66,-1.11,5.66,-1.10,1.10,0.94,0.03,6.76,6.77,6.77
20.20,5.70,-1.04,5.69,-1.05,1.05,0.96,0.03,6.75,6.74,6.75
20.40,5.72,-0.99,5.73,-0.99,0.99,0.97,0.03,6.71,6.72,6.72
20.61,5.76,-0.94,5.76,-0.94,0.94,0.98,0.04,6.70,6.69,6.70
20.81,5.79,-0.88,5.79,-0.88,0.88,0.98,0.04,6.67,6.67,6.67
21.02,5.81,-0.83,5.82,-0.83,0.83,0.99,0.04,6.64,6.65,6.64
21.23,5.85,-0.77,5.85,-0.78,0.78,0.99,0.04,6.63,6.63,6.62
21.44,5.87,-0.73,5.87,-0.73,0.74,0.99,0.04,6.61,6.61,6.60
21.66,5.89,-0.69,5.89,-0.69,0.69,0.99,0.05,6.58,6.59,6.58
21.87,5.91,-0.65,5.91,-0.65,0.65,0.98,0.05,6.56,6.56,6.56
22.09,5.94,-0.60,5.93,-0.61,0.61,0.98,0.05,6.55,6.54,6.54
22.31,5.95,-0.57,5.95,-0.57,0.57,0.96,0.05,6.52,6.52,6.52
22.54,5.96,-0.53,5.97,-0.53,0.53,0.95,0.06,6.49,6.50,6.49
22.76,5.99,-0.48,5.98,-0.49,0.49,0.93,0.06,6.48,6.47,6.47
22.99,6.00,-0.45,6.00,-0.45,0.46,0.91,0.06,6.46,6.46,6.45
23.22,6.01,-0.42,6.02,-0.42,0.42,0.89,0.07,6.43,6.44,6.43
23.45,6.03,-0.39,6.03,-0.39,0.39,0.87,0.07,6.42,6.42,6.42
23.69,6.04,-0.36,6.04,-0.36,0.36,0.84,0.07,6.40,6.40,6.40
23.92,6.05,-0.34,6.05,-0.33,0.33,0.81,0.07,6.38,6.39,6.39
24.16,6.07,-0.30,6.06,-0.31,0.31,0.78,0.08,6.38,6.37,6.37
24.40,6.07,-0.29,6.07,-0.29,0.28,0.74,0.08,6.35,6.36,6.36
24.65,6.08,-0.27,6.09,-0.26,0.26,0.71,0.08,6.34,6.34,6.35
24.89,6.10,-0.23,6.10,-0.24,0.23,0.67,0.08,6.34,6.33,6.33
25.14,6.11,-0.21,6.11,-0.21,0.21,0.64,0.09,6.32,6.32,6.32
25.39,6.12,-0.19,6.12,-0.19,0.19,0.60,0.09,6.31,6.31,6.31
25.65,6.13,-0.17,6.13,-0.17,0.17,0.56,0.09,6.30,6.30,6.30
25.91,6.14,-0.15,6.14,-0.15,0.14,0.52,0.09,6.28,6.28,6.29
26.16,6.15,-0.12,6.15,-0.12,0.12,0.48,0.09,6.27,6.27,6.28
26.43,6.16,-0.10,6.16,-0.10,0.10,0.43,0.09,6.26,6.26,6.26
26.69,6.17,-0.07,6.17,-0.07,0.08,0.39,0.09,6.25,6.25,6.24
26.96,6.18,-0.05,6.18,-0.05,0.06,0.35,0.09,6.24,6.24,6.23
27.23,6.19,-0.03,6.19,-0.03,0.03,0.31,0.09,6.23,6.22,6.22
27.50,6.20,-0.01,6.20,-0.01,0.01,0.27,0.08,6.21,6.21,6.21
27.77,6.21,-0.00,6.21,0.01,-0.01,0.23,0.08,6.20,6.21,6.21
28.05,6.23,0.03,6.23,0.03,-0.03,0.18,0.07,6.20,6.20,6.20
28.33,6.24,0.05,6.24,0.05,-0.05,0.14,0.07,6.19,6.20,6.19
28.62,6.26,0.07,6.26,0.07,-0.07,0.10,0.06,6.19,6.19,6.19
28.90,6.27,0.09,6.27,0.09,-0.09,0.06,0.05,6.18,6.18,6.18
29.19,6.28,0.10,6.29,0.11,-0.11,0.02,0.05,6.17,6.17,6.18
29.48,6.31,0.14,6.31,0.14,-0.14,-0.02,0.03,6.17,6.17,6.17
29.78,6.33,0.16,6.33,0.16,-0.16,-0.06,0.02,6.17,6.17,6.17
30.08,6.35,0.20,6.35,0.19,-0.19,-0.10,0.01,6.16,6.16,6.16
30.38,6.36,0.21,6.37,0.21,-0.21,-0.13,-0.01,6.15,6.15,6.15
30.68,6.38,0.24,6.38,0.24,-0.24,-0.17,-0.02,6.14,6.14,6.14
30.99,6.41,0.28,6.40,0.27,-0.27,-0.21,-0.04,6.14,6.13,6.13
31.30,6.42,0.29,6.43,0.30,-0.30,-0.25,-0.06,6.12,6.13,6.13
31.61,6.45,0.33,6.45,0.33,-0.33,-0.28,-0.08,6.12,6.12,6.12
31.93,6.47,0.36,6.47,0.36,-0.36,-0.32,-0.10,6.11,6.11,6.11
32.24,6.49,0.38,6.49,0.39,-0.39,-0.36,-0.13,6.10,6.10,6.11
32.57,6.52,0.43,6.52,0.42,-0.42,-0.39,-0.15,6.10,6.09,6.10
32.89,6.54,0.46,6.54,0.46,-0.46,-0.43,-0.18,6.08,6.09,6.08
33.22,6.57,0.50,6.57,0.50,-0.49,-0.46,-0.21,6.08,6.07,6.07
33.55,6.59,0.53,6.59,0.53,-0.53,-0.50,-0.24,6.06,6.06,6.06
33.89,6.61,0.56,6.62,0.57,-0.57,-0.53,-0.27,6.04,6.05,6.05
34.23,6.64,0.60,6.64,0.60,-0.60,-0.57,-0.31,6.04,6.04,6.04
34.57,6.68,0.65,6.68,0.65,-0.64,-0.60,-0.34,6.04,6.03,6.04
34.92,6.71,0.69,6.71,0.69,-0.68,-0.64,-0.38,6.03,6.03,6.02
35.27,6.74,0.73,6.74,0.73,-0.72,-0.67,-0.42,6.02,6.02,6.01
35.62,6.77,0.76,6.77,0.77,-0.77,-0.71,-0.46,6.00,6.01,6.01
35.97,6.81,0.81,6.81,0.81,-0.81,-0.74,-0.50,6.00,6.00,6.00
36.33,6.85,0.86,6.85,0.86,-0.86,-0.77,-0.54,5.99,5.99,6.00
36.70,6.88,0.90,6.89,0.90,-0.90,-0.81,-0.58,5.98,5.98,5.98
37.06,6.93,0.96,6.93,0.95,-0.95,-0.84,-0.63,5.98,5.97,5.97
37.43,6.97,1.00,6.97,1.00,-1.00,-0.87,-0.67,5.97,5.97,5.97
37.81,7.01,1.05,7.01,1.06,-1.05,-0.91,-0.72,5.96,5.96,5.96
38.19,7.06,1.11,7.06,1.11,-1.11,-0.94,-0.77,5.95,5.95,5.95
38.57,7.10,1.16,7.10,1.16,-1.16,-0.98,-0.81,5.94,5.94,5.94
38.95,7.15,1.21,7.15,1.22,-1.22,-1.01,-0.86,5.94,5.94,5.94
39.34,7.20,1.28,7.20,1.27,-1.27,-1.04,-0.91,5.93,5.93,5.92
39.74,7.25,1.33,7.25,1.33,-1.33,-1.08,-0.97,5.92,5.92,5.92
40.14,7.30,1.39,7.30,1.39,-1.39,-1.11,-1.02,5.91,5.91,5.91
40.54,7.35,1.45,7.35,1.45,-1.45,-1.15,-1.07,5.90,5.90,5.90
40.94,7.41,1.52,7.41,1.51,-1.52,-1.18,-1.13,5.90,5.89,5.89
41.35,7.46,1.57,7.46,1.58,-1.58,-1.22,-1.18,5.88,5.89,5.89
41.76,7.52,1.65,7.52,1.65,-1.64,-1.25,-1.24,5.88,5.88,5.87
42.18,7.58,1.71,7.58,1.71,-1.71,-1.29,-1.30,5.87,5.87,5.87
42.60,7.63,1.78,7.63,1.78,-1.78,-1.32,-1.36,5.86,5.86,5.86
43.03,7.69,1.84,7.69,1.84,-1.84,-1.36,-1.42,5.85,5.85,5.85
43.46,7.74,1.90,7.75,1.91,-1.91,-1.40,-1.48,5.83,5.84,5.84
43.90,7.81,1.98,7.80,1.97,-1.97,-1.43,-1.54,5.84,5.83,5.83
44.33,7.86,2.03,7.86,2.04,-2.03,-1.47,-1.61,5.83,5.83,5.83
44.78,7.91,2.10,7.91,2.10,-2.10,-1.51,-1.67,5.81,5.82,5.81
45.23,7.97,2.16,7.97,2.16,-2.16,-1.54,-1.74,5.81,5.81,5.81
45.68,8.02,2.22,8.02,2.22,-2.22,-1.58,-1.81,5.80,5.80,5.80
46.13,8.08,2.28,8.08,2.28,-2.28,-1.62,-1.87,5.80,5.80,5.80
46.60,8.13,2.34,8.13,2.34,-2.34,-1.66,-1.94,5.79,5.79,5.79
47.06,8.18,2.40,8.18,2.40,-2.40,-1.70,-2.01,5.79,5.79,5.79
47.53,8.23,2.45,8.23,2.45,-2.45,-1.74,-2.09,5.78,5.78,5.78
48.01,8.28,2.51,8.28,2.51,-2.51,-1.78,-2.16,5.78,5.77,5.77
48.49,8.32,2.55,8.32,2.56,-2.56,-1.82,-2.23,5.76,5.77,5.77
48.97,8.37,2.61,8.37,2.61,-2.61,-1.86,-2.31,5.76,5.76,5.76
49.46,8.41,2.66,8.41,2.66,-2.66,-1.90,-2.38,5.75,5.75,5.75
49.96,8.45,2.71,8.45,2.71,-2.70,-1.94,-2.46,5.75,5.75,5.75
50.46,8.49,2.75,8.49,2.75,-2.75,-1.98,-2.53,5.74,5.74,5.74
50.96,8.52,2.79,8.53,2.80,-2.79,-2.03,-2.61,5.73,5.73,5.73
51.47,8.56,2.84,8.56,2.84,-2.84,-2.07,-2.68,5.73,5.72,5.72
51.99,8.59,2.88,8.59,2.87,-2.88,-2.11,-2.76,5.72,5.71,5.71
52.51,8.61,2.91,8.61,2.91,-2.91,-2.16,-2.84,5.70,5.70,5.70
53.03,8.64,2.95,8.64,2.95,-2.95,-2.20,-2.91,5.69,5.69,5.70
53.56,8.67,2.98,8.67,2.98,-2.98,-2.24,-2.99,5.69,5.69,5.69
54.10,8.70,3.02,8.69,3.02,-3.02,-2.29,-3.06,5.68,5.68,5.68
54.64,8.71,3.04,8.72,3.05,-3.05,-2.34,-3.13,5.66,5.67,5.67
55.18,8.73,3.08,8.73,3.08,-3.08,-2.38,-3.21,5.65,5.65,5.66
55.74,8.75,3.11,8.75,3.10,-3.11,-2.43,-3.28,5.64,5.64,5.64
56.29,8.76,3.13,8.76,3.13,-3.13,-2.47,-3.34,5.63,5.63,5.63
56.86,8.78,3.16,8.78,3.16,-3.16,-2.52,-3.41,5.62,5.62,5.62
57.42,8.80,3.19,8.80,3.18,-3.18,-2.57,-3.47,5.62,5.62,5.61
58.00,8.81,3.20,8.81,3.21,-3.20,-2.62,-3.53,5.61,5.61,5.61
58.58,8.82,3.23,8.82,3.23,-3.22,-2.67,-3.59,5.60,5.60,5.59
59.16,8.83,3.25,8.83,3.25,-3.24,-2.72,-3.64,5.59,5.58,5.58
59.76,8.83,3.26,8.83,3.26,-3.26,-2.77,-3.69,5.57,5.57,5.57
60.35,8.84,3.28,8.84,3.28,-3.28,-2.82,-3.73,5.56,5.56,5.56
60.96,8.84,3.29,8.84,3.29,-3.30,-2.87,-3.77,5.54,5.54,5.55
61.57,8.85,3.32,8.85,3.32,-3.32,-2.92,-3.81,5.53,5.53,5.53
62.18,8.86,3.34,8.86,3.34,-3.34,-2.97,-3.84,5.52,5.52,5.52
62.80,8.87,3.37,8.87,3.36,-3.36,-3.02,-3.87,5.52,5.51,5.50
63.43,8.87,3.37,8.87,3.38,-3.37,-3.07,-3.90,5.50,5.50,5.50
64.07,8.87,3.39,8.87,3.40,-3.40,-3.12,-3.92,5.48,5.48,5.48
64.71,8.88,3.42,8.88,3.41,-3.42,-3.18,-3.93,5.46,5.46,5.46
65.35,8.88,3.44,8.88,3.43,-3.44,-3.23,-3.95,5.44,5.44,5.44
66.01,8.88,3.46,8.89,3.46,-3.46,-3.28,-3.96,5.42,5.42,5.43
66.67,8.89,3.48,8.89,3.49,-3.49,-3.33,-3.96,5.40,5.41,5.41
67.33,8.91,3.52,8.90,3.52,-3.51,-3.39,-3.97,5.40,5.39,5.39
68.01,8.91,3.54,8.91,3.55,-3.54,-3.44,-3.97,5.37,5.37,5.37
68.69,8.92,3.57,8.92,3.57,-3.57,-3.49,-3.96,5.35,5.35,5.35
69.37,8.92,3.60,8.92,3.60,-3.60,-3.55,-3.96,5.32,5.32,5.32
70.07,8.93,3.63,8.93,3.63,-3.63,-3.60,-3.95,5.30,5.30,5.30
70.77,8.94,3.66,8.94,3.66,-3.66,-3.65,-3.94,5.28,5.28,5.28
71.48,8.96,3.70,8.96,3.70,-3.70,-3.71,-3.94,5.26,5.26,5.26
72.19,8.96,3.73,8.97,3.73,-3.73,-3.76,-3.93,5.23,5.23,5.23
72.91,8.98,3.77,8.97,3.77,-3.77,-3.81,-3.92,5.21,5.21,5.21
73.64,8.98,3.81,8.98,3.80,-3.81,-3.87,-3.91,5.18,5.18,5.17
74.38,8.99,3.84,9.00,3.85,-3.84,-3.92,-3.90,5.15,5.15,5.15
75.12,9.01,3.89,9.01,3.89,-3.88,-3.97,-3.89,5.13,5.12,5.12
75.87,9.02,3.93,9.02,3.93,-3.93,-4.02,-3.88,5.09,5.09,5.09
76.63,9.02,3.96,9.02,3.97,-3.97,-4.07,-3.87,5.05,5.06,5.06
77.40,9.03,4.01,9.03,4.01,-4.01,-4.13,-3.87,5.02,5.02,5.02
78.17,9.04,4.06,9.04,4.06,-4.06,-4.18,-3.86,4.98,4.98,4.98
78.95,9.05,4.11,9.05,4.11,-4.10,-4.23,-3.86,4.95,4.95,4.94
79.74,9.06,4.16,9.06,4.15,-4.15,-4.28,-3.86,4.91,4.91,4.91
80.54,9.06,4.20,9.06,4.20,-4.20,-4.32,-3.87,4.86,4.87,4.87
81.35,9.07,4.25,9.07,4.25,-4.25,-4.37,-3.87,4.82,4.82,4.82
82.16,9.08,4.30,9.08,4.29,-4.29,-4.42,-3.88,4.79,4.78,4.78
82.98,9.08,4.34,9.08,4.34,-4.34,-4.47,-3.89,4.74,4.74,4.74
83.81,9.08,4.38,9.08,4.39,-4.38,-4.51,-3.90,4.70,4.70,4.70
84.65,9.08,4.43,9.08,4.43,-4.43,-4.56,-3.92,4.65,4.65,4.65
85.50,9.08,4.48,9.08,4.47,-4.47,-4.60,-3.93,4.61,4.61,4.60
86.35,9.08,4.51,9.08,4.51,-4.52,-4.64,-3.96,4.57,4.56,4.57
87.22,9.07,4.55,9.08,4.55,-4.56,-4.68,-3.98,4.51,4.52,4.52
88.09,9.08,4.60,9.07,4.59,-4.60,-4.72,-4.01,4.48,4.48,4.48
88.97,9.07,4.64,9.07,4.64,-4.63,-4.76,-4.04,4.44,4.44,4.43
89.86,9.06,4.67,9.07,4.68,-4.67,-4.80,-4.07,4.39,4.39,4.39
90.76,9.06,4.71,9.06,4.71,-4.71,-4.84,-4.11,4.35,4.35,4.35
91.66,9.05,4.74,9.05,4.74,-4.74,-4.87,-4.15,4.31,4.31,4.31
92.58,9.04,4.77,9.04,4.77,-4.78,-4.91,-4.19,4.26,4.27,4.27
93.51,9.03,4.81,9.03,4.81,-4.81,-4.94,-4.24,4.22,4.22,4.22
94.44,9.02,4.84,9.02,4.84,-4.84,-4.97,-4.29,4.18,4.18,4.18
95.39,9.01,4.87,9.01,4.87,-4.87,-5.00,-4.34,4.14,4.14,4.14
96.34,8.99,4.89,8.99,4.90,-4.90,-5.03,-4.39,4.09,4.10,4.10
97.30,8.97,4.92,8.97,4.92,-4.92,-5.05,-4.45,4.05,4.05,4.05
98.28,8.96,4.95,8.96,4.95,-4.95,-5.08,-4.51,4.01,4.01,4.01
99.26,8.94,4.98,8.94,4.98,-4.98,-5.10,-4.57,3.96,3.96,3.96
100.25,8.92,5.01,8.92,5.01,-5.01,-5.12,-4.63,3.92,3.91,3.91
101.25,8.89,5.03,8.89,5.03,-5.03,-5.14,-4.70,3.86,3.86,3.86
102.27,8.87,5.06,8.87,5.05,-5.05,-5.16,-4.76,3.82,3.81,3.81
103.29,8.84,5.08,8.84,5.08,-5.08,-5.17,-4.83,3.76,3.77,3.77
104.32,8.82,5.11,8.82,5.10,-5.10,-5.19,-4.90,3.72,3.72,3.72
105.37,8.79,5.12,8.79,5.12,-5.12,-5.20,-4.97,3.67,3.67,3.67
106.42,8.75,5.13,8.75,5.14,-5.14,-5.21,-5.04,3.61,3.62,3.62
107.48,8.72,5.15,8.72,5.15,-5.16,-5.22,-5.10,3.56,3.56,3.57
108.56,8.69,5.17,8.69,5.17,-5.17,-5.23,-5.17,3.52,3.52,3.52
109.64,8.66,5.19,8.66,5.19,-5.19,-5.24,-5.24,3.47,3.47,3.47
110.74,8.63,5.21,8.63,5.21,-5.21,-5.24,-5.30,3.42,3.42,3.42
111.85,8.59,5.22,8.59,5.22,-5.22,-5.25,-5.37,3.37,3.37,3.37
112.97,8.56,5.24,8.55,5.23,-5.23,-5.25,-5.42,3.33,3.32,3.32
114.10,8.51,5.24,8.52,5.24,-5.25,-5.25,-5.48,3.26,3.27,3.27
115.24,8.48,5.26,8.48,5.26,-5.26,-5.25,-5.53,3.22,3.23,3.23
116.39,8.45,5.27,8.44,5.27,-5.26,-5.25,-5.58,3.19,3.18,3.18
117.55,8.40,5.27,8.40,5.27,-5.27,-5.25,-5.63,3.13,3.13,3.13
118.73,8.36,5.28,8.36,5.28,-5.28,-5.24,-5.66,3.08,3.09,3.08
119.92,8.32,5.28,8.32,5.28,-5.28,-5.24,-5.70,3.04,3.04,3.05
121.12,8.28,5.28,8.28,5.28,-5.28,-5.23,-5.72,3.00,3.00,3.00
122.33,8.24,5.28,8.24,5.28,-5.28,-5.22,-5.74,2.96,2.96,2.96
123.55,8.20,5.28,8.20,5.28,-5.28,-5.21,-5.76,2.92,2.92,2.92
124.79,8.16,5.28,8.16,5.28,-5.28,-5.20,-5.76,2.88,2.88,2.88
126.03,8.12,5.28,8.12,5.28,-5.28,-5.19,-5.77,2.84,2.84,2.84
127.29,8.07,5.27,8.08,5.27,-5.28,-5.18,-5.76,2.79,2.80,2.80
128.57,8.03,5.26,8.03,5.27,-5.27,-5.17,-5.75,2.76,2.76,2.77
129.85,8.00,5.28,7.99,5.27,-5.27,-5.16,-5.73,2.73,2.73,2.72
131.15,7.95,5.26,7.96,5.27,-5.26,-5.14,-5.70,2.69,2.69,2.69
132.46,7.92,5.26,7.92,5.26,-5.25,-5.13,-5.67,2.67,2.66,2.66
133.79,7.87,5.24,7.87,5.25,-5.25,-5.11,-5.64,2.62,2.63,2.63
135.12,7.83,5.24,7.83,5.24,-5.24,-5.10,-5.60,2.59,2.60,2.59
136.48,7.79,5.23,7.79,5.22,-5.23,-5.08,-5.55,2.57,2.56,2.56
137.84,7.75,5.21,7.75,5.21,-5.21,-5.06,-5.50,2.54,2.54,2.54
139.22,7.71,5.20,7.71,5.20,-5.20,-5.04,-5.45,2.51,2.51,2.51
140.61,7.67,5.19,7.67,5.18,-5.18,-5.03,-5.40,2.49,2.49,2.48
142.02,7.64,5.17,7.63,5.17,-5.17,-5.01,-5.34,2.47,2.47,2.47
143.44,7.59,5.14,7.59,5.15,-5.15,-4.99,-5.28,2.44,2.44,2.45
144.87,7.55,5.13,7.56,5.13,-5.13,-4.97,-5.22,2.42,2.42,2.42
146.32,7.52,5.12,7.52,5.11,-5.11,-4.95,-5.15,2.41,2.40,2.40
147.78,7.48,5.09,7.48,5.10,-5.09,-4.93,-5.09,2.39,2.39,2.39
149.26,7.44,5.08,7.44,5.08,-5.07,-4.91,-5.03,2.37,2.37,2.36
150.75,7.40,5.05,7.40,5.05,-5.05,-4.89,-4.97,2.35,2.35,2.35
152.26,7.36,5.03,7.36,5.03,-5.03,-4.87,-4.91,2.33,2.33,2.33
153.78,7.32,5.00,7.32,5.00,-5.00,-4.85,-4.85,2.32,2.32,2.32
155.32,7.28,4.97,7.28,4.97,-4.98,-4.83,-4.79,2.31,2.31,2.31
156.88,7.24,4.95,7.24,4.95,-4.95,-4.81,-4.73,2.29,2.29,2.29
158.44,7.20,4.92,7.20,4.92,-4.92,-4.79,-4.68,2.28,2.28,2.28
160.03,7.16,4.89,7.16,4.89,-4.89,-4.77,-4.63,2.27,2.27,2.27
161.63,7.12,4.86,7.12,4.86,-4.86,-4.74,-4.58,2.26,2.26,2.26
163.24,7.08,4.83,7.08,4.84,-4.83,-4.72,-4.53,2.25,2.25,2.25
164.88,7.05,4.81,7.05,4.81,-4.81,-4.70,-4.48,2.24,2.24,2.24
166.53,7.01,4.78,7.01,4.78,-4.78,-4.68,-4.44,2.23,2.23,2.23
168.19,6.97,4.75,6.97,4.75,-4.75,-4.66,-4.40,2.22,2.22,2.22
169.87,6.92,4.71,6.93,4.72,-4.72,-4.64,-4.37,2.20,2.21,2.21
171.57,6.89,4.70,6.88,4.69,-4.69,-4.62,-4.34,2.20,2.20,2.20
173.29,6.84,4.65,6.85,4.66,-4.66,-4.60,-4.31,2.18,2.19,2.19
175.02,6.81,4.63,6.81,4.63,-4.63,-4.58,-4.28,2.18,2.18,2.18
176.77,6.77,4.61,6.77,4.60,-4.60,-4.55,-4.26,2.17,2.17,2.17
178.54,6.73,4.57,6.73,4.57,-4.57,-4.53,-4.24,2.16,2.16,2.16
180.32,6.69,4.55,6.69,4.54,-4.54,-4.51,-4.22,2.15,2.14,2.14
182.13,6.64,4.51,6.64,4.51,-4.52,-4.49,-4.21,2.12,2.13,2.13
183.95,6.60,4.48,6.61,4.49,-4.49,-4.47,-4.20,2.11,2.12,2.12
185.79,6.57,4.47,6.57,4.46,-4.46,-4.45,-4.20,2.11,2.10,2.10
187.65,6.53,4.44,6.53,4.44,-4.43,-4.43,-4.19,2.10,2.09,2.09
189.52,6.48,4.40,6.48,4.41,-4.41,-4.41,-4.19,2.07,2.08,2.08
191.42,6.44,4.38,6.44,4.38,-4.38,-4.39,-4.19,2.06,2.06,2.06
193.33,6.40,4.35,6.40,4.35,-4.35,-4.37,-4.20,2.05,2.05,2.05
195.27,6.36,4.32,6.36,4.32,-4.32,-4.35,-4.21,2.04,2.04,2.04
197.22,6.31,4.29,6.31,4.29,-4.29,-4.33,-4.22,2.02,2.02,2.02
199.19,6.27,4.26,6.27,4.27,-4.27,-4.31,-4.23,2.00,2.01,2.01
201.18,6.23,4.24,6.23,4.24,-4.24,-4.29,-4.25,1.99,1.99,1.99
203.19,6.19,4.21,6.19,4.21,-4.21,-4.27,-4.26,1.98,1.97,1.98
205.23,6.14,4.18,6.15,4.19,-4.19,-4.25,-4.28,1.95,1.96,1.96
207.28,6.11,4.16,6.11,4.17,-4.17,-4.23,-4.30,1.95,1.94,1.95
209.35,6.07,4.14,6.07,4.14,-4.14,-4.21,-4.32,1.93,1.93,1.93
211.44,6.04,4.13,6.04,4.12,-4.12,-4.18,-4.34,1.92,1.92,1.91
213.56,5.99,4.09,6.00,4.10,-4.10,-4.16,-4.36,1.89,1.90,1.90
215.69,5.96,4.08,5.96,4.07,-4.08,-4.14,-4.38,1.88,1.88,1.88
217.85,5.92,4.05,5.92,4.05,-4.06,-4.12,-4.40,1.86,1.87,1.87
220.03,5.89,4.03,5.89,4.04,-4.04,-4.10,-4.42,1.85,1.86,1.86
222.23,5.87,4.02,5.87,4.02,-4.02,-4.08,-4.44,1.85,1.85,1.85
224.45,5.84,4.00,5.84,4.00,-4.00,-4.06,-4.46,1.84,1.84,1.84
226.70,5.81,3.98,5.81,3.98,-3.98,-4.04,-4.47,1.83,1.84,1.84
228.96,5.79,3.96,5.79,3.96,-3.96,-4.02,-4.48,1.83,1.83,1.83
231.25,5.76,3.94,5.76,3.94,-3.93,-4.00,-4.49,1.83,1.83,1.82
233.57,5.73,3.90,5.73,3.91,-3.91,-3.98,-4.50,1.82,1.82,1.83
235.90,5.71,3.89,5.71,3.88,-3.88,-3.96,-4.50,1.83,1.82,1.82
238.26,5.68,3.86,5.68,3.86,-3.86,-3.94,-4.50,1.83,1.83,1.82
240.64,5.65,3.82,5.65,3.83,-3.82,-3.92,-4.49,1.83,1.83,1.83
243.05,5.63,3.81,5.62,3.80,-3.79,-3.90,-4.48,1.84,1.83,1.82
245.48,5.59,3.76,5.59,3.76,-3.76,-3.87,-4.47,1.83,1.83,1.83
247.93,5.56,3.73,5.56,3.73,-3.73,-3.85,-4.45,1.83,1.83,1.83
250.41,5.54,3.70,5.54,3.70,-3.70,-3.83,-4.42,1.84,1.83,1.84
252.92,5.51,3.68,5.51,3.67,-3.68,-3.81,-4.39,1.83,1.83,1.83
255.45,5.49,3.65,5.49,3.65,-3.66,-3.79,-4.36,1.83,1.83,1.84
258.00,5.47,3.63,5.48,3.63,-3.64,-3.76,-4.32,1.83,1.84,1.85
260.58,5.47,3.63,5.46,3.62,-3.62,-3.74,-4.27,1.85,1.84,1.84
263.19,5.45,3.61,5.45,3.61,-3.61,-3.72,-4.22,1.84,1.84,1.84
265.82,5.44,3.60,5.44,3.60,-3.60,-3.70,-4.17,1.84,1.84,1.84
268.48,5.43,3.59,5.43,3.60,-3.59,-3.67,-4.11,1.84,1.84,1.84
271.16,5.43,3.59,5.42,3.59,-3.58,-3.65,-4.04,1.85,1.84,1.84
273.87,5.41,3.58,5.41,3.57,-3.57,-3.63,-3.98,1.84,1.84,1.83
276.61,5.39,3.55,5.40,3.56,-3.56,-3.60,-3.91,1.83,1.84,1.84
279.38,5.38,3.54,5.38,3.54,-3.54,-3.58,-3.83,1.84,1.84,1.84
282.17,5.37,3.54,5.37,3.53,-3.53,-3.55,-3.76,1.84,1.83,1.83
284.99,5.35,3.51,5.35,3.52,-3.52,-3.53,-3.68,1.83,1.84,1.84
287.84,5.34,3.50,5.34,3.50,-3.51,-3.50,-3.60,1.83,1.84,1.84
290.72,5.34,3.50,5.34,3.49,-3.50,-3.48,-3.52,1.84,1.84,1.85
293.63,5.33,3.49,5.33,3.49,-3.49,-3.45,-3.44,1.84,1.84,1.84
296.57,5.33,3.48,5.33,3.48,-3.48,-3.42,-3.36,1.85,1.85,1.85
299.53,5.33,3.48,5.33,3.48,-3.48,-3.40,-3.27,1.85,1.85,1.85
302.53,5.33,3.48,5.33,3.47,-3.47,-3.37,-3.19,1.86,1.86,1.86
305.55,5.32,3.46,5.33,3.46,-3.46,-3.34,-3.10,1.86,1.86,1.86
308.61,5.33,3.46,5.33,3.45,-3.45,-3.31,-3.02,1.88,1.87,1.87
311.69,5.32,3.44,5.32,3.44,-3.44,-3.28,-2.94,1.88,1.88,1.88
314.81,5.32,3.43,5.32,3.43,-3.43,-3.26,-2.85,1.89,1.89,1.89
317.96,5.31,3.42,5.31,3.42,-3.42,-3.23,-2.77,1.89,1.90,1.90
321.14,5.31,3.41,5.31,3.40,-3.40,-3.20,-2.69,1.91,1.90,1.90
324.35,5.30,3.39,5.30,3.39,-3.39,-3.16,-2.61,1.91,1.91,1.91
327.59,5.29,3.37,5.29,3.37,-3.38,-3.13,-2.53,1.92,1.92,1.92
330.87,5.28,3.36,5.28,3.36,-3.36,-3.10,-2.46,1.92,1.92,1.92
334.18,5.26,3.33,5.27,3.34,-3.35,-3.07,-2.38,1.91,1.92,1.93
337.52,5.26,3.34,5.25,3.33,-3.34,-3.04,-2.31,1.92,1.92,1.93
340.90,5.24,3.31,5.24,3.31,-3.32,-3.00,-2.23,1.92,1.92,1.93
344.30,5.22,3.29,5.22,3.29,-3.30,-2.97,-2.16,1.92,1.93,1.93
347.75,5.20,3.27,5.21,3.27,-3.27,-2.93,-2.09,1.93,1.94,1.93
351.23,5.18,3.25,5.18,3.25,-3.22,-2.89,-2.02,1.96,1.95,1.93
354.74,5.14,3.21,5.12,3.20,-3.17,-2.86,-1.95,1.97,1.95,1.93
358.28,5.04,3.12,5.05,3.12,-3.10,-2.82,-1.89,1.94,1.94,1.92
361.87,4.94,3.02,4.95,3.03,-3.03,-2.78,-1.82,1.91,1.92,1.92
365.49,4.84,2.93,4.84,2.93,-2.94,-2.74,-1.76,1.90,1.90,1.92
369.14,4.74,2.83,4.74,2.83,-2.84,-2.70,-1.70,1.90,1.90,1.91
372.83,4.65,2.74,4.65,2.73,-2.74,-2.65,-1.64,1.91,1.91,1.91
376.56,4.56,2.64,4.56,2.64,-2.64,-2.61,-1.58,1.92,1.91,1.92
380.33,4.46,2.54,4.46,2.54,-2.54,-2.56,-1.52,1.92,1.92,1.92
384.13,4.37,2.45,4.37,2.44,-2.45,-2.52,-1.47,1.92,1.92,1.92
387.97,4.27,2.34,4.28,2.35,-2.35,-2.47,-1.41,1.92,1.92,1.93
391.85,4.19,2.26,4.19,2.26,-2.26,-2.42,-1.36,1.93,1.93,1.93
395.77,4.10,2.16,4.10,2.16,-2.16,-2.37,-1.31,1.94,1.94,1.94
399.73,4.02,2.07,4.02,2.08,-2.07,-2.31,-1.26,1.95,1.95,1.95
403.72,3.93,1.98,3.93,1.98,-1.98,-2.26,-1.21,1.95,1.95,1.95
407.76,3.84,1.88,3.84,1.88,-1.89,-2.20,-1.16,1.95,1.95,1.96
411.84,3.75,1.79,3.76,1.79,-1.80,-2.14,-1.11,1.95,1.96,1.97
415.96,3.68,1.71,3.68,1.71,-1.71,-2.07,-1.07,1.97,1.97,1.97
420.12,3.60,1.63,3.60,1.62,-1.61,-2.01,-1.02,1.99,1.98,1.97
424.32,3.51,1.53,3.51,1.53,-1.52,-1.94,-0.98,1.99,1.99,1.98
428.56,3.43,1.44,3.43,1.44,-1.43,-1.87,-0.94,2.00,2.00,1.99
432.85,3.35,1.35,3.35,1.35,-1.35,-1.79,-0.89,2.00,2.01,2.00
437.18,3.28,1.27,3.27,1.26,-1.27,-1.71,-0.85,2.01,2.01,2.01
441.55,3.20,1.18,3.20,1.17,-1.19,-1.63,-0.81,2.01,2.01,2.02
445.96,3.11,1.08,3.13,1.10,-1.11,-1.54,-0.77,2.00,2.01,2.03
450.42,3.07,1.03,3.07,1.03,-1.04,-1.45,-0.73,2.03,2.03,2.04
454.93,3.02,0.97,3.02,0.97,-0.97,-1.36,-0.69,2.05,2.05,2.05
459.48,2.97,0.91,2.97,0.91,-0.90,-1.25,-0.66,2.07,2.07,2.06
464.07,2.90,0.83,2.90,0.83,-0.82,-1.14,-0.62,2.08,2.08,2.07
468.71,2.83,0.75,2.83,0.76,-0.75,-1.03,-0.59,2.08,2.09,2.08
473.40,2.76,0.67,2.76,0.67,-0.67,-0.91,-0.55,2.09,2.09,2.09
478.13,2.68,0.58,2.68,0.58,-0.58,-0.78,-0.52,2.10,2.10,2.10
482.91,2.59,0.47,2.59,0.48,-0.48,-0.65,-0.48,2.11,2.11,2.12
487.74,2.50,0.37,2.50,0.37,-0.37,-0.51,-0.45,2.13,2.13,2.13
492.62,2.41,0.26,2.41,0.26,-0.26,-0.36,-0.41,2.15,2.15,2.15
497.55,2.31,0.15,2.31,0.15,-0.14,-0.20,-0.38,2.17,2.16,2.16
502.52,2.19,0.01,2.20,0.02,-0.02,-0.03,-0.35,2.17,2.18,2.18
507.55,2.08,-0.12,2.08,-0.11,0.12,0.14,-0.32,2.20,2.20,2.20
512.62,1.96,-0.26,1.96,-0.25,0.25,0.31,-0.29,2.21,2.21,2.22
517.75,1.84,-0.38,1.84,-0.39,0.39,0.49,-0.26,2.23,2.23,2.23
522.93,1.71,-0.53,1.71,-0.53,0.54,0.68,-0.23,2.25,2.25,2.25
528.16,1.58,-0.68,1.58,-0.68,0.68,0.86,-0.20,2.26,2.26,2.27
533.44,1.46,-0.81,1.45,-0.82,0.82,1.04,-0.17,2.28,2.28,2.27
538.77,1.32,-0.97,1.32,-0.97,0.97,1.21,-0.14,2.29,2.29,2.29
544.16,1.20,-1.10,1.20,-1.11,1.11,1.37,-0.11,2.31,2.30,2.30
549.60,1.07,-1.24,1.07,-1.24,1.24,1.52,-0.08,2.31,2.32,2.31
