frequency,raw,error,smoothed,error_smoothed,equalization,parametric_eq,fixed_band_eq,equalized_raw,equalized_smoothed,target
20.00,-3.70,-7.54,-3.70,-7.53,6.00,5.34,2.28,2.30,2.30,3.84
20.20,-3.64,-7.45,-3.64,-7.45,6.00,5.38,2.34,2.36,2.36,3.81
20.40,-3.58,-7.37,-3.58,-7.37,6.00,5.43,2.41,2.42,2.42,3.79
20.61,-3.52,-7.29,-3.52,-7.28,6.00,5.49,2.48,2.48,2.48,3.77
20.81,-3.46,-7.20,-3.46,-7.20,6.00,5.55,2.55,2.54,2.54,3.74
21.02,-3.39,-7.11,-3.39,-7.12,6.00,5.62,2.63,2.61,2.61,3.72
21.23,-3.33,-7.03,-3.33,-7.03,6.00,5.69,2.70,2.67,2.67,3.70
21.44,-3.27,-6.95,-3.27,-6.95,6.00,5.77,2.78,2.73,2.73,3.68
21.66,-3.21,-6.87,-3.21,-6.87,6.00,5.86,2.86,2.79,2.79,3.66
21.87,-3.15,-6.80,-3.15,-6.80,6.00,5.95,2.95,2.85,2.85,3.65
22.09,-3.09,-6.72,-3.09,-6.72,6.00,6.04,3.03,2.91,2.91,3.63
22.31,-3.03,-6.65,-3.03,-6.65,6.00,6.13,3.12,2.97,2.97,3.62
22.54,-2.97,-6.58,-2.97,-6.58,6.00,6.22,3.21,3.03,3.03,3.61
22.76,-2.91,-6.51,-2.91,-6.51,6.00,6.30,3.31,3.09,3.09,3.60
22.99,-2.85,-6.44,-2.85,-6.44,6.00,6.37,3.40,3.15,3.15,3.59
23.22,-2.79,-6.37,-2.79,-6.37,6.01,6.40,3.50,3.22,3.21,3.58
23.45,-2.74,-6.31,-2.74,-6.30,6.01,6.43,3.60,3.27,3.27,3.57
23.69,-2.68,-6.24,-2.68,-6.24,6.01,6.41,3.70,3.33,3.33,3.56
23.92,-2.62,-6.18,-2.62,-6.17,6.01,6.39,3.80,3.39,3.39,3.56
24.16,-2.56,-6.10,-2.56,-6.11,5.99,6.32,3.91,3.44,3.44,3.55
24.40,-2.50,-6.04,-2.50,-6.04,5.97,6.24,4.01,3.47,3.47,3.54
24.65,-2.44,-5.97,-2.44,-5.98,5.94,6.14,4.12,3.50,3.50,3.53
24.89,-2.38,-5.91,-2.38,-5.91,5.90,6.03,4.23,3.52,3.52,3.53
25.14,-2.33,-5.85,-2.33,-5.85,5.85,5.91,4.34,3.52,3.52,3.52
25.39,-2.27,-5.78,-2.27,-5.78,5.79,5.80,4.45,3.52,3.52,3.51
25.65,-2.21,-5.72,-2.21,-5.72,5.73,5.68,4.57,3.52,3.52,3.51
25.91,-2.15,-5.65,-2.15,-5.65,5.66,5.56,4.68,3.51,3.51,3.50
26.16,-2.09,-5.59,-2.09,-5.59,5.59,5.45,4.79,3.51,3.50,3.50
26.43,-2.04,-5.54,-2.04,-5.53,5.53,5.35,4.90,3.49,3.49,3.50
26.69,-1.98,-5.46,-1.98,-5.47,5.47,5.25,5.01,3.49,3.49,3.48
26.96,-1.93,-5.41,-1.93,-5.41,5.41,5.16,5.12,3.48,3.48,3.48
27.23,-1.87,-5.34,-1.87,-5.35,5.35,5.08,5.22,3.48,3.48,3.47
27.50,-1.82,-5.29,-1.82,-5.29,5.29,5.00,5.33,3.47,3.47,3.47
27.77,-1.76,-5.23,-1.76,-5.23,5.23,4.93,5.43,3.47,3.47,3.47
28.05,-1.71,-5.17,-1.71,-5.17,5.17,4.86,5.52,3.46,3.46,3.46
28.33,-1.66,-5.12,-1.66,-5.12,5.12,4.80,5.61,3.46,3.46,3.46
28.62,-1.61,-5.07,-1.61,-5.06,5.06,4.74,5.70,3.45,3.45,3.46
28.90,-1.56,-5.00,-1.56,-5.01,5.00,4.69,5.77,3.44,3.44,3.44
29.19,-1.51,-4.95,-1.51,-4.95,4.95,4.64,5.85,3.44,3.44,3.44
29.48,-1.46,-4.90,-1.46,-4.90,4.90,4.59,5.91,3.44,3.44,3.44
29.78,-1.41,-4.85,-1.41,-4.85,4.85,4.54,5.97,3.44,3.44,3.44
30.08,-1.36,-4.80,-1.36,-4.80,4.80,4.50,6.01,3.44,3.44,3.44
30.38,-1.32,-4.75,-1.32,-4.75,4.76,4.46,6.05,3.44,3.43,3.42
30.68,-1.29,-4.71,-1.29,-4.71,4.71,4.42,6.08,3.42,3.42,3.42
30.99,-1.25,-4.67,-1.25,-4.67,4.67,4.38,6.10,3.42,3.42,3.42
31.30,-1.21,-4.63,-1.21,-4.63,4.62,4.35,6.10,3.41,3.41,3.42
31.61,-1.17,-4.58,-1.17,-4.58,4.58,4.31,6.11,3.41,3.41,3.41
31.93,-1.13,-4.53,-1.13,-4.53,4.53,4.28,6.09,3.40,3.40,3.40
32.24,-1.09,-4.49,-1.09,-4.49,4.49,4.25,6.07,3.40,3.40,3.40
32.57,-1.05,-4.44,-1.05,-4.44,4.44,4.22,6.04,3.39,3.39,3.39
32.89,-1.00,-4.39,-1.00,-4.39,4.39,4.19,6.01,3.39,3.39,3.39
33.22,-0.96,-4.34,-0.96,-4.34,4.34,4.16,5.96,3.38,3.38,3.38
33.55,-0.92,-4.29,-0.92,-4.29,4.30,4.13,5.90,3.38,3.38,3.37
33.89,-0.88,-4.25,-0.88,-4.25,4.25,4.10,5.84,3.37,3.37,3.37
34.23,-0.84,-4.21,-0.84,-4.20,4.20,4.07,5.77,3.36,3.36,3.36
34.57,-0.81,-4.16,-0.81,-4.16,4.16,4.04,5.69,3.35,3.35,3.35
34.92,-0.77,-4.12,-0.77,-4.12,4.12,4.02,5.61,3.35,3.35,3.35
35.27,-0.73,-4.08,-0.73,-4.07,4.07,3.99,5.53,3.34,3.34,3.35
35.62,-0.70,-4.03,-0.70,-4.03,4.03,3.96,5.44,3.33,3.34,3.33
35.97,-0.66,-3.99,-0.66,-3.99,3.99,3.94,5.35,3.33,3.33,3.33
36.33,-0.63,-3.95,-0.63,-3.95,3.96,3.91,5.25,3.33,3.33,3.32
36.70,-0.60,-3.92,-0.60,-3.92,3.92,3.89,5.16,3.32,3.32,3.32
37.06,-0.57,-3.89,-0.57,-3.88,3.88,3.86,5.06,3.31,3.31,3.32
37.43,-0.54,-3.84,-0.54,-3.85,3.85,3.84,4.96,3.31,3.30,3.30
37.81,-0.52,-3.82,-0.52,-3.81,3.81,3.81,4.86,3.29,3.30,3.30
38.19,-0.49,-3.78,-0.49,-3.78,3.78,3.78,4.76,3.29,3.29,3.29
38.57,-0.46,-3.74,-0.46,-3.74,3.74,3.76,4.66,3.28,3.28,3.28
38.95,-0.43,-3.70,-0.43,-3.70,3.70,3.73,4.57,3.27,3.27,3.27
39.34,-0.40,-3.66,-0.40,-3.66,3.66,3.71,4.47,3.26,3.26,3.26
39.74,-0.37,-3.62,-0.37,-3.62,3.62,3.68,4.38,3.25,3.25,3.25
40.14,-0.34,-3.58,-0.34,-3.58,3.58,3.66,4.28,3.24,3.24,3.24
40.54,-0.31,-3.54,-0.31,-3.54,3.55,3.63,4.19,3.24,3.24,3.23
40.94,-0.28,-3.51,-0.28,-3.51,3.51,3.61,4.10,3.23,3.23,3.23
41.35,-0.26,-3.48,-0.26,-3.48,3.48,3.58,4.02,3.22,3.22,3.22
41.76,-0.23,-3.44,-0.23,-3.45,3.45,3.56,3.93,3.22,3.22,3.21
42.18,-0.21,-3.42,-0.21,-3.42,3.42,3.53,3.85,3.21,3.21,3.21
42.60,-0.18,-3.38,-0.18,-3.39,3.39,3.51,3.77,3.21,3.20,3.20
43.03,-0.16,-3.36,-0.16,-3.36,3.36,3.48,3.69,3.20,3.20,3.20
43.46,-0.13,-3.33,-0.13,-3.33,3.32,3.46,3.62,3.19,3.19,3.20
43.90,-0.11,-3.30,-0.11,-3.30,3.29,3.43,3.55,3.18,3.19,3.19
44.33,-0.08,-3.26,-0.08,-3.26,3.26,3.41,3.48,3.18,3.18,3.18
44.78,-0.05,-3.22,-0.05,-3.23,3.23,3.38,3.41,3.18,3.18,3.17
45.23,-0.03,-3.20,-0.03,-3.19,3.20,3.36,3.35,3.17,3.17,3.17
45.68,-0.01,-3.17,-0.01,-3.16,3.17,3.33,3.29,3.16,3.16,3.16
46.13,0.01,-3.14,0.01,-3.14,3.14,3.30,3.23,3.15,3.15,3.15
46.60,0.03,-3.11,0.03,-3.11,3.11,3.28,3.17,3.14,3.14,3.14
47.06,0.04,-3.09,0.04,-3.08,3.08,3.25,3.12,3.12,3.13,3.13
47.53,0.06,-3.05,0.06,-3.05,3.06,3.22,3.07,3.12,3.11,3.11
48.01,0.07,-3.03,0.07,-3.03,3.03,3.20,3.02,3.10,3.10,3.10
48.49,0.08,-3.01,0.08,-3.01,3.01,3.17,2.98,3.09,3.09,3.09
48.97,0.09,-2.99,0.09,-2.99,2.99,3.14,2.93,3.08,3.08,3.08
49.46,0.10,-2.97,0.10,-2.97,2.97,3.11,2.89,3.07,3.07,3.07
49.96,0.11,-2.94,0.11,-2.94,2.94,3.08,2.85,3.05,3.05,3.05
50.46,0.12,-2.92,0.12,-2.92,2.92,3.06,2.81,3.04,3.04,3.04
50.96,0.13,-2.90,0.13,-2.90,2.90,3.03,2.78,3.03,3.03,3.03
51.47,0.14,-2.89,0.14,-2.88,2.87,3.00,2.74,3.01,3.02,3.03
51.99,0.16,-2.85,0.16,-2.85,2.85,2.97,2.71,3.01,3.01,3.01
52.51,0.18,-2.82,0.18,-2.82,2.82,2.94,2.68,3.00,3.00,3.00
53.03,0.20,-2.78,0.20,-2.79,2.79,2.91,2.65,2.99,2.99,2.98
53.56,0.22,-2.75,0.22,-2.75,2.76,2.88,2.62,2.98,2.97,2.97
54.10,0.23,-2.73,0.24,-2.72,2.73,2.85,2.59,2.96,2.96,2.96
54.64,0.26,-2.69,0.25,-2.69,2.70,2.82,2.56,2.96,2.95,2.95
55.18,0.27,-2.66,0.27,-2.66,2.67,2.79,2.53,2.94,2.93,2.93
55.74,0.28,-2.63,0.29,-2.63,2.64,2.76,2.51,2.92,2.92,2.91
56.29,0.30,-2.61,0.30,-2.61,2.61,2.73,2.48,2.91,2.90,2.91
56.86,0.31,-2.58,0.31,-2.58,2.58,2.69,2.45,2.89,2.89,2.89
57.42,0.32,-2.55,0.32,-2.55,2.55,2.66,2.42,2.87,2.87,2.87
58.00,0.34,-2.52,0.34,-2.52,2.51,2.63,2.40,2.85,2.85,2.86
58.58,0.36,-2.48,0.36,-2.48,2.48,2.60,2.37,2.84,2.84,2.84
59.16,0.38,-2.44,0.38,-2.44,2.44,2.56,2.34,2.82,2.82,2.82
59.76,0.40,-2.41,0.40,-2.41,2.40,2.53,2.31,2.80,2.80,2.81
60.35,0.42,-2.37,0.42,-2.37,2.36,2.49,2.28,2.78,2.79,2.79
60.96,0.44,-2.32,0.44,-2.33,2.32,2.46,2.24,2.76,2.76,2.76
61.57,0.46,-2.28,0.46,-2.28,2.29,2.42,2.21,2.75,2.74,2.74
62.18,0.47,-2.25,0.47,-2.24,2.25,2.39,2.18,2.72,2.72,2.72
62.80,0.49,-2.20,0.49,-2.21,2.21,2.35,2.14,2.70,2.70,2.69
63.43,0.49,-2.18,0.49,-2.17,2.18,2.31,2.10,2.67,2.67,2.67
64.07,0.50,-2.14,0.50,-2.14,2.15,2.27,2.06,2.65,2.65,2.64
64.71,0.50,-2.12,0.50,-2.12,2.11,2.24,2.02,2.61,2.61,2.62
65.35,0.50,-2.09,0.50,-2.09,2.08,2.20,1.98,2.58,2.58,2.59
66.01,0.50,-2.06,0.50,-2.06,2.05,2.16,1.94,2.55,2.55,2.56
66.67,0.51,-2.02,0.51,-2.02,2.02,2.12,1.89,2.53,2.53,2.53
67.33,0.52,-1.98,0.52,-1.98,1.98,2.08,1.85,2.50,2.50,2.50
68.01,0.53,-1.94,0.53,-1.94,1.95,2.04,1.80,2.48,2.47,2.47
68.69,0.53,-1.91,0.53,-1.91,1.91,2.00,1.75,2.44,2.44,2.44
69.37,0.53,-1.88,0.53,-1.87,1.88,1.96,1.70,2.41,2.41,2.41
70.07,0.54,-1.83,0.54,-1.84,1.84,1.91,1.65,2.38,2.38,2.37
70.77,0.55,-1.79,0.55,-1.80,1.80,1.87,1.60,2.35,2.34,2.34
71.48,0.55,-1.77,0.55,-1.76,1.76,1.83,1.55,2.31,2.31,2.32
72.19,0.56,-1.72,0.56,-1.72,1.72,1.78,1.50,2.28,2.28,2.28
72.91,0.57,-1.68,0.57,-1.67,1.67,1.74,1.45,2.24,2.24,2.25
73.64,0.59,-1.62,0.59,-1.62,1.62,1.69,1.40,2.21,2.21,2.21
74.38,0.61,-1.57,0.61,-1.57,1.57,1.65,1.34,2.18,2.18,2.18
75.12,0.62,-1.52,0.63,-1.52,1.52,1.60,1.29,2.14,2.15,2.14
75.87,0.65,-1.46,0.64,-1.47,1.47,1.55,1.24,2.12,2.11,2.11
76.63,0.66,-1.41,0.66,-1.41,1.41,1.51,1.18,2.07,2.07,2.07
77.40,0.68,-1.35,0.68,-1.35,1.35,1.46,1.13,2.03,2.04,2.03
78.17,0.70,-1.30,0.70,-1.30,1.30,1.41,1.08,2.00,2.00,2.00
78.95,0.72,-1.24,0.72,-1.24,1.24,1.36,1.03,1.96,1.96,1.96
79.74,0.73,-1.18,0.73,-1.18,1.18,1.31,0.97,1.91,1.92,1.91
80.54,0.75,-1.13,0.75,-1.12,1.13,1.26,0.92,1.88,1.88,1.88
81.35,0.77,-1.07,0.77,-1.07,1.07,1.21,0.87,1.84,1.84,1.84
82.16,0.78,-1.01,0.78,-1.01,1.02,1.16,0.82,1.80,1.79,1.79
82.98,0.78,-0.96,0.78,-0.96,0.96,1.10,0.77,1.74,1.74,1.74
83.81,0.79,-0.91,0.79,-0.91,0.90,1.05,0.71,1.69,1.69,1.70
84.65,0.80,-0.86,0.80,-0.86,0.84,1.00,0.66,1.64,1.64,1.66
85.50,0.81,-0.80,0.81,-0.79,0.79,0.95,0.61,1.60,1.60,1.61
86.35,0.83,-0.73,0.83,-0.73,0.73,0.89,0.56,1.56,1.56,1.56
87.22,0.85,-0.66,0.84,-0.67,0.68,0.84,0.51,1.53,1.52,1.51
88.09,0.85,-0.61,0.85,-0.61,0.63,0.78,0.46,1.48,1.47,1.46
88.97,0.84,-0.57,0.84,-0.57,0.57,0.73,0.41,1.41,1.42,1.41
89.86,0.83,-0.53,0.83,-0.53,0.52,0.67,0.36,1.35,1.35,1.36
90.76,0.82,-0.49,0.82,-0.48,0.47,0.62,0.32,1.29,1.30,1.31
91.66,0.82,-0.43,0.82,-0.43,0.43,0.56,0.27,1.25,1.24,1.25
92.58,0.82,-0.38,0.82,-0.38,0.38,0.50,0.22,1.20,1.20,1.20
93.51,0.82,-0.33,0.82,-0.33,0.33,0.45,0.17,1.15,1.15,1.15
94.44,0.82,-0.27,0.82,-0.27,0.28,0.39,0.12,1.10,1.10,1.09
95.39,0.82,-0.22,0.82,-0.22,0.22,0.33,0.08,1.04,1.04,1.04
96.34,0.82,-0.16,0.82,-0.17,0.17,0.28,0.03,0.99,0.99,0.98
97.30,0.82,-0.12,0.82,-0.11,0.11,0.22,-0.02,0.93,0.93,0.94
98.28,0.82,-0.06,0.82,-0.06,0.06,0.16,-0.06,0.88,0.88,0.88
99.26,0.82,-0.01,0.82,-0.01,0.00,0.10,-0.11,0.82,0.82,0.83
100.25,0.82,0.05,0.82,0.05,-0.05,0.05,-0.16,0.77,0.77,0.77
101.25,0.82,0.10,0.82,0.11,-0.10,-0.01,-0.20,0.72,0.72,0.72
102.27,0.82,0.16,0.82,0.16,-0.16,-0.07,-0.25,0.66,0.66,0.66
103.29,0.82,0.22,0.82,0.21,-0.21,-0.13,-0.29,0.61,0.61,0.60
104.32,0.82,0.26,0.82,0.27,-0.27,-0.18,-0.33,0.55,0.55,0.56
105.37,0.82,0.32,0.82,0.32,-0.32,-0.24,-0.38,0.50,0.50,0.50
106.42,0.82,0.38,0.82,0.37,-0.37,-0.30,-0.42,0.45,0.45,0.44
107.48,0.82,0.42,0.82,0.43,-0.43,-0.35,-0.46,0.39,0.39,0.40
108.56,0.82,0.48,0.82,0.48,-0.48,-0.41,-0.51,0.34,0.34,0.34
109.64,0.82,0.53,0.82,0.53,-0.53,-0.47,-0.55,0.29,0.29,0.29
110.74,0.82,0.59,0.82,0.59,-0.59,-0.52,-0.59,0.23,0.23,0.23
111.85,0.82,0.65,0.82,0.64,-0.65,-0.58,-0.63,0.17,0.17,0.17
112.97,0.82,0.69,0.82,0.70,-0.71,-0.63,-0.67,0.11,0.12,0.13
114.10,0.83,0.76,0.83,0.76,-0.76,-0.69,-0.70,0.07,0.07,0.07
115.24,0.84,0.82,0.84,0.82,-0.82,-0.74,-0.74,0.02,0.02,0.02
116.39,0.85,0.89,0.85,0.88,-0.87,-0.80,-0.77,-0.02,-0.03,-0.04
117.55,0.85,0.93,0.85,0.93,-0.92,-0.85,-0.81,-0.07,-0.08,-0.08
118.73,0.84,0.97,0.84,0.97,-0.97,-0.90,-0.84,-0.13,-0.13,-0.13
119.92,0.82,1.01,0.82,1.01,-1.00,-0.96,-0.87,-0.18,-0.18,-0.19
121.12,0.80,1.04,0.80,1.04,-1.04,-1.01,-0.90,-0.24,-0.23,-0.24
122.33,0.78,1.06,0.78,1.06,-1.06,-1.06,-0.93,-0.28,-0.28,-0.28
123.55,0.75,1.08,0.75,1.08,-1.08,-1.11,-0.96,-0.33,-0.33,-0.33
124.79,0.72,1.10,0.71,1.09,-1.09,-1.16,-0.99,-0.37,-0.38,-0.38
126.03,0.67,1.10,0.68,1.10,-1.11,-1.21,-1.01,-0.44,-0.43,-0.43
127.29,0.65,1.12,0.65,1.12,-1.12,-1.26,-1.04,-0.47,-0.47,-0.47
128.57,0.62,1.14,0.61,1.13,-1.13,-1.30,-1.06,-0.51,-0.52,-0.52
129.85,0.58,1.14,0.58,1.14,-1.14,-1.35,-1.08,-0.56,-0.56,-0.56
131.15,0.54,1.15,0.55,1.16,-1.16,-1.40,-1.10,-0.62,-0.61,-0.61
132.46,0.53,1.18,0.52,1.17,-1.18,-1.44,-1.12,-0.65,-0.66,-0.65
133.79,0.50,1.20,0.50,1.20,-1.20,-1.49,-1.14,-0.70,-0.71,-0.70
135.12,0.48,1.22,0.48,1.23,-1.24,-1.53,-1.16,-0.76,-0.75,-0.74
136.48,0.47,1.26,0.47,1.26,-1.27,-1.57,-1.17,-0.80,-0.80,-0.79
137.84,0.48,1.31,0.47,1.31,-1.31,-1.62,-1.19,-0.83,-0.84,-0.83
139.22,0.48,1.35,0.48,1.36,-1.35,-1.66,-1.21,-0.87,-0.87,-0.87
140.61,0.49,1.41,0.49,1.41,-1.40,-1.70,-1.22,-0.91,-0.91,-0.92
142.02,0.50,1.45,0.50,1.45,-1.44,-1.74,-1.24,-0.94,-0.95,-0.95
143.44,0.50,1.49,0.50,1.49,-1.49,-1.78,-1.25,-0.99,-0.98,-0.99
144.87,0.50,1.53,0.50,1.53,-1.53,-1.81,-1.27,-1.03,-1.03,-1.03
146.32,0.50,1.56,0.50,1.57,-1.57,-1.85,-1.28,-1.07,-1.07,-1.06
147.78,0.50,1.60,0.50,1.60,-1.60,-1.89,-1.30,-1.10,-1.10,-1.10
149.26,0.50,1.64,0.50,1.63,-1.64,-1.92,-1.31,-1.14,-1.14,-1.14
150.75,0.50,1.66,0.50,1.67,-1.67,-1.96,-1.33,-1.17,-1.17,-1.16
152.26,0.50,1.70,0.50,1.70,-1.70,-1.99,-1.35,-1.20,-1.20,-1.20
153.78,0.50,1.74,0.50,1.73,-1.73,-2.02,-1.36,-1.23,-1.23,-1.24
155.32,0.50,1.76,0.50,1.76,-1.77,-2.05,-1.38,-1.27,-1.27,-1.26
156.88,0.50,1.80,0.50,1.80,-1.80,-2.08,-1.40,-1.30,-1.30,-1.30
158.44,0.50,1.83,0.50,1.83,-1.83,-2.11,-1.42,-1.33,-1.33,-1.33
160.03,0.50,1.86,0.50,1.86,-1.86,-2.14,-1.44,-1.36,-1.36,-1.36
161.63,0.50,1.89,0.50,1.89,-1.89,-2.17,-1.46,-1.39,-1.39,-1.39
163.24,0.50,1.91,0.50,1.92,-1.92,-2.20,-1.49,-1.42,-1.42,-1.41
164.88,0.50,1.94,0.50,1.94,-1.94,-2.22,-1.51,-1.44,-1.44,-1.44
166.53,0.50,1.97,0.50,1.97,-1.97,-2.25,-1.53,-1.47,-1.47,-1.47
168.19,0.50,2.00,0.50,2.00,-2.00,-2.27,-1.56,-1.50,-1.50,-1.50
169.87,0.50,2.02,0.50,2.02,-2.02,-2.30,-1.59,-1.52,-1.52,-1.52
171.57,0.50,2.04,0.50,2.05,-2.05,-2.32,-1.62,-1.55,-1.55,-1.54
173.29,0.50,2.07,0.50,2.07,-2.07,-2.34,-1.65,-1.57,-1.57,-1.57
175.02,0.50,2.10,0.50,2.09,-2.09,-2.36,-1.68,-1.59,-1.59,-1.60
176.77,0.50,2.11,0.50,2.11,-2.11,-2.38,-1.71,-1.61,-1.61,-1.61
178.54,0.50,2.13,0.50,2.14,-2.13,-2.40,-1.75,-1.63,-1.63,-1.63
180.32,0.50,2.16,0.50,2.16,-2.15,-2.42,-1.78,-1.65,-1.65,-1.66
182.13,0.50,2.18,0.50,2.18,-2.17,-2.44,-1.82,-1.67,-1.68,-1.68
183.95,0.49,2.19,0.49,2.19,-2.19,-2.46,-1.86,-1.70,-1.70,-1.70
185.79,0.48,2.20,0.48,2.21,-2.21,-2.48,-1.90,-1.73,-1.72,-1.72
187.65,0.48,2.22,0.48,2.22,-2.23,-2.49,-1.94,-1.75,-1.75,-1.74
189.52,0.48,2.24,0.48,2.25,-2.25,-2.51,-1.98,-1.77,-1.77,-1.76
191.42,0.49,2.27,0.49,2.27,-2.28,-2.52,-2.02,-1.79,-1.79,-1.78
193.33,0.50,2.30,0.50,2.30,-2.31,-2.54,-2.07,-1.81,-1.81,-1.80
195.27,0.51,2.33,0.52,2.34,-2.34,-2.55,-2.11,-1.83,-1.82,-1.82
197.22,0.54,2.38,0.54,2.38,-2.38,-2.56,-2.16,-1.84,-1.84,-1.84
199.19,0.57,2.43,0.57,2.42,-2.42,-2.58,-2.21,-1.85,-1.85,-1.86
201.18,0.60,2.46,0.60,2.47,-2.47,-2.59,-2.25,-1.87,-1.87,-1.86
203.19,0.63,2.51,0.63,2.51,-2.51,-2.60,-2.30,-1.88,-1.88,-1.88
205.23,0.67,2.55,0.67,2.56,-2.56,-2.61,-2.35,-1.89,-1.89,-1.88
207.28,0.71,2.61,0.71,2.61,-2.61,-2.62,-2.40,-1.90,-1.90,-1.90
209.35,0.74,2.65,0.74,2.65,-2.65,-2.63,-2.45,-1.91,-1.91,-1.91
211.44,0.77,2.69,0.77,2.69,-2.69,-2.64,-2.50,-1.92,-1.92,-1.92
213.56,0.80,2.73,0.80,2.73,-2.73,-2.64,-2.55,-1.93,-1.93,-1.93
215.69,0.82,2.77,0.82,2.77,-2.76,-2.65,-2.59,-1.94,-1.94,-1.95
217.85,0.84,2.80,0.84,2.79,-2.78,-2.66,-2.64,-1.94,-1.95,-1.96
220.03,0.85,2.81,0.85,2.81,-2.81,-2.66,-2.69,-1.96,-1.96,-1.96
222.23,0.85,2.82,0.85,2.82,-2.82,-2.67,-2.73,-1.97,-1.97,-1.97
224.45,0.84,2.82,0.84,2.83,-2.84,-2.68,-2.77,-2.00,-1.99,-1.98
226.70,0.84,2.84,0.84,2.83,-2.84,-2.68,-2.81,-2.00,-2.00,-2.00
228.96,0.84,2.84,0.84,2.84,-2.85,-2.69,-2.85,-2.01,-2.01,-2.00
231.25,0.85,2.86,0.84,2.85,-2.85,-2.69,-2.89,-2.00,-2.01,-2.01
233.57,0.84,2.86,0.84,2.85,-2.85,-2.69,-2.92,-2.01,-2.01,-2.02
235.90,0.83,2.85,0.83,2.85,-2.84,-2.70,-2.95,-2.01,-2.01,-2.02
238.26,0.81,2.84,0.81,2.83,-2.83,-2.70,-2.98,-2.02,-2.02,-2.03
240.64,0.79,2.81,0.79,2.82,-2.81,-2.70,-3.00,-2.02,-2.02,-2.02
243.05,0.77,2.79,0.77,2.79,-2.79,-2.70,-3.02,-2.02,-2.02,-2.02
245.48,0.74,2.76,0.74,2.76,-2.76,-2.70,-3.04,-2.02,-2.02,-2.02
247.93,0.69,2.72,0.70,2.73,-2.73,-2.71,-3.05,-2.04,-2.03,-2.03
250.41,0.67,2.70,0.66,2.69,-2.69,-2.71,-3.06,-2.02,-2.03,-2.03
252.92,0.63,2.66,0.63,2.66,-2.66,-2.71,-3.06,-2.03,-2.03,-2.03
255.45,0.60,2.62,0.60,2.63,-2.63,-2.71,-3.06,-2.03,-2.03,-2.02
258.00,0.57,2.60,0.57,2.60,-2.60,-2.71,-3.06,-2.03,-2.03,-2.03
260.58,0.54,2.57,0.54,2.57,-2.57,-2.71,-3.05,-2.03,-2.03,-2.03
263.19,0.52,2.55,0.51,2.55,-2.55,-2.71,-3.04,-2.03,-2.04,-2.03
265.82,0.49,2.53,0.49,2.53,-2.54,-2.70,-3.03,-2.05,-2.04,-2.04
268.48,0.48,2.52,0.48,2.52,-2.53,-2.70,-3.01,-2.05,-2.05,-2.04
271.16,0.48,2.52,0.48,2.52,-2.53,-2.70,-3.00,-2.05,-2.05,-2.04
273.87,0.48,2.53,0.48,2.53,-2.53,-2.70,-2.97,-2.05,-2.04,-2.05
276.61,0.49,2.53,0.49,2.54,-2.53,-2.70,-2.95,-2.04,-2.04,-2.04
279.38,0.50,2.55,0.50,2.54,-2.53,-2.69,-2.92,-2.03,-2.04,-2.05
282.17,0.50,2.54,0.50,2.55,-2.54,-2.69,-2.90,-2.04,-2.04,-2.04
284.99,0.50,2.55,0.50,2.55,-2.55,-2.69,-2.87,-2.05,-2.05,-2.05
287.84,0.50,2.55,0.50,2.55,-2.56,-2.68,-2.84,-2.06,-2.06,-2.05
290.72,0.50,2.56,0.50,2.56,-2.56,-2.68,-2.81,-2.06,-2.06,-2.06
293.63,0.50,2.56,0.50,2.56,-2.57,-2.67,-2.77,-2.07,-2.07,-2.06
296.57,0.51,2.58,0.51,2.57,-2.58,-2.67,-2.74,-2.07,-2.07,-2.07
299.53,0.52,2.58,0.52,2.58,-2.58,-2.66,-2.71,-2.06,-2.06,-2.06
302.53,0.52,2.58,0.52,2.59,-2.58,-2.66,-2.68,-2.06,-2.06,-2.06
305.55,0.52,2.59,0.52,2.58,-2.58,-2.65,-2.65,-2.06,-2.06,-2.07
308.61,0.51,2.57,0.51,2.57,-2.57,-2.65,-2.61,-2.06,-2.06,-2.06
311.69,0.49,2.55,0.50,2.56,-2.55,-2.64,-2.58,-2.06,-2.06,-2.06
314.81,0.48,2.54,0.47,2.53,-2.53,-2.64,-2.55,-2.05,-2.06,-2.06
317.96,0.45,2.51,0.45,2.51,-2.51,-2.63,-2.53,-2.06,-2.06,-2.06
321.14,0.42,2.47,0.42,2.48,-2.48,-2.63,-2.50,-2.06,-2.06,-2.05
324.35,0.39,2.45,0.39,2.44,-2.44,-2.62,-2.47,-2.05,-2.06,-2.06
327.59,0.35,2.41,0.35,2.41,-2.41,-2.61,-2.45,-2.06,-2.05,-2.06
330.87,0.32,2.37,0.32,2.37,-2.37,-2.61,-2.42,-2.05,-2.05,-2.05
334.18,0.29,2.34,0.29,2.34,-2.34,-2.60,-2.40,-2.05,-2.05,-2.05
337.52,0.25,2.30,0.26,2.30,-2.30,-2.59,-2.38,-2.05,-2.05,-2.05
340.90,0.23,2.27,0.23,2.27,-2.27,-2.59,-2.36,-2.04,-2.05,-2.04
344.30,0.20,2.24,0.20,2.25,-2.25,-2.58,-2.35,-2.05,-2.05,-2.04
347.75,0.18,2.23,0.18,2.22,-2.23,-2.57,-2.33,-2.05,-2.05,-2.05
351.23,0.16,2.21,0.16,2.21,-2.21,-2.57,-2.32,-2.05,-2.05,-2.05
354.74,0.15,2.19,0.15,2.20,-2.21,-2.56,-2.31,-2.06,-2.05,-2.04
358.28,0.15,2.19,0.15,2.19,-2.20,-2.55,-2.30,-2.05,-2.05,-2.04
361.87,0.16,2.20,0.16,2.20,-2.21,-2.54,-2.29,-2.05,-2.05,-2.04
365.49,0.17,2.22,0.17,2.22,-2.21,-2.54,-2.28,-2.04,-2.04,-2.05
369.14,0.18,2.23,0.18,2.22,-2.22,-2.53,-2.28,-2.04,-2.04,-2.05
372.83,0.18,2.23,0.18,2.23,-2.22,-2.52,-2.28,-2.04,-2.04,-2.05
376.56,0.18,2.22,0.18,2.23,-2.22,-2.51,-2.28,-2.04,-2.04,-2.04
380.33,0.18,2.22,0.18,2.23,-2.22,-2.51,-2.28,-2.04,-2.04,-2.04
384.13,0.18,2.23,0.18,2.22,-2.22,-2.50,-2.28,-2.04,-2.04,-2.05
387.97,0.17,2.22,0.17,2.21,-2.21,-2.49,-2.28,-2.04,-2.04,-2.05
391.85,0.16,2.20,0.16,2.20,-2.20,-2.48,-2.29,-2.04,-2.04,-2.04
395.77,0.15,2.19,0.15,2.19,-2.19,-2.48,-2.30,-2.04,-2.04,-2.04
399.73,0.15,2.18,0.15,2.18,-2.19,-2.47,-2.30,-2.04,-2.04,-2.03
403.72,0.16,2.19,0.16,2.19,-2.19,-2.46,-2.31,-2.03,-2.04,-2.03
407.76,0.17,2.19,0.17,2.20,-2.20,-2.45,-2.32,-2.03,-2.03,-2.02
411.84,0.19,2.21,0.19,2.21,-2.21,-2.45,-2.34,-2.02,-2.03,-2.02
415.96,0.21,2.23,0.21,2.23,-2.23,-2.44,-2.35,-2.02,-2.02,-2.02
420.12,0.24,2.26,0.24,2.26,-2.26,-2.43,-2.36,-2.02,-2.02,-2.02
424.32,0.27,2.29,0.27,2.29,-2.29,-2.43,-2.37,-2.02,-2.02,-2.02
428.56,0.31,2.32,0.31,2.32,-2.32,-2.42,-2.39,-2.01,-2.01,-2.01
432.85,0.34,2.35,0.34,2.35,-2.35,-2.41,-2.40,-2.01,-2.01,-2.01
437.18,0.38,2.39,0.38,2.39,-2.39,-2.41,-2.42,-2.01,-2.01,-2.01
441.55,0.41,2.42,0.41,2.42,-2.42,-2.40,-2.43,-2.01,-2.01,-2.01
445.96,0.44,2.45,0.44,2.45,-2.45,-2.40,-2.44,-2.01,-2.01,-2.01
450.42,0.47,2.48,0.47,2.48,-2.48,-2.39,-2.46,-2.01,-2.01,-2.01
454.93,0.49,2.51,0.49,2.51,-2.50,-2.38,-2.47,-2.01,-2.01,-2.02
459.48,0.51,2.53,0.51,2.52,-2.52,-2.38,-2.48,-2.01,-2.01,-2.02
464.07,0.52,2.54,0.52,2.54,-2.53,-2.38,-2.49,-2.01,-2.01,-2.02
468.71,0.52,2.54,0.52,2.54,-2.53,-2.37,-2.50,-2.01,-2.01,-2.02
473.40,0.52,2.54,0.52,2.53,-2.53,-2.37,-2.51,-2.01,-2.01,-2.02
478.13,0.51,2.52,0.51,2.52,-2.53,-2.36,-2.51,-2.02,-2.02,-2.01
482.91,0.50,2.51,0.50,2.52,-2.52,-2.36,-2.52,-2.02,-2.02,-2.01
487.74,0.50,2.51,0.50,2.51,-2.52,-2.36,-2.52,-2.02,-2.02,-2.01
492.62,0.50,2.51,0.50,2.51,-2.51,-2.35,-2.52,-2.01,-2.01,-2.01
497.55,0.50,2.50,0.50,2.50,-2.51,-2.35,-2.52,-2.01,-2.01,-2.00
502.52,0.50,2.50,0.50,2.50,-2.51,-2.35,-2.52,-2.01,-2.01,-2.00
507.55,0.50,2.50,0.50,2.51,-2.51,-2.34,-2.51,-2.01,-2.01,-2.00
