frequency,raw,error,smoothed,error_smoothed,equalization,parametric_eq,fixed_band_eq,equalized_raw,equalized_smoothed,target
20.00,4.56,-1.31,4.55,-1.31,1.27,1.03,-0.01,5.83,5.82,5.87
20.20,4.61,-1.25,4.61,-1.24,1.23,1.01,-0.01,5.84,5.84,5.86
20.40,4.65,-1.19,4.66,-1.18,1.19,0.99,-0.00,5.84,5.85,5.84
20.61,4.70,-1.15,4.70,-1.13,1.16,0.97,0.00,5.86,5.86,5.84
20.81,4.75,-1.07,4.75,-1.08,1.12,0.95,0.01,5.87,5.87,5.82
21.02,4.79,-1.03,4.78,-1.05,1.09,0.93,0.01,5.88,5.87,5.82
21.23,4.79,-1.03,4.79,-1.03,1.06,0.91,0.01,5.85,5.85,5.82
21.44,4.79,-1.03,4.80,-1.02,1.03,0.88,0.02,5.82,5.82,5.82
21.66,4.80,-1.01,4.79,-1.02,1.01,0.86,0.02,5.81,5.80,5.81
21.87,4.80,-1.01,4.81,-1.01,0.99,0.84,0.03,5.79,5.79,5.81
22.09,4.82,-0.99,4.83,-0.98,0.96,0.81,0.03,5.78,5.79,5.81
22.31,4.87,-0.94,4.86,-0.94,0.93,0.79,0.04,5.80,5.80,5.81
22.54,4.91,-0.89,4.91,-0.90,0.89,0.77,0.04,5.80,5.80,5.80
22.76,4.96,-0.85,4.96,-0.85,0.84,0.74,0.05,5.80,5.80,5.81
22.99,5.01,-0.80,5.01,-0.80,0.79,0.71,0.06,5.80,5.80,5.81
23.22,5.06,-0.75,5.06,-0.75,0.74,0.69,0.06,5.80,5.81,5.81
23.45,5.12,-0.69,5.12,-0.69,0.70,0.66,0.07,5.82,5.82,5.81
23.69,5.17,-0.65,5.17,-0.64,0.67,0.63,0.07,5.84,5.84,5.82
23.92,5.22,-0.60,5.21,-0.61,0.64,0.61,0.08,5.86,5.86,5.82
24.16,5.24,-0.60,5.24,-0.60,0.62,0.58,0.09,5.86,5.86,5.84
24.40,5.24,-0.61,5.24,-0.60,0.60,0.55,0.09,5.84,5.84,5.85
24.65,5.24,-0.61,5.24,-0.61,0.58,0.52,0.10,5.82,5.81,5.85
24.89,5.24,-0.60,5.25,-0.59,0.55,0.49,0.11,5.79,5.80,5.84
25.14,5.27,-0.56,5.28,-0.56,0.53,0.46,0.11,5.80,5.80,5.83
25.39,5.33,-0.50,5.33,-0.51,0.50,0.44,0.12,5.83,5.83,5.83
25.65,5.39,-0.45,5.39,-0.45,0.47,0.41,0.13,5.86,5.86,5.84
25.91,5.45,-0.39,5.44,-0.40,0.44,0.38,0.13,5.89,5.88,5.84
26.16,5.47,-0.37,5.47,-0.38,0.41,0.35,0.14,5.88,5.88,5.84
26.43,5.47,-0.37,5.47,-0.37,0.38,0.32,0.14,5.85,5.85,5.84
26.69,5.47,-0.37,5.47,-0.37,0.34,0.29,0.15,5.81,5.81,5.84
26.96,5.47,-0.37,5.48,-0.35,0.31,0.26,0.15,5.78,5.79,5.84
27.23,5.52,-0.31,5.52,-0.31,0.28,0.23,0.15,5.80,5.80,5.83
27.50,5.58,-0.25,5.58,-0.25,0.25,0.20,0.16,5.82,5.82,5.83
27.77,5.63,-0.19,5.63,-0.19,0.21,0.16,0.16,5.84,5.85,5.82
28.05,5.68,-0.14,5.67,-0.15,0.18,0.13,0.16,5.86,5.85,5.82
28.33,5.69,-0.13,5.69,-0.13,0.16,0.10,0.16,5.85,5.85,5.82
28.62,5.69,-0.12,5.70,-0.12,0.14,0.07,0.16,5.83,5.83,5.81
28.90,5.70,-0.11,5.70,-0.11,0.12,0.04,0.16,5.82,5.81,5.81
29.19,5.70,-0.10,5.70,-0.10,0.10,0.01,0.16,5.80,5.79,5.80
29.48,5.70,-0.10,5.70,-0.10,0.07,-0.02,0.15,5.77,5.77,5.80
29.78,5.70,-0.08,5.70,-0.09,0.04,-0.05,0.15,5.74,5.75,5.78
30.08,5.72,-0.07,5.73,-0.05,0.01,-0.08,0.14,5.73,5.74,5.79
30.38,5.79,0.02,5.79,0.02,-0.03,-0.12,0.13,5.76,5.76,5.77
30.68,5.86,0.10,5.86,0.10,-0.07,-0.15,0.12,5.79,5.78,5.76
30.99,5.93,0.18,5.91,0.16,-0.11,-0.18,0.11,5.82,5.80,5.75
31.30,5.93,0.18,5.93,0.19,-0.15,-0.21,0.09,5.78,5.79,5.75
31.61,5.93,0.19,5.94,0.20,-0.18,-0.24,0.08,5.75,5.76,5.74
31.93,5.93,0.21,5.93,0.20,-0.20,-0.28,0.06,5.73,5.73,5.72
32.24,5.93,0.21,5.93,0.21,-0.23,-0.31,0.04,5.70,5.70,5.72
32.57,5.93,0.22,5.93,0.22,-0.25,-0.34,0.02,5.68,5.67,5.71
32.89,5.93,0.23,5.94,0.24,-0.28,-0.37,0.00,5.65,5.67,5.71
33.22,5.98,0.28,5.99,0.28,-0.31,-0.41,-0.02,5.67,5.68,5.70
33.55,6.05,0.34,6.05,0.34,-0.34,-0.44,-0.05,5.71,5.71,5.71
33.89,6.13,0.41,6.11,0.40,-0.37,-0.47,-0.07,5.76,5.74,5.72
34.23,6.15,0.44,6.15,0.44,-0.40,-0.50,-0.10,5.75,5.74,5.70
34.57,6.15,0.45,6.16,0.45,-0.42,-0.54,-0.13,5.73,5.73,5.70
34.92,6.15,0.45,6.15,0.45,-0.44,-0.57,-0.16,5.71,5.71,5.70
35.27,6.15,0.44,6.15,0.45,-0.45,-0.60,-0.20,5.70,5.70,5.71
35.62,6.15,0.47,6.15,0.46,-0.46,-0.64,-0.23,5.69,5.69,5.68
35.97,6.15,0.46,6.15,0.46,-0.47,-0.67,-0.27,5.68,5.68,5.69
36.33,6.15,0.47,6.14,0.47,-0.50,-0.70,-0.30,5.65,5.65,5.68
36.70,6.15,0.49,6.15,0.49,-0.53,-0.74,-0.34,5.62,5.62,5.66
37.06,6.16,0.51,6.19,0.54,-0.58,-0.77,-0.38,5.58,5.61,5.65
37.43,6.25,0.63,6.25,0.62,-0.63,-0.81,-0.42,5.62,5.62,5.63
37.81,6.34,0.73,6.32,0.71,-0.69,-0.84,-0.46,5.65,5.63,5.61
38.19,6.38,0.79,6.37,0.79,-0.74,-0.87,-0.50,5.64,5.63,5.59
38.57,6.38,0.83,6.39,0.83,-0.80,-0.91,-0.55,5.58,5.59,5.55
38.95,6.38,0.85,6.38,0.86,-0.85,-0.94,-0.59,5.53,5.53,5.53
39.34,6.38,0.89,6.38,0.88,-0.89,-0.98,-0.64,5.49,5.49,5.49
39.74,6.38,0.91,6.38,0.91,-0.93,-1.01,-0.68,5.45,5.45,5.47
40.14,6.38,0.95,6.38,0.94,-0.95,-1.05,-0.73,5.43,5.43,5.43
40.54,6.38,0.97,6.38,0.97,-0.96,-1.08,-0.78,5.42,5.42,5.41
40.94,6.38,1.00,6.38,1.00,-0.98,-1.12,-0.83,5.40,5.40,5.38
41.35,6.38,1.01,6.38,1.02,-1.00,-1.16,-0.88,5.38,5.38,5.37
41.76,6.38,1.04,6.38,1.03,-1.04,-1.19,-0.93,5.34,5.34,5.34
42.18,6.38,1.05,6.37,1.05,-1.08,-1.23,-0.98,5.30,5.29,5.33
42.60,6.38,1.08,6.38,1.08,-1.13,-1.26,-1.03,5.25,5.25,5.30
43.03,6.39,1.12,6.42,1.15,-1.19,-1.30,-1.08,5.20,5.24,5.27
43.46,6.49,1.24,6.49,1.24,-1.24,-1.34,-1.14,5.25,5.25,5.25
43.90,6.59,1.37,6.56,1.34,-1.30,-1.38,-1.19,5.29,5.26,5.22
44.33,6.61,1.41,6.61,1.41,-1.36,-1.41,-1.25,5.25,5.25,5.20
44.78,6.61,1.44,6.62,1.44,-1.41,-1.45,-1.31,5.20,5.21,5.17
45.23,6.61,1.45,6.61,1.46,-1.46,-1.49,-1.36,5.15,5.15,5.16
45.68,6.61,1.49,6.61,1.49,-1.50,-1.53,-1.42,5.11,5.11,5.12
46.13,6.61,1.52,6.61,1.52,-1.53,-1.56,-1.48,5.08,5.08,5.09
46.60,6.61,1.55,6.61,1.55,-1.56,-1.60,-1.54,5.05,5.05,5.06
47.06,6.61,1.58,6.61,1.58,-1.59,-1.64,-1.60,5.02,5.02,5.03
47.53,6.61,1.61,6.61,1.61,-1.62,-1.68,-1.67,4.99,4.99,5.00
48.01,6.61,1.66,6.61,1.65,-1.65,-1.72,-1.73,4.96,4.96,4.95
48.49,6.61,1.69,6.61,1.69,-1.69,-1.76,-1.79,4.92,4.92,4.92
48.97,6.61,1.74,6.61,1.74,-1.72,-1.80,-1.86,4.89,4.89,4.87
49.46,6.61,1.77,6.61,1.77,-1.76,-1.84,-1.92,4.85,4.85,4.84
49.96,6.61,1.82,6.61,1.81,-1.81,-1.88,-1.99,4.80,4.80,4.79
50.46,6.61,1.84,6.61,1.84,-1.86,-1.92,-2.05,4.75,4.75,4.77
50.96,6.61,1.88,6.62,1.89,-1.92,-1.96,-2.12,4.69,4.70,4.73
51.47,6.66,1.96,6.66,1.96,-1.99,-2.00,-2.18,4.67,4.67,4.70
51.99,6.71,2.04,6.72,2.05,-2.06,-2.05,-2.25,4.65,4.66,4.67
52.51,6.78,2.15,6.78,2.15,-2.13,-2.09,-2.32,4.65,4.65,4.63
53.03,6.84,2.24,6.82,2.23,-2.20,-2.13,-2.38,4.64,4.62,4.60
53.56,6.84,2.29,6.84,2.29,-2.27,-2.17,-2.45,4.57,4.58,4.55
54.10,6.84,2.34,6.85,2.34,-2.33,-2.21,-2.51,4.51,4.51,4.50
54.64,6.84,2.38,6.84,2.39,-2.39,-2.26,-2.57,4.45,4.45,4.46
55.18,6.84,2.43,6.84,2.43,-2.43,-2.30,-2.64,4.41,4.41,4.41
55.74,6.84,2.47,6.84,2.46,-2.47,-2.34,-2.70,4.37,4.37,4.37
56.29,6.84,2.49,6.84,2.50,-2.50,-2.39,-2.76,4.34,4.34,4.35
56.86,6.84,2.52,6.84,2.53,-2.53,-2.43,-2.81,4.31,4.31,4.32
57.42,6.84,2.57,6.84,2.56,-2.56,-2.47,-2.87,4.28,4.28,4.27
58.00,6.84,2.60,6.84,2.59,-2.59,-2.52,-2.92,4.25,4.25,4.24
58.58,6.84,2.62,6.84,2.62,-2.62,-2.56,-2.98,4.22,4.22,4.22
59.16,6.84,2.64,6.84,2.64,-2.65,-2.61,-3.03,4.19,4.19,4.20
59.76,6.84,2.67,6.84,2.67,-2.69,-2.65,-3.07,4.15,4.15,4.17
60.35,6.84,2.72,6.84,2.72,-2.73,-2.70,-3.11,4.11,4.11,4.12
60.96,6.84,2.76,6.84,2.77,-2.77,-2.74,-3.16,4.07,4.07,4.08
61.57,6.84,2.82,6.84,2.82,-2.81,-2.79,-3.19,4.03,4.03,4.02
62.18,6.84,2.87,6.84,2.87,-2.86,-2.83,-3.23,3.98,3.98,3.97
62.80,6.84,2.91,6.84,2.91,-2.91,-2.88,-3.26,3.93,3.93,3.93
63.43,6.84,2.96,6.84,2.96,-2.95,-2.92,-3.29,3.89,3.89,3.88
64.07,6.84,2.99,6.84,3.00,-3.00,-2.97,-3.31,3.84,3.84,3.85
64.71,6.84,3.04,6.84,3.04,-3.04,-3.02,-3.34,3.80,3.80,3.80
65.35,6.84,3.09,6.84,3.08,-3.09,-3.06,-3.36,3.75,3.75,3.75
66.01,6.84,3.13,6.84,3.13,-3.13,-3.11,-3.37,3.71,3.71,3.71
66.67,6.84,3.17,6.84,3.17,-3.17,-3.16,-3.39,3.67,3.67,3.67
67.33,6.84,3.23,6.84,3.22,-3.22,-3.20,-3.40,3.62,3.62,3.61
68.01,6.84,3.27,6.84,3.27,-3.26,-3.25,-3.41,3.58,3.58,3.57
68.69,6.84,3.31,6.84,3.31,-3.31,-3.29,-3.42,3.53,3.53,3.53
69.37,6.84,3.35,6.84,3.35,-3.35,-3.34,-3.43,3.49,3.49,3.49
70.07,6.84,3.39,6.84,3.39,-3.40,-3.39,-3.44,3.44,3.44,3.45
70.77,6.84,3.44,6.84,3.44,-3.44,-3.43,-3.45,3.40,3.40,3.40
71.48,6.84,3.49,6.84,3.49,-3.49,-3.48,-3.45,3.35,3.35,3.35
72.19,6.84,3.54,6.84,3.54,-3.54,-3.53,-3.46,3.30,3.30,3.30
72.91,6.84,3.58,6.84,3.59,-3.58,-3.57,-3.46,3.26,3.26,3.26
73.64,6.84,3.63,6.84,3.63,-3.63,-3.62,-3.47,3.21,3.21,3.21
74.38,6.84,3.68,6.84,3.68,-3.67,-3.67,-3.48,3.17,3.17,3.16
75.12,6.84,3.72,6.84,3.72,-3.71,-3.71,-3.48,3.13,3.13,3.12
75.87,6.84,3.75,6.84,3.75,-3.75,-3.76,-3.49,3.09,3.09,3.09
76.63,6.84,3.78,6.84,3.78,-3.78,-3.81,-3.50,3.06,3.06,3.06
77.40,6.84,3.81,6.84,3.81,-3.81,-3.85,-3.51,3.03,3.03,3.03
78.17,6.84,3.85,6.84,3.84,-3.84,-3.90,-3.53,3.00,3.00,2.99
78.95,6.84,3.87,6.84,3.87,-3.87,-3.94,-3.54,2.97,2.97,2.97
79.74,6.84,3.90,6.84,3.90,-3.90,-3.99,-3.56,2.94,2.94,2.94
80.54,6.84,3.92,6.84,3.92,-3.93,-4.03,-3.58,2.91,2.91,2.92
81.35,6.84,3.96,6.84,3.95,-3.96,-4.08,-3.60,2.88,2.88,2.88
82.16,6.84,3.98,6.84,3.99,-3.99,-4.12,-3.62,2.85,2.85,2.86
82.98,6.84,4.02,6.84,4.02,-4.02,-4.16,-3.65,2.82,2.82,2.82
83.81,6.84,4.06,6.84,4.06,-4.06,-4.21,-3.68,2.78,2.78,2.78
84.65,6.84,4.10,6.84,4.10,-4.10,-4.25,-3.71,2.74,2.74,2.74
85.50,6.84,4.14,6.84,4.14,-4.13,-4.29,-3.74,2.71,2.71,2.70
86.35,6.84,4.17,6.84,4.17,-4.17,-4.34,-3.78,2.67,2.67,2.67
87.22,6.84,4.21,6.84,4.21,-4.21,-4.38,-3.82,2.63,2.63,2.63
88.09,6.84,4.25,6.84,4.25,-4.25,-4.42,-3.86,2.59,2.59,2.59
88.97,6.84,4.29,6.84,4.29,-4.30,-4.46,-3.91,2.54,2.54,2.55
89.86,6.84,4.34,6.84,4.34,-4.34,-4.50,-3.96,2.50,2.50,2.50
90.76,6.84,4.38,6.84,4.38,-4.38,-4.54,-4.01,2.46,2.46,2.46
91.66,6.84,4.42,6.84,4.42,-4.42,-4.58,-4.06,2.42,2.42,2.42
92.58,6.84,4.47,6.84,4.47,-4.46,-4.62,-4.12,2.38,2.38,2.37
93.51,6.84,4.50,6.84,4.51,-4.51,-4.66,-4.18,2.33,2.33,2.34
94.44,6.84,4.55,6.84,4.55,-4.55,-4.70,-4.24,2.29,2.29,2.29
95.39,6.84,4.60,6.84,4.59,-4.60,-4.73,-4.31,2.24,2.24,2.24
96.34,6.84,4.64,6.84,4.64,-4.64,-4.77,-4.38,2.20,2.20,2.20
97.30,6.84,4.69,6.84,4.69,-4.69,-4.81,-4.45,2.15,2.15,2.15
98.28,6.84,4.74,6.84,4.74,-4.74,-4.84,-4.52,2.10,2.10,2.10
99.26,6.84,4.79,6.84,4.78,-4.78,-4.88,-4.60,2.06,2.06,2.05
100.25,6.84,4.83,6.84,4.83,-4.82,-4.91,-4.68,2.02,2.02,2.01
101.25,6.84,4.86,6.84,4.87,-4.87,-4.94,-4.75,1.97,1.97,1.98
102.27,6.84,4.90,6.84,4.90,-4.91,-4.98,-4.83,1.93,1.93,1.94
103.29,6.84,4.95,6.84,4.95,-4.95,-5.01,-4.92,1.89,1.89,1.89
104.32,6.84,4.98,6.84,4.98,-4.98,-5.04,-5.00,1.86,1.86,1.86
105.37,6.84,5.02,6.84,5.02,-5.02,-5.07,-5.08,1.82,1.82,1.82
106.42,6.84,5.05,6.84,5.05,-5.05,-5.10,-5.16,1.79,1.79,1.79
107.48,6.84,5.09,6.84,5.08,-5.08,-5.13,-5.25,1.76,1.76,1.75
108.56,6.84,5.11,6.84,5.11,-5.11,-5.16,-5.33,1.73,1.73,1.73
109.64,6.84,5.14,6.84,5.14,-5.14,-5.18,-5.41,1.70,1.70,1.70
110.74,6.84,5.18,6.84,5.17,-5.17,-5.21,-5.49,1.67,1.67,1.66
111.85,6.84,5.20,6.84,5.20,-5.21,-5.24,-5.56,1.63,1.63,1.64
112.97,6.84,5.23,6.84,5.23,-5.26,-5.26,-5.64,1.58,1.58,1.61
114.10,6.84,5.27,6.84,5.27,-5.30,-5.29,-5.71,1.54,1.54,1.57
115.24,6.84,5.31,6.84,5.32,-5.33,-5.31,-5.77,1.51,1.51,1.53
116.39,6.84,5.37,6.84,5.36,-5.35,-5.33,-5.84,1.49,1.49,1.47
117.55,6.84,5.40,6.86,5.43,-5.36,-5.36,-5.89,1.48,1.50,1.44
118.73,6.84,5.45,6.83,5.43,-5.37,-5.38,-5.95,1.47,1.45,1.39
119.92,6.83,5.47,6.76,5.40,-5.38,-5.40,-5.99,1.45,1.38,1.36
121.12,6.61,5.28,6.68,5.36,-5.39,-5.42,-6.04,1.22,1.30,1.33
122.33,6.61,5.33,6.62,5.33,-5.39,-5.44,-6.07,1.22,1.23,1.28
123.55,6.61,5.37,6.59,5.34,-5.41,-5.46,-6.10,1.20,1.18,1.24
124.79,6.61,5.41,6.61,5.41,-5.42,-5.48,-6.12,1.19,1.19,1.20
126.03,6.61,5.46,6.61,5.46,-5.45,-5.50,-6.14,1.16,1.16,1.15
127.29,6.61,5.51,6.61,5.51,-5.49,-5.52,-6.15,1.12,1.12,1.10
128.57,6.61,5.55,6.61,5.55,-5.54,-5.54,-6.15,1.07,1.07,1.06
129.85,6.61,5.59,6.61,5.60,-5.59,-5.55,-6.15,1.02,1.02,1.02
131.15,6.61,5.64,6.61,5.64,-5.64,-5.57,-6.14,0.97,0.97,0.97
132.46,6.61,5.69,6.61,5.69,-5.69,-5.59,-6.13,0.92,0.92,0.92
133.79,6.61,5.73,6.61,5.73,-5.73,-5.60,-6.11,0.88,0.88,0.88
135.12,6.61,5.76,6.61,5.76,-5.77,-5.62,-6.08,0.84,0.84,0.85
136.48,6.61,5.79,6.61,5.79,-5.80,-5.63,-6.06,0.81,0.81,0.82
137.84,6.61,5.82,6.62,5.84,-5.81,-5.65,-6.02,0.80,0.81,0.79
139.22,6.61,5.87,6.61,5.87,-5.82,-5.66,-5.99,0.79,0.79,0.74
140.61,6.61,5.90,6.57,5.86,-5.82,-5.68,-5.95,0.79,0.75,0.71
142.02,6.50,5.82,6.51,5.83,-5.82,-5.69,-5.91,0.68,0.68,0.68
143.44,6.41,5.77,6.44,5.79,-5.82,-5.71,-5.87,0.59,0.62,0.64
144.87,6.38,5.77,6.38,5.77,-5.82,-5.72,-5.83,0.56,0.56,0.61
146.32,6.38,5.80,6.37,5.79,-5.82,-5.74,-5.79,0.56,0.55,0.58
147.78,6.38,5.83,6.38,5.82,-5.83,-5.75,-5.75,0.55,0.54,0.55
149.26,6.38,5.85,6.38,5.86,-5.86,-5.76,-5.71,0.52,0.52,0.53
150.75,6.38,5.89,6.38,5.89,-5.89,-5.78,-5.67,0.49,0.49,0.49
152.26,6.38,5.92,6.38,5.92,-5.92,-5.79,-5.63,0.46,0.46,0.46
153.78,6.38,5.95,6.38,5.95,-5.95,-5.81,-5.59,0.43,0.43,0.43
155.32,6.38,5.98,6.39,5.99,-5.97,-5.82,-5.56,0.41,0.42,0.40
156.88,6.38,6.01,6.39,6.02,-5.98,-5.83,-5.52,0.40,0.41,0.37
158.44,6.38,6.05,6.36,6.02,-5.98,-5.85,-5.49,0.40,0.38,0.33
160.03,6.32,6.02,6.29,5.99,-5.98,-5.86,-5.47,0.34,0.31,0.30
161.63,6.18,5.91,6.22,5.95,-5.98,-5.88,-5.44,0.20,0.24,0.27
163.24,6.15,5.92,6.16,5.93,-5.98,-5.89,-5.42,0.17,0.18,0.23
164.88,6.15,5.95,6.14,5.94,-5.98,-5.90,-5.40,0.17,0.15,0.20
166.53,6.15,5.99,6.15,5.98,-6.00,-5.92,-5.39,0.15,0.15,0.16
168.19,6.15,6.01,6.15,6.01,-6.02,-5.93,-5.38,0.13,0.13,0.14
169.87,6.15,6.05,6.15,6.05,-6.05,-5.95,-5.37,0.10,0.10,0.10
171.57,6.15,6.08,6.15,6.08,-6.07,-5.96,-5.37,0.08,0.08,0.07
173.29,6.15,6.12,6.17,6.14,-6.09,-5.98,-5.37,0.06,0.08,0.03
175.02,6.15,6.15,6.15,6.15,-6.10,-5.99,-5.38,0.05,0.04,-0.00
176.77,6.15,6.20,6.09,6.14,-6.11,-6.01,-5.39,0.04,-0.02,-0.05
178.54,5.98,6.06,6.02,6.11,-6.12,-6.02,-5.41,-0.14,-0.10,-0.08
180.32,5.93,6.07,5.95,6.08,-6.13,-6.04,-5.42,-0.20,-0.17,-0.14
182.13,5.93,6.10,5.92,6.09,-6.15,-6.05,-5.45,-0.22,-0.23,-0.17
183.95,5.93,6.14,5.93,6.14,-6.17,-6.07,-5.47,-0.24,-0.24,-0.21
185.79,5.93,6.18,5.93,6.18,-6.19,-6.08,-5.50,-0.26,-0.26,-0.25
187.65,5.93,6.21,5.93,6.22,-6.21,-6.10,-5.54,-0.28,-0.28,-0.28
189.52,5.93,6.26,5.94,6.27,-6.23,-6.11,-5.58,-0.30,-0.29,-0.33
191.42,5.93,6.29,5.93,6.30,-6.24,-6.13,-5.62,-0.31,-0.31,-0.36
193.33,5.93,6.33,5.89,6.29,-6.25,-6.14,-5.67,-0.32,-0.36,-0.40
195.27,5.82,6.26,5.82,6.26,-6.25,-6.16,-5.71,-0.43,-0.43,-0.44
197.22,5.72,6.19,5.75,6.22,-6.25,-6.17,-5.77,-0.53,-0.50,-0.47
199.19,5.70,6.19,5.70,6.20,-6.26,-6.19,-5.82,-0.56,-0.56,-0.49
201.18,5.70,6.23,5.69,6.22,-6.26,-6.20,-5.88,-0.56,-0.57,-0.53
203.19,5.70,6.25,5.70,6.25,-6.27,-6.21,-5.94,-0.57,-0.57,-0.55
205.23,5.70,6.28,5.70,6.28,-6.26,-6.23,-6.00,-0.56,-0.56,-0.58
207.28,5.70,6.29,5.72,6.32,-6.26,-6.24,-6.06,-0.56,-0.55,-0.59
209.35,5.70,6.33,5.70,6.33,-6.26,-6.25,-6.13,-0.56,-0.57,-0.63
211.44,5.70,6.36,5.64,6.30,-6.27,-6.26,-6.19,-0.57,-0.63,-0.66
213.56,5.54,6.22,5.57,6.25,-6.27,-6.27,-6.26,-0.73,-0.70,-0.68
215.69,5.47,6.18,5.50,6.21,-6.27,-6.28,-6.32,-0.80,-0.77,-0.71
217.85,5.47,6.20,5.46,6.19,-6.26,-6.29,-6.39,-0.79,-0.80,-0.73
220.03,5.47,6.24,5.46,6.23,-6.25,-6.30,-6.45,-0.78,-0.78,-0.77
222.23,5.47,6.26,5.49,6.28,-6.23,-6.31,-6.51,-0.76,-0.74,-0.79
224.45,5.47,6.28,5.47,6.29,-6.22,-6.31,-6.57,-0.75,-0.75,-0.81
226.70,5.47,6.31,5.42,6.25,-6.21,-6.32,-6.62,-0.74,-0.80,-0.84
228.96,5.31,6.16,5.35,6.20,-6.21,-6.32,-6.67,-0.90,-0.87,-0.85
231.25,5.26,6.13,5.28,6.16,-6.21,-6.32,-6.71,-0.95,-0.93,-0.87
233.57,5.24,6.14,5.23,6.14,-6.20,-6.32,-6.75,-0.96,-0.97,-0.90
235.90,5.24,6.16,5.24,6.16,-6.18,-6.32,-6.79,-0.94,-0.94,-0.92
238.26,5.24,6.18,5.25,6.19,-6.15,-6.32,-6.81,-0.91,-0.90,-0.94
240.64,5.24,6.19,5.24,6.19,-6.13,-6.31,-6.83,-0.89,-0.89,-0.95
243.05,5.24,6.21,5.18,6.16,-6.12,-6.30,-6.84,-0.88,-0.94,-0.97
245.48,5.08,6.07,5.11,6.10,-6.11,-6.30,-6.84,-1.03,-1.00,-0.99
247.93,5.01,6.02,5.04,6.04,-6.09,-6.29,-6.84,-1.08,-1.05,-1.01
250.41,5.01,6.01,5.00,6.01,-6.06,-6.27,-6.82,-1.05,-1.06,-1.00
252.92,5.01,6.02,5.02,6.03,-6.02,-6.26,-6.80,-1.01,-1.00,-1.01
255.45,5.01,6.04,5.01,6.03,-5.99,-6.24,-6.77,-0.98,-0.98,-1.03
258.00,5.01,6.04,4.96,6.00,-5.96,-6.22,-6.73,-0.95,-1.00,-1.03
260.58,4.87,5.92,4.89,5.94,-5.94,-6.20,-6.69,-1.07,-1.05,-1.05
263.19,4.80,5.86,4.83,5.88,-5.92,-6.18,-6.63,-1.12,-1.09,-1.06
265.82,4.79,5.85,4.78,5.85,-5.89,-6.16,-6.57,-1.10,-1.11,-1.06
268.48,4.79,5.86,4.80,5.86,-5.86,-6.13,-6.50,-1.07,-1.06,-1.07
271.16,4.79,5.86,4.79,5.86,-5.82,-6.10,-6.42,-1.03,-1.03,-1.07
273.87,4.79,5.87,4.74,5.82,-5.79,-6.07,-6.34,-1.00,-1.04,-1.08
276.61,4.65,5.73,4.67,5.76,-5.76,-6.04,-6.26,-1.11,-1.09,-1.08
279.38,4.57,5.67,4.60,5.69,-5.73,-6.00,-6.17,-1.16,-1.13,-1.10
282.17,4.56,5.65,4.55,5.65,-5.69,-5.96,-6.07,-1.13,-1.14,-1.09
284.99,4.56,5.65,4.56,5.65,-5.65,-5.92,-5.98,-1.09,-1.08,-1.09
287.84,4.56,5.64,4.56,5.65,-5.60,-5.88,-5.88,-1.04,-1.03,-1.08
290.72,4.56,5.65,4.52,5.60,-5.56,-5.84,-5.78,-1.00,-1.04,-1.09
293.63,4.45,5.53,4.45,5.53,-5.53,-5.79,-5.67,-1.08,-1.08,-1.08
296.57,4.34,5.41,4.38,5.46,-5.50,-5.74,-5.57,-1.16,-1.12,-1.07
299.53,4.33,5.41,4.33,5.40,-5.47,-5.69,-5.47,-1.14,-1.14,-1.08
302.53,4.33,5.40,4.32,5.39,-5.42,-5.64,-5.36,-1.09,-1.10,-1.07
305.55,4.33,5.40,4.34,5.41,-5.38,-5.59,-5.26,-1.05,-1.03,-1.07
308.61,4.33,5.40,4.33,5.40,-5.34,-5.54,-5.16,-1.01,-1.00,-1.07
311.69,4.33,5.39,4.28,5.34,-5.30,-5.48,-5.06,-0.97,-1.02,-1.06
314.81,4.19,5.24,4.21,5.27,-5.28,-5.42,-4.96,-1.09,-1.07,-1.05
317.96,4.11,5.17,4.14,5.19,-5.24,-5.37,-4.87,-1.13,-1.10,-1.06
321.14,4.10,5.15,4.09,5.15,-5.21,-5.31,-4.77,-1.11,-1.11,-1.05
324.35,4.10,5.15,4.10,5.15,-5.16,-5.25,-4.68,-1.06,-1.06,-1.05
327.59,4.10,5.15,4.11,5.16,-5.11,-5.18,-4.59,-1.01,-1.01,-1.05
330.87,4.10,5.15,4.06,5.11,-5.07,-5.12,-4.50,-0.97,-1.00,-1.05
334.18,4.00,5.05,3.99,5.04,-5.02,-5.06,-4.42,-1.02,-1.03,-1.05
337.52,3.88,4.91,3.93,4.96,-4.97,-4.99,-4.34,-1.09,-1.04,-1.03
340.90,3.87,4.89,3.88,4.90,-4.92,-4.93,-4.26,-1.05,-1.04,-1.02
344.30,3.87,4.89,3.84,4.85,-4.86,-4.87,-4.18,-0.99,-1.02,-1.02
347.75,3.81,4.81,3.79,4.79,-4.79,-4.80,-4.11,-0.98,-1.01,-1.00
351.23,3.69,4.69,3.72,4.71,-4.73,-4.74,-4.04,-1.04,-1.01,-1.00
354.74,3.65,4.63,3.68,4.67,-4.67,-4.67,-3.98,-1.02,-0.99,-0.98
358.28,3.65,4.63,3.64,4.62,-4.61,-4.61,-3.91,-0.96,-0.97,-0.98
361.87,3.65,4.63,3.59,4.56,-4.55,-4.54,-3.85,-0.90,-0.96,-0.98
365.49,3.48,4.45,3.52,4.49,-4.49,-4.48,-3.80,-1.01,-0.97,-0.97
369.14,3.43,4.39,3.46,4.42,-4.43,-4.41,-3.74,-1.00,-0.97,-0.96
372.83,3.42,4.37,3.42,4.37,-4.38,-4.35,-3.69,-0.96,-0.96,-0.95
376.56,3.42,4.38,3.38,4.34,-4.32,-4.28,-3.64,-0.90,-0.94,-0.96
380.33,3.33,4.28,3.32,4.27,-4.27,-4.22,-3.60,-0.94,-0.95,-0.95
384.13,3.22,4.17,3.25,4.20,-4.22,-4.16,-3.56,-1.00,-0.97,-0.95
387.97,3.19,4.13,3.20,4.14,-4.17,-4.10,-3.52,-0.98,-0.97,-0.94
391.85,3.19,4.13,3.19,4.13,-4.12,-4.04,-3.48,-0.93,-0.93,-0.94
395.77,3.19,4.13,3.16,4.10,-4.08,-3.98,-3.44,-0.89,-0.91,-0.94
399.73,3.13,4.07,3.10,4.04,-4.02,-3.92,-3.41,-0.89,-0.92,-0.94
403.72,3.00,3.92,3.03,3.96,-3.97,-3.87,-3.38,-0.97,-0.93,-0.92
407.76,2.96,3.88,2.99,3.91,-3.91,-3.81,-3.35,-0.95,-0.92,-0.92
411.84,2.96,3.87,2.95,3.86,-3.86,-3.76,-3.32,-0.90,-0.91,-0.91
415.96,2.96,3.85,2.90,3.80,-3.80,-3.71,-3.29,-0.84,-0.90,-0.89
420.12,2.79,3.69,2.83,3.72,-3.73,-3.66,-3.27,-0.94,-0.90,-0.90
424.32,2.74,3.63,2.78,3.66,-3.66,-3.61,-3.24,-0.92,-0.89,-0.89
428.56,2.74,3.61,2.73,3.60,-3.60,-3.56,-3.22,-0.86,-0.87,-0.87
432.85,2.74,3.60,2.70,3.56,-3.55,-3.51,-3.20,-0.81,-0.85,-0.86
437.18,2.63,3.49,2.64,3.49,-3.49,-3.46,-3.18,-0.86,-0.85,-0.86
441.55,2.54,3.38,2.57,3.41,-3.43,-3.42,-3.15,-0.89,-0.86,-0.84
445.96,2.51,3.34,2.52,3.35,-3.37,-3.37,-3.13,-0.86,-0.85,-0.83
450.42,2.51,3.32,2.51,3.33,-3.32,-3.32,-3.11,-0.81,-0.80,-0.81
454.93,2.51,3.31,2.49,3.29,-3.26,-3.27,-3.08,-0.75,-0.77,-0.80
459.48,2.46,3.25,2.43,3.21,-3.20,-3.22,-3.06,-0.74,-0.78,-0.79
464.07,2.31,3.08,2.35,3.13,-3.14,-3.17,-3.03,-0.83,-0.79,-0.77
468.71,2.28,3.04,2.31,3.07,-3.08,-3.11,-3.01,-0.80,-0.77,-0.76
473.40,2.28,3.02,2.26,3.01,-3.01,-3.05,-2.98,-0.73,-0.75,-0.74
478.13,2.28,3.02,2.21,2.95,-2.94,-2.99,-2.95,-0.66,-0.73,-0.74
482.91,2.10,2.83,2.14,2.87,-2.87,-2.92,-2.91,-0.77,-0.73,-0.73
487.74,2.05,2.76,2.09,2.79,-2.80,-2.85,-2.88,-0.75,-0.71,-0.71
492.62,2.05,2.74,2.04,2.73,-2.73,-2.77,-2.84,-0.68,-0.69,-0.69
497.55,2.05,2.72,2.00,2.67,-2.66,-2.70,-2.80,-0.61,-0.66,-0.67
502.52,1.92,2.58,1.93,2.58,-2.58,-2.62,-2.76,-0.66,-0.65,-0.66
507.55,1.83,2.46,1.87,2.50,-2.51,-2.54,-2.72,-0.68,-0.64,-0.63
512.62,1.82,2.43,1.82,2.43,-2.44,-2.46,-2.67,-0.62,-0.61,-0.61
517.75,1.82,2.41,1.79,2.38,-2.37,-2.38,-2.62,-0.55,-0.58,-0.59
522.93,1.76,2.33,1.73,2.31,-2.31,-2.30,-2.57,-0.55,-0.57,-0.57
