frequency,raw,error,smoothed,error_smoothed,equalization,parametric_eq,fixed_band_eq,equalized_raw,equalized_smoothed,target
20.00,-15.71,-18.68,-15.71,-18.68,6.00,6.52,2.82,-9.71,-9.71,2.97
20.20,-15.57,-18.55,-15.57,-18.55,6.00,6.52,2.90,-9.57,-9.57,2.98
20.40,-15.43,-18.42,-15.44,-18.42,6.00,6.51,2.98,-9.43,-9.44,2.99
20.61,-15.29,-18.28,-15.29,-18.29,6.00,6.51,3.07,-9.29,-9.29,2.99
20.81,-15.15,-18.15,-15.15,-18.15,6.00,6.50,3.15,-9.15,-9.15,3.00
21.02,-15.00,-18.00,-15.00,-18.00,6.00,6.50,3.24,-9.00,-9.00,3.00
21.23,-14.83,-17.84,-14.83,-17.84,6.00,6.49,3.34,-8.83,-8.83,3.01
21.44,-14.66,-17.67,-14.66,-17.67,6.00,6.49,3.43,-8.66,-8.66,3.01
21.66,-14.49,-17.50,-14.49,-17.50,6.00,6.48,3.53,-8.49,-8.49,3.01
21.87,-14.32,-17.33,-14.32,-17.33,6.00,6.47,3.63,-8.32,-8.32,3.01
22.09,-14.15,-17.17,-14.15,-17.17,6.00,6.47,3.73,-8.15,-8.15,3.02
22.31,-13.99,-17.01,-13.99,-17.00,6.00,6.46,3.84,-7.99,-7.99,3.02
22.54,-13.82,-16.83,-13.82,-16.83,6.00,6.45,3.95,-7.82,-7.82,3.01
22.76,-13.66,-16.66,-13.66,-16.66,6.00,6.45,4.06,-7.66,-7.66,3.00
22.99,-13.50,-16.50,-13.51,-16.50,6.00,6.44,4.18,-7.50,-7.51,3.00
23.22,-13.37,-16.37,-13.37,-16.36,6.00,6.43,4.29,-7.37,-7.37,2.99
23.45,-13.23,-16.22,-13.23,-16.22,6.00,6.43,4.41,-7.23,-7.23,2.98
23.69,-13.10,-16.09,-13.10,-16.09,6.00,6.42,4.54,-7.10,-7.10,2.98
23.92,-12.97,-15.95,-12.97,-15.95,6.00,6.41,4.66,-6.97,-6.97,2.98
24.16,-12.84,-15.82,-12.84,-15.82,6.00,6.41,4.79,-6.84,-6.84,2.98
24.40,-12.71,-15.69,-12.71,-15.70,6.00,6.40,4.92,-6.71,-6.71,2.98
24.65,-12.58,-15.56,-12.59,-15.57,6.00,6.39,5.05,-6.58,-6.59,2.98
24.89,-12.45,-15.43,-12.44,-15.42,6.00,6.38,5.18,-6.45,-6.44,2.98
25.14,-12.28,-15.26,-12.27,-15.25,6.00,6.37,5.32,-6.28,-6.27,2.98
25.39,-12.08,-15.05,-12.08,-15.05,6.00,6.37,5.45,-6.08,-6.08,2.97
25.65,-11.88,-14.85,-11.88,-14.85,6.00,6.36,5.59,-5.88,-5.88,2.97
25.91,-11.69,-14.65,-11.69,-14.66,6.00,6.35,5.73,-5.69,-5.69,2.97
26.16,-11.53,-14.50,-11.54,-14.50,6.00,6.34,5.87,-5.53,-5.54,2.97
26.43,-11.40,-14.37,-11.40,-14.37,6.00,6.33,6.00,-5.40,-5.40,2.97
26.69,-11.28,-14.25,-11.28,-14.24,6.00,6.32,6.14,-5.28,-5.28,2.97
26.96,-11.15,-14.12,-11.15,-14.12,6.00,6.31,6.27,-5.15,-5.15,2.97
27.23,-11.02,-13.99,-11.02,-13.99,6.00,6.30,6.40,-5.02,-5.02,2.96
27.50,-10.88,-13.85,-10.89,-13.85,6.00,6.29,6.53,-4.88,-4.89,2.96
27.77,-10.75,-13.71,-10.75,-13.71,6.00,6.28,6.66,-4.75,-4.75,2.96
28.05,-10.61,-13.57,-10.61,-13.57,6.00,6.27,6.78,-4.61,-4.61,2.96
28.33,-10.46,-13.42,-10.46,-13.43,6.00,6.26,6.89,-4.46,-4.46,2.96
28.62,-10.31,-13.27,-10.31,-13.27,6.00,6.25,7.00,-4.31,-4.31,2.96
28.90,-10.15,-13.12,-10.15,-13.11,6.00,6.24,7.10,-4.15,-4.15,2.97
29.19,-9.98,-12.95,-9.98,-12.95,6.00,6.23,7.19,-3.98,-3.98,2.97
29.48,-9.81,-12.78,-9.81,-12.78,6.00,6.22,7.27,-3.81,-3.81,2.97
29.78,-9.63,-12.61,-9.64,-12.61,6.00,6.21,7.35,-3.63,-3.64,2.98
30.08,-9.47,-12.45,-9.48,-12.46,6.00,6.20,7.41,-3.47,-3.48,2.97
30.38,-9.34,-12.32,-9.34,-12.32,6.00,6.18,7.46,-3.34,-3.34,2.97
30.68,-9.21,-12.18,-9.21,-12.18,6.00,6.17,7.50,-3.21,-3.21,2.97
30.99,-9.08,-12.05,-9.07,-12.04,6.00,6.16,7.53,-3.08,-3.07,2.97
31.30,-8.92,-11.89,-8.92,-11.89,6.00,6.15,7.54,-2.92,-2.92,2.97
31.61,-8.76,-11.73,-8.76,-11.73,6.00,6.14,7.54,-2.76,-2.76,2.97
31.93,-8.60,-11.57,-8.61,-11.57,6.00,6.12,7.53,-2.60,-2.61,2.97
32.24,-8.46,-11.41,-8.47,-11.43,6.00,6.11,7.51,-2.46,-2.47,2.95
32.57,-8.34,-11.30,-8.33,-11.29,6.00,6.10,7.48,-2.34,-2.33,2.95
32.89,-8.21,-11.16,-8.21,-11.16,6.00,6.09,7.44,-2.21,-2.21,2.95
33.22,-8.08,-11.02,-8.09,-11.03,6.00,6.07,7.38,-2.08,-2.09,2.94
33.55,-7.96,-10.90,-7.96,-10.89,6.00,6.06,7.32,-1.96,-1.96,2.94
33.89,-7.83,-10.76,-7.83,-10.76,6.00,6.05,7.24,-1.83,-1.83,2.93
34.23,-7.69,-10.62,-7.69,-10.61,6.00,6.04,7.16,-1.69,-1.69,2.92
34.57,-7.53,-10.45,-7.54,-10.46,6.00,6.02,7.08,-1.53,-1.54,2.92
34.92,-7.38,-10.30,-7.38,-10.30,6.00,6.01,6.98,-1.38,-1.38,2.92
35.27,-7.21,-10.13,-7.21,-10.13,6.00,6.00,6.88,-1.21,-1.21,2.92
35.62,-7.04,-9.96,-7.04,-9.96,6.00,5.99,6.78,-1.04,-1.04,2.92
35.97,-6.87,-9.78,-6.87,-9.79,6.00,5.98,6.68,-0.87,-0.87,2.91
36.33,-6.71,-9.62,-6.71,-9.62,6.00,5.96,6.57,-0.71,-0.71,2.91
36.70,-6.55,-9.46,-6.55,-9.46,6.00,5.95,6.46,-0.55,-0.55,2.91
37.06,-6.40,-9.31,-6.41,-9.31,6.00,5.94,6.35,-0.40,-0.41,2.91
37.43,-6.28,-9.18,-6.28,-9.18,6.00,5.93,6.23,-0.28,-0.28,2.90
37.81,-6.15,-9.06,-6.15,-9.06,6.00,5.93,6.12,-0.15,-0.15,2.91
38.19,-6.03,-8.94,-6.03,-8.94,6.00,5.92,6.01,-0.03,-0.03,2.91
38.57,-5.90,-8.81,-5.90,-8.81,6.00,5.91,5.90,0.10,0.10,2.90
38.95,-5.77,-8.68,-5.76,-8.67,6.00,5.91,5.79,0.23,0.24,2.91
39.34,-5.61,-8.52,-5.61,-8.52,6.00,5.90,5.68,0.39,0.39,2.91
39.74,-5.45,-8.36,-5.46,-8.36,6.00,5.90,5.58,0.55,0.54,2.90
40.14,-5.30,-8.20,-5.31,-8.21,6.00,5.90,5.48,0.70,0.69,2.90
40.54,-5.18,-8.08,-5.18,-8.08,6.00,5.91,5.38,0.82,0.82,2.90
40.94,-5.06,-7.95,-5.05,-7.94,6.00,5.91,5.28,0.94,0.95,2.89
41.35,-4.91,-7.80,-4.91,-7.80,6.00,5.92,5.19,1.09,1.09,2.89
41.76,-4.76,-7.64,-4.77,-7.65,6.00,5.93,5.10,1.24,1.23,2.88
42.18,-4.62,-7.49,-4.63,-7.50,6.00,5.94,5.01,1.38,1.37,2.87
42.60,-4.50,-7.37,-4.50,-7.36,6.00,5.96,4.93,1.50,1.50,2.87
43.03,-4.37,-7.23,-4.37,-7.23,6.00,5.97,4.85,1.63,1.63,2.86
43.46,-4.24,-7.10,-4.24,-7.09,6.00,5.98,4.77,1.76,1.76,2.86
43.90,-4.10,-6.95,-4.10,-6.95,6.00,6.00,4.70,1.90,1.90,2.84
44.33,-3.96,-6.80,-3.96,-6.80,6.01,6.01,4.63,2.05,2.05,2.84
44.78,-3.82,-6.66,-3.83,-6.66,6.02,6.01,4.56,2.20,2.19,2.83
45.23,-3.69,-6.52,-3.69,-6.52,6.02,6.01,4.50,2.33,2.33,2.83
45.68,-3.57,-6.39,-3.57,-6.39,6.02,5.99,4.44,2.44,2.45,2.82
46.13,-3.44,-6.27,-3.45,-6.27,5.99,5.97,4.38,2.55,2.55,2.83
46.60,-3.32,-6.14,-3.32,-6.14,5.96,5.92,4.33,2.64,2.64,2.82
47.06,-3.19,-6.02,-3.19,-6.01,5.91,5.87,4.28,2.72,2.73,2.82
47.53,-3.05,-5.88,-3.05,-5.88,5.85,5.80,4.24,2.80,2.80,2.83
48.01,-2.91,-5.74,-2.92,-5.75,5.78,5.72,4.19,2.87,2.86,2.83
48.49,-2.80,-5.64,-2.80,-5.63,5.69,5.63,4.15,2.89,2.89,2.83
48.97,-2.70,-5.54,-2.72,-5.55,5.59,5.53,4.12,2.89,2.87,2.84
49.46,-2.63,-5.47,-2.64,-5.48,5.47,5.42,4.08,2.84,2.84,2.84
49.96,-2.57,-5.42,-2.54,-5.39,5.35,5.31,4.05,2.78,2.82,2.85
50.46,-2.41,-5.27,-2.41,-5.27,5.23,5.20,4.02,2.82,2.82,2.85
50.96,-2.25,-5.12,-2.27,-5.13,5.12,5.09,3.99,2.87,2.85,2.87
51.47,-2.12,-4.99,-2.12,-4.99,5.01,4.98,3.97,2.89,2.89,2.87
51.99,-1.99,-4.86,-1.99,-4.86,4.90,4.87,3.94,2.91,2.90,2.87
52.51,-1.88,-4.75,-1.88,-4.75,4.78,4.76,3.92,2.90,2.90,2.87
53.03,-1.78,-4.65,-1.79,-4.66,4.67,4.65,3.90,2.89,2.88,2.87
53.56,-1.69,-4.56,-1.69,-4.57,4.55,4.54,3.88,2.86,2.86,2.87
54.10,-1.60,-4.48,-1.59,-4.47,4.44,4.44,3.86,2.84,2.85,2.88
54.64,-1.48,-4.36,-1.49,-4.36,4.33,4.33,3.84,2.85,2.84,2.88
55.18,-1.36,-4.24,-1.37,-4.25,4.22,4.23,3.82,2.86,2.85,2.88
55.74,-1.25,-4.12,-1.23,-4.10,4.12,4.13,3.80,2.86,2.89,2.87
56.29,-1.11,-3.98,-1.10,-3.96,4.01,4.02,3.78,2.90,2.91,2.87
56.86,-0.95,-3.82,-1.00,-3.86,3.90,3.92,3.76,2.95,2.90,2.87
57.42,-0.92,-3.77,-0.93,-3.79,3.80,3.82,3.73,2.88,2.87,2.85
58.00,-0.93,-3.77,-0.88,-3.73,3.71,3.71,3.71,2.78,2.82,2.84
58.58,-0.82,-3.65,-0.82,-3.65,3.61,3.61,3.68,2.79,2.80,2.83
59.16,-0.71,-3.52,-0.71,-3.53,3.52,3.50,3.66,2.81,2.81,2.81
59.76,-0.59,-3.39,-0.62,-3.42,3.43,3.39,3.62,2.84,2.81,2.80
60.35,-0.54,-3.32,-0.56,-3.33,3.33,3.29,3.59,2.79,2.78,2.78
60.96,-0.53,-3.28,-0.49,-3.24,3.23,3.18,3.56,2.69,2.73,2.75
61.57,-0.41,-3.14,-0.41,-3.13,3.11,3.07,3.52,2.70,2.70,2.73
62.18,-0.29,-2.98,-0.30,-2.99,2.99,2.97,3.48,2.70,2.69,2.69
62.80,-0.18,-2.84,-0.21,-2.87,2.87,2.86,3.43,2.69,2.65,2.65
63.43,-0.14,-2.75,-0.14,-2.75,2.75,2.75,3.39,2.61,2.61,2.61
64.07,-0.11,-2.68,-0.05,-2.62,2.63,2.65,3.34,2.52,2.58,2.57
64.71,0.07,-2.46,0.03,-2.50,2.51,2.54,3.28,2.58,2.53,2.52
65.35,0.14,-2.35,0.10,-2.38,2.39,2.44,3.23,2.53,2.49,2.49
66.01,0.13,-2.32,0.17,-2.28,2.28,2.34,3.17,2.41,2.45,2.45
66.67,0.21,-2.20,0.21,-2.20,2.18,2.25,3.11,2.39,2.39,2.41
67.33,0.29,-2.09,0.28,-2.09,2.08,2.15,3.04,2.37,2.37,2.38
68.01,0.36,-1.98,0.36,-1.98,1.99,2.06,2.98,2.35,2.35,2.34
68.69,0.43,-1.88,0.41,-1.90,1.90,1.97,2.91,2.33,2.32,2.31
69.37,0.46,-1.82,0.45,-1.82,1.82,1.89,2.84,2.28,2.27,2.28
70.07,0.47,-1.78,0.50,-1.75,1.74,1.81,2.76,2.21,2.24,2.24
70.77,0.56,-1.65,0.55,-1.66,1.66,1.73,2.69,2.22,2.21,2.21
71.48,0.62,-1.57,0.60,-1.58,1.59,1.65,2.61,2.21,2.19,2.19
72.19,0.66,-1.50,0.65,-1.51,1.52,1.57,2.53,2.18,2.17,2.16
72.91,0.66,-1.46,0.68,-1.44,1.45,1.49,2.46,2.11,2.13,2.12
73.64,0.72,-1.37,0.71,-1.38,1.37,1.42,2.38,2.09,2.08,2.09
74.38,0.76,-1.29,0.73,-1.32,1.29,1.34,2.30,2.05,2.03,2.05
75.12,0.76,-1.26,0.77,-1.24,1.22,1.27,2.22,1.98,1.99,2.02
75.87,0.79,-1.18,0.82,-1.15,1.14,1.19,2.14,1.93,1.96,1.97
76.63,0.90,-1.03,0.88,-1.05,1.06,1.12,2.06,1.96,1.94,1.93
77.40,0.96,-0.93,0.93,-0.96,0.98,1.04,1.98,1.93,1.91,1.89
78.17,0.96,-0.89,0.96,-0.88,0.89,0.97,1.90,1.85,1.86,1.85
78.95,0.96,-0.84,0.98,-0.82,0.82,0.90,1.82,1.78,1.80,1.80
79.74,1.01,-0.75,1.01,-0.75,0.75,0.82,1.74,1.75,1.75,1.76
80.54,1.05,-0.66,1.04,-0.68,0.68,0.75,1.66,1.73,1.72,1.71
81.35,1.06,-0.61,1.06,-0.61,0.62,0.68,1.58,1.68,1.68,1.67
82.16,1.06,-0.57,1.06,-0.57,0.57,0.61,1.50,1.63,1.63,1.63
82.98,1.06,-0.53,1.06,-0.53,0.52,0.53,1.42,1.58,1.58,1.59
83.81,1.06,-0.49,1.07,-0.48,0.48,0.47,1.34,1.54,1.55,1.55
84.65,1.09,-0.43,1.08,-0.43,0.44,0.40,1.26,1.52,1.51,1.51
85.50,1.09,-0.38,1.08,-0.39,0.40,0.33,1.19,1.49,1.47,1.47
86.35,1.06,-0.37,1.07,-0.36,0.36,0.26,1.11,1.42,1.43,1.43
87.22,1.06,-0.33,1.06,-0.33,0.32,0.20,1.04,1.38,1.38,1.39
88.09,1.06,-0.28,1.06,-0.29,0.28,0.14,0.96,1.34,1.34,1.34
88.97,1.06,-0.25,1.06,-0.24,0.24,0.08,0.89,1.30,1.30,1.31
89.86,1.06,-0.20,1.06,-0.20,0.20,0.02,0.82,1.26,1.26,1.26
90.76,1.06,-0.16,1.06,-0.16,0.16,-0.03,0.74,1.22,1.22,1.22
91.66,1.07,-0.11,1.07,-0.11,0.12,-0.09,0.67,1.18,1.18,1.18
92.58,1.07,-0.08,1.07,-0.07,0.07,-0.14,0.60,1.14,1.14,1.14
93.51,1.07,-0.03,1.07,-0.03,0.03,-0.19,0.53,1.10,1.10,1.10
94.44,1.07,0.01,1.07,0.01,-0.01,-0.24,0.46,1.06,1.06,1.06
95.39,1.07,0.04,1.07,0.04,-0.05,-0.28,0.39,1.02,1.02,1.02
96.34,1.06,0.07,1.06,0.08,-0.07,-0.32,0.32,0.99,0.99,0.99
97.30,1.06,0.11,1.06,0.12,-0.09,-0.36,0.25,0.97,0.97,0.95
98.28,1.05,0.15,1.04,0.14,-0.11,-0.40,0.18,0.94,0.93,0.90
99.26,1.02,0.15,1.00,0.13,-0.12,-0.43,0.12,0.90,0.88,0.86
100.25,0.94,0.11,0.95,0.12,-0.14,-0.47,0.05,0.80,0.81,0.83
101.25,0.89,0.10,0.90,0.12,-0.15,-0.50,-0.01,0.74,0.76,0.79
102.27,0.88,0.14,0.87,0.13,-0.16,-0.52,-0.08,0.72,0.71,0.74
103.29,0.87,0.18,0.86,0.17,-0.17,-0.55,-0.14,0.69,0.69,0.69
104.32,0.85,0.20,0.85,0.20,-0.19,-0.57,-0.20,0.66,0.66,0.64
105.37,0.83,0.22,0.83,0.23,-0.21,-0.60,-0.26,0.62,0.61,0.61
106.42,0.80,0.24,0.80,0.24,-0.24,-0.62,-0.32,0.56,0.56,0.56
107.48,0.78,0.27,0.77,0.27,-0.27,-0.64,-0.38,0.51,0.51,0.51
108.56,0.75,0.29,0.75,0.29,-0.29,-0.65,-0.44,0.46,0.46,0.46
109.64,0.73,0.32,0.73,0.32,-0.32,-0.67,-0.49,0.41,0.41,0.41
110.74,0.72,0.34,0.71,0.34,-0.34,-0.68,-0.54,0.38,0.37,0.37
111.85,0.70,0.36,0.70,0.37,-0.37,-0.70,-0.60,0.33,0.33,0.34
112.97,0.69,0.39,0.69,0.39,-0.39,-0.71,-0.65,0.30,0.30,0.30
114.10,0.68,0.42,0.68,0.42,-0.42,-0.72,-0.69,0.26,0.26,0.26
115.24,0.68,0.44,0.68,0.45,-0.45,-0.72,-0.74,0.23,0.23,0.23
116.39,0.68,0.48,0.68,0.48,-0.48,-0.73,-0.78,0.20,0.20,0.20
117.55,0.69,0.51,0.69,0.51,-0.51,-0.74,-0.82,0.18,0.18,0.18
118.73,0.69,0.53,0.69,0.54,-0.54,-0.75,-0.86,0.15,0.15,0.15
119.92,0.70,0.56,0.70,0.56,-0.56,-0.75,-0.89,0.13,0.13,0.14
121.12,0.70,0.58,0.70,0.58,-0.59,-0.76,-0.92,0.11,0.11,0.12
122.33,0.71,0.60,0.71,0.60,-0.60,-0.76,-0.95,0.11,0.11,0.11
123.55,0.72,0.63,0.72,0.63,-0.62,-0.76,-0.97,0.10,0.11,0.09
124.79,0.73,0.65,0.73,0.65,-0.63,-0.77,-0.99,0.10,0.10,0.08
126.03,0.73,0.67,0.71,0.64,-0.64,-0.77,-1.01,0.09,0.07,0.06
127.29,0.67,0.62,0.68,0.63,-0.64,-0.77,-1.03,0.03,0.04,0.05
128.57,0.64,0.60,0.66,0.62,-0.64,-0.77,-1.04,-0.00,0.01,0.04
129.85,0.65,0.63,0.65,0.62,-0.64,-0.77,-1.05,0.01,0.00,0.02
131.15,0.66,0.65,0.66,0.65,-0.64,-0.77,-1.06,0.02,0.02,0.01
132.46,0.66,0.67,0.65,0.66,-0.64,-0.77,-1.07,0.02,0.01,-0.01
133.79,0.64,0.66,0.62,0.65,-0.64,-0.77,-1.07,-0.00,-0.02,-0.02
135.12,0.57,0.61,0.59,0.63,-0.64,-0.77,-1.07,-0.07,-0.05,-0.04
136.48,0.57,0.62,0.58,0.63,-0.64,-0.77,-1.07,-0.07,-0.07,-0.05
137.84,0.58,0.65,0.57,0.65,-0.64,-0.77,-1.06,-0.06,-0.07,-0.07
139.22,0.58,0.67,0.56,0.66,-0.64,-0.77,-1.06,-0.06,-0.07,-0.09
140.61,0.55,0.66,0.54,0.65,-0.64,-0.77,-1.05,-0.09,-0.10,-0.11
142.02,0.48,0.61,0.50,0.64,-0.64,-0.76,-1.04,-0.16,-0.14,-0.13
143.44,0.48,0.64,0.48,0.64,-0.65,-0.76,-1.03,-0.18,-0.17,-0.16
144.87,0.48,0.66,0.47,0.65,-0.67,-0.76,-1.02,-0.20,-0.20,-0.18
146.32,0.48,0.69,0.48,0.69,-0.70,-0.76,-1.00,-0.22,-0.22,-0.21
147.78,0.48,0.73,0.48,0.72,-0.73,-0.76,-0.99,-0.25,-0.25,-0.25
149.26,0.48,0.76,0.48,0.76,-0.77,-0.75,-0.97,-0.29,-0.29,-0.28
150.75,0.48,0.81,0.48,0.81,-0.81,-0.75,-0.96,-0.33,-0.33,-0.33
152.26,0.48,0.86,0.49,0.87,-0.85,-0.75,-0.94,-0.37,-0.36,-0.38
153.78,0.48,0.91,0.47,0.91,-0.89,-0.75,-0.93,-0.41,-0.42,-0.43
155.32,0.47,0.97,0.44,0.94,-0.93,-0.74,-0.91,-0.46,-0.49,-0.50
156.88,0.39,0.94,0.41,0.96,-0.97,-0.74,-0.90,-0.58,-0.56,-0.55
158.44,0.37,0.98,0.38,0.99,-1.02,-0.74,-0.88,-0.65,-0.64,-0.61
160.03,0.38,1.04,0.37,1.03,-1.06,-0.73,-0.87,-0.68,-0.69,-0.66
161.63,0.38,1.08,0.38,1.09,-1.09,-0.73,-0.85,-0.71,-0.72,-0.70
163.24,0.38,1.13,0.38,1.13,-1.12,-0.73,-0.84,-0.74,-0.74,-0.75
164.88,0.37,1.15,0.38,1.16,-1.14,-0.72,-0.82,-0.77,-0.76,-0.78
166.53,0.37,1.18,0.37,1.18,-1.15,-0.72,-0.81,-0.78,-0.78,-0.81
168.19,0.36,1.19,0.34,1.17,-1.15,-0.72,-0.79,-0.80,-0.81,-0.83
169.87,0.31,1.15,0.30,1.14,-1.15,-0.71,-0.78,-0.84,-0.85,-0.84
171.57,0.23,1.08,0.26,1.10,-1.13,-0.71,-0.77,-0.90,-0.87,-0.85
173.29,0.23,1.07,0.24,1.09,-1.10,-0.70,-0.76,-0.87,-0.85,-0.85
175.02,0.25,1.08,0.24,1.07,-1.06,-0.70,-0.74,-0.81,-0.82,-0.83
176.77,0.27,1.09,0.23,1.05,-1.02,-0.70,-0.73,-0.75,-0.79,-0.82
178.54,0.18,0.98,0.20,1.00,-0.98,-0.69,-0.72,-0.80,-0.79,-0.80
180.32,0.14,0.92,0.16,0.94,-0.95,-0.69,-0.71,-0.82,-0.80,-0.78
182.13,0.14,0.90,0.13,0.89,-0.93,-0.68,-0.71,-0.79,-0.80,-0.76
183.95,0.15,0.89,0.14,0.89,-0.92,-0.68,-0.70,-0.77,-0.77,-0.74
185.79,0.16,0.89,0.16,0.89,-0.91,-0.67,-0.69,-0.75,-0.75,-0.73
187.65,0.18,0.90,0.17,0.90,-0.90,-0.67,-0.68,-0.72,-0.73,-0.73
189.52,0.19,0.91,0.19,0.91,-0.90,-0.67,-0.68,-0.71,-0.71,-0.72
191.42,0.20,0.92,0.21,0.93,-0.90,-0.66,-0.67,-0.70,-0.69,-0.72
193.33,0.22,0.93,0.22,0.93,-0.91,-0.66,-0.67,-0.69,-0.70,-0.71
195.27,0.23,0.94,0.19,0.91,-0.92,-0.65,-0.66,-0.69,-0.72,-0.72
197.22,0.16,0.89,0.17,0.90,-0.92,-0.65,-0.66,-0.76,-0.74,-0.73
199.19,0.12,0.85,0.16,0.89,-0.91,-0.64,-0.66,-0.79,-0.74,-0.73
201.18,0.18,0.92,0.15,0.89,-0.89,-0.64,-0.65,-0.71,-0.74,-0.74
203.19,0.18,0.93,0.15,0.90,-0.87,-0.63,-0.65,-0.69,-0.72,-0.75
205.23,0.10,0.86,0.12,0.88,-0.84,-0.63,-0.65,-0.74,-0.72,-0.76
207.28,0.07,0.84,0.06,0.83,-0.82,-0.62,-0.65,-0.76,-0.77,-0.77
209.35,0.01,0.79,-0.00,0.78,-0.81,-0.62,-0.65,-0.80,-0.81,-0.78
211.44,-0.06,0.74,-0.03,0.76,-0.80,-0.61,-0.65,-0.87,-0.84,-0.80
213.56,-0.05,0.76,-0.05,0.75,-0.80,-0.61,-0.64,-0.85,-0.85,-0.81
215.69,-0.04,0.78,-0.05,0.77,-0.79,-0.60,-0.64,-0.84,-0.85,-0.83
217.85,-0.04,0.79,-0.03,0.81,-0.79,-0.60,-0.64,-0.83,-0.82,-0.83
220.03,-0.03,0.82,-0.03,0.82,-0.78,-0.59,-0.64,-0.81,-0.80,-0.85
222.23,-0.01,0.85,-0.05,0.81,-0.77,-0.59,-0.64,-0.78,-0.82,-0.86
224.45,-0.09,0.78,-0.07,0.80,-0.76,-0.58,-0.64,-0.85,-0.83,-0.87
226.70,-0.15,0.72,-0.13,0.75,-0.74,-0.58,-0.65,-0.89,-0.87,-0.87
228.96,-0.14,0.74,-0.19,0.69,-0.72,-0.58,-0.65,-0.86,-0.91,-0.88
231.25,-0.25,0.63,-0.22,0.66,-0.70,-0.57,-0.65,-0.95,-0.92,-0.88
233.57,-0.26,0.62,-0.24,0.65,-0.68,-0.57,-0.65,-0.94,-0.92,-0.88
235.90,-0.21,0.67,-0.23,0.65,-0.67,-0.56,-0.65,-0.88,-0.90,-0.88
238.26,-0.20,0.68,-0.20,0.67,-0.66,-0.56,-0.65,-0.86,-0.86,-0.88
240.64,-0.18,0.68,-0.17,0.69,-0.65,-0.55,-0.64,-0.83,-0.83,-0.86
243.05,-0.17,0.69,-0.17,0.69,-0.66,-0.55,-0.64,-0.83,-0.83,-0.86
245.48,-0.15,0.70,-0.19,0.67,-0.67,-0.54,-0.64,-0.82,-0.85,-0.85
247.93,-0.22,0.63,-0.20,0.64,-0.68,-0.54,-0.64,-0.90,-0.88,-0.85
250.41,-0.24,0.60,-0.21,0.63,-0.68,-0.53,-0.64,-0.92,-0.89,-0.84
252.92,-0.19,0.65,-0.20,0.64,-0.67,-0.53,-0.64,-0.86,-0.87,-0.84
255.45,-0.17,0.67,-0.18,0.66,-0.64,-0.53,-0.64,-0.81,-0.82,-0.84
258.00,-0.17,0.68,-0.17,0.68,-0.61,-0.52,-0.63,-0.78,-0.78,-0.85
260.58,-0.20,0.65,-0.20,0.65,-0.57,-0.52,-0.63,-0.78,-0.78,-0.85
263.19,-0.25,0.61,-0.29,0.57,-0.54,-0.51,-0.63,-0.79,-0.83,-0.86
265.82,-0.39,0.47,-0.39,0.47,-0.51,-0.51,-0.62,-0.90,-0.90,-0.86
268.48,-0.52,0.34,-0.47,0.40,-0.47,-0.51,-0.62,-0.99,-0.93,-0.87
271.16,-0.49,0.38,-0.50,0.37,-0.43,-0.50,-0.62,-0.92,-0.93,-0.87
273.87,-0.47,0.40,-0.49,0.38,-0.40,-0.50,-0.61,-0.87,-0.89,-0.87
276.61,-0.47,0.40,-0.47,0.41,-0.38,-0.50,-0.61,-0.85,-0.85,-0.88
279.38,-0.47,0.41,-0.47,0.41,-0.37,-0.49,-0.60,-0.85,-0.84,-0.88
282.17,-0.47,0.40,-0.49,0.38,-0.38,-0.49,-0.60,-0.85,-0.87,-0.87
284.99,-0.48,0.38,-0.49,0.38,-0.39,-0.48,-0.59,-0.88,-0.89,-0.87
287.84,-0.53,0.34,-0.46,0.41,-0.41,-0.48,-0.59,-0.94,-0.87,-0.87
290.72,-0.40,0.46,-0.43,0.43,-0.42,-0.48,-0.59,-0.82,-0.85,-0.86
293.63,-0.34,0.51,-0.41,0.44,-0.43,-0.48,-0.58,-0.77,-0.84,-0.85
296.57,-0.44,0.41,-0.39,0.46,-0.45,-0.47,-0.58,-0.90,-0.84,-0.85
299.53,-0.41,0.44,-0.38,0.46,-0.49,-0.47,-0.57,-0.90,-0.87,-0.85
302.53,-0.32,0.52,-0.36,0.48,-0.53,-0.47,-0.57,-0.85,-0.89,-0.84
305.55,-0.30,0.54,-0.30,0.55,-0.56,-0.47,-0.57,-0.87,-0.86,-0.85
308.61,-0.28,0.57,-0.25,0.60,-0.60,-0.46,-0.56,-0.88,-0.84,-0.85
311.69,-0.18,0.67,-0.21,0.64,-0.62,-0.46,-0.56,-0.80,-0.83,-0.85
314.81,-0.17,0.69,-0.17,0.69,-0.65,-0.46,-0.56,-0.82,-0.81,-0.86
317.96,-0.16,0.70,-0.16,0.71,-0.66,-0.46,-0.55,-0.82,-0.82,-0.86
321.14,-0.17,0.70,-0.19,0.68,-0.67,-0.45,-0.55,-0.85,-0.87,-0.88
324.35,-0.24,0.64,-0.23,0.65,-0.67,-0.45,-0.55,-0.91,-0.90,-0.88
327.59,-0.27,0.62,-0.26,0.63,-0.66,-0.45,-0.55,-0.93,-0.92,-0.89
330.87,-0.27,0.63,-0.27,0.63,-0.65,-0.45,-0.55,-0.92,-0.92,-0.90
334.18,-0.27,0.64,-0.27,0.64,-0.64,-0.45,-0.55,-0.91,-0.91,-0.91
337.52,-0.27,0.65,-0.30,0.62,-0.62,-0.45,-0.55,-0.89,-0.92,-0.93
340.90,-0.34,0.59,-0.33,0.60,-0.60,-0.45,-0.55,-0.94,-0.93,-0.93
344.30,-0.37,0.57,-0.35,0.59,-0.59,-0.45,-0.55,-0.96,-0.94,-0.94
347.75,-0.37,0.59,-0.38,0.58,-0.57,-0.44,-0.55,-0.94,-0.94,-0.96
351.23,-0.38,0.59,-0.40,0.57,-0.54,-0.44,-0.55,-0.93,-0.95,-0.97
354.74,-0.44,0.54,-0.45,0.54,-0.52,-0.44,-0.55,-0.97,-0.97,-0.98
358.28,-0.51,0.48,-0.50,0.49,-0.51,-0.44,-0.55,-1.02,-1.01,-0.99
361.87,-0.55,0.45,-0.54,0.46,-0.50,-0.44,-0.56,-1.05,-1.04,-1.01
365.49,-0.56,0.47,-0.56,0.46,-0.49,-0.44,-0.56,-1.05,-1.05,-1.03
369.14,-0.55,0.49,-0.56,0.48,-0.49,-0.44,-0.56,-1.05,-1.05,-1.04
372.83,-0.54,0.51,-0.54,0.51,-0.50,-0.44,-0.57,-1.04,-1.05,-1.05
376.56,-0.53,0.53,-0.53,0.53,-0.52,-0.44,-0.57,-1.05,-1.05,-1.06
380.33,-0.52,0.55,-0.52,0.55,-0.54,-0.45,-0.58,-1.06,-1.06,-1.07
384.13,-0.52,0.56,-0.52,0.56,-0.56,-0.45,-0.58,-1.08,-1.08,-1.08
387.97,-0.51,0.58,-0.51,0.58,-0.58,-0.45,-0.59,-1.09,-1.09,-1.09
391.85,-0.51,0.59,-0.51,0.60,-0.59,-0.45,-0.59,-1.10,-1.09,-1.10
395.77,-0.51,0.60,-0.51,0.61,-0.59,-0.45,-0.60,-1.10,-1.09,-1.12
399.73,-0.51,0.61,-0.53,0.60,-0.58,-0.45,-0.61,-1.10,-1.11,-1.13
403.72,-0.55,0.59,-0.56,0.58,-0.58,-0.45,-0.61,-1.13,-1.14,-1.14
407.76,-0.60,0.56,-0.59,0.57,-0.58,-0.46,-0.62,-1.18,-1.17,-1.16
411.84,-0.62,0.55,-0.62,0.55,-0.57,-0.46,-0.63,-1.19,-1.19,-1.17
415.96,-0.62,0.56,-0.63,0.55,-0.57,-0.46,-0.63,-1.19,-1.19,-1.18
420.12,-0.62,0.56,-0.62,0.56,-0.57,-0.46,-0.64,-1.19,-1.19,-1.18
424.32,-0.61,0.58,-0.61,0.58,-0.58,-0.47,-0.65,-1.19,-1.19,-1.19
428.56,-0.60,0.59,-0.60,0.59,-0.59,-0.47,-0.66,-1.19,-1.19,-1.19
432.85,-0.59,0.59,-0.59,0.60,-0.60,-0.47,-0.66,-1.19,-1.18,-1.18
437.18,-0.56,0.61,-0.56,0.61,-0.61,-0.48,-0.67,-1.17,-1.17,-1.17
441.55,-0.53,0.62,-0.52,0.63,-0.62,-0.48,-0.68,-1.15,-1.14,-1.15
445.96,-0.48,0.65,-0.49,0.64,-0.62,-0.48,-0.69,-1.11,-1.12,-1.13
450.42,-0.46,0.64,-0.47,0.63,-0.63,-0.49,-0.69,-1.09,-1.10,-1.10
454.93,-0.46,0.60,-0.44,0.62,-0.64,-0.49,-0.70,-1.10,-1.08,-1.07
459.48,-0.41,0.61,-0.41,0.62,-0.65,-0.50,-0.70,-1.06,-1.06,-1.03
464.07,-0.35,0.64,-0.35,0.64,-0.65,-0.50,-0.71,-1.00,-1.00,-1.00
468.71,-0.30,0.66,-0.30,0.66,-0.64,-0.51,-0.72,-0.95,-0.94,-0.96
