frequency,raw,error,smoothed,error_smoothed,equalization,parametric_eq,fixed_band_eq,equalized_raw,equalized_smoothed,target
20.00,8.65,5.51,8.65,5.51,-5.50,-5.70,-3.01,3.15,3.15,3.13
20.20,8.68,5.54,8.67,5.54,-5.54,-5.73,-3.09,3.14,3.13,3.13
20.40,8.69,5.56,8.70,5.57,-5.58,-5.76,-3.18,3.11,3.13,3.13
20.61,8.74,5.60,8.74,5.60,-5.62,-5.79,-3.27,3.12,3.12,3.13
20.81,8.78,5.65,8.78,5.64,-5.65,-5.82,-3.36,3.12,3.12,3.13
21.02,8.83,5.69,8.82,5.69,-5.69,-5.85,-3.45,3.13,3.13,3.13
21.23,8.86,5.72,8.87,5.73,-5.73,-5.88,-3.55,3.12,3.13,3.13
21.44,8.92,5.79,8.91,5.78,-5.77,-5.91,-3.65,3.15,3.14,3.13
21.66,8.95,5.81,8.95,5.82,-5.82,-5.94,-3.75,3.13,3.14,3.13
21.87,9.00,5.87,8.99,5.86,-5.86,-5.97,-3.85,3.14,3.13,3.13
22.09,9.03,5.90,9.03,5.90,-5.90,-5.99,-3.96,3.13,3.13,3.13
22.31,9.06,5.93,9.07,5.94,-5.94,-6.02,-4.07,3.12,3.13,3.13
22.54,9.12,5.98,9.11,5.97,-5.97,-6.05,-4.19,3.14,3.13,3.13
22.76,9.15,6.02,9.15,6.01,-6.01,-6.08,-4.30,3.14,3.14,3.13
22.99,9.18,6.04,9.18,6.05,-6.05,-6.11,-4.42,3.13,3.13,3.13
23.22,9.22,6.08,9.21,6.08,-6.08,-6.13,-4.55,3.13,3.13,3.13
23.45,9.24,6.11,9.25,6.11,-6.12,-6.16,-4.67,3.12,3.13,3.13
23.69,9.29,6.15,9.29,6.15,-6.15,-6.19,-4.80,3.13,3.13,3.13
23.92,9.33,6.20,9.32,6.19,-6.19,-6.22,-4.93,3.14,3.13,3.13
24.16,9.36,6.23,9.36,6.23,-6.22,-6.24,-5.06,3.14,3.14,3.13
24.40,9.39,6.26,9.39,6.26,-6.25,-6.27,-5.20,3.13,3.14,3.13
24.65,9.43,6.29,9.42,6.29,-6.29,-6.30,-5.34,3.14,3.13,3.13
24.89,9.45,6.32,9.45,6.32,-6.32,-6.32,-5.48,3.13,3.13,3.13
25.14,9.48,6.35,9.48,6.35,-6.35,-6.35,-5.62,3.13,3.13,3.13
25.39,9.52,6.39,9.51,6.38,-6.38,-6.37,-5.76,3.14,3.13,3.13
25.65,9.54,6.40,9.54,6.41,-6.41,-6.40,-5.90,3.13,3.13,3.13
25.91,9.58,6.44,9.58,6.44,-6.44,-6.43,-6.05,3.14,3.13,3.13
26.16,9.61,6.48,9.60,6.47,-6.47,-6.45,-6.19,3.14,3.13,3.13
26.43,9.64,6.50,9.64,6.50,-6.50,-6.48,-6.34,3.14,3.14,3.13
26.69,9.66,6.52,9.66,6.53,-6.53,-6.50,-6.48,3.13,3.13,3.13
26.96,9.70,6.56,9.69,6.56,-6.56,-6.52,-6.63,3.14,3.13,3.13
27.23,9.71,6.57,9.72,6.58,-6.59,-6.55,-6.77,3.12,3.13,3.13
27.50,9.75,6.61,9.74,6.61,-6.61,-6.57,-6.90,3.14,3.13,3.13
27.77,9.77,6.64,9.77,6.64,-6.64,-6.60,-7.04,3.13,3.13,3.13
28.05,9.80,6.67,9.80,6.67,-6.66,-6.62,-7.17,3.13,3.14,3.13
28.33,9.83,6.69,9.82,6.69,-6.69,-6.64,-7.29,3.14,3.14,3.13
28.62,9.85,6.71,9.85,6.71,-6.71,-6.67,-7.41,3.13,3.13,3.13
28.90,9.87,6.73,9.87,6.74,-6.74,-6.69,-7.52,3.13,3.13,3.13
29.19,9.89,6.75,9.89,6.76,-6.76,-6.71,-7.63,3.13,3.13,3.13
29.48,9.93,6.79,9.92,6.79,-6.79,-6.73,-7.73,3.14,3.13,3.13
29.78,9.94,6.80,9.94,6.81,-6.81,-6.75,-7.82,3.13,3.13,3.13
30.08,9.97,6.83,9.97,6.84,-6.84,-6.78,-7.89,3.13,3.13,3.13
30.38,9.99,6.85,9.99,6.86,-6.86,-6.80,-7.96,3.13,3.13,3.13
30.68,10.03,6.89,10.02,6.89,-6.89,-6.82,-8.02,3.14,3.14,3.13
30.99,10.04,6.90,10.04,6.91,-6.91,-6.84,-8.07,3.13,3.13,3.13
31.30,10.08,6.94,10.07,6.94,-6.94,-6.86,-8.10,3.14,3.13,3.13
31.61,10.08,6.94,10.09,6.96,-6.96,-6.88,-8.13,3.12,3.13,3.13
31.93,10.13,6.99,10.12,6.99,-6.98,-6.90,-8.14,3.14,3.13,3.13
32.24,10.14,7.01,10.14,7.01,-7.01,-6.92,-8.15,3.13,3.13,3.13
32.57,10.17,7.03,10.17,7.03,-7.03,-6.94,-8.14,3.14,3.14,3.13
32.89,10.18,7.05,10.18,7.05,-7.05,-6.96,-8.13,3.13,3.13,3.13
33.22,10.22,7.08,10.21,7.08,-7.08,-6.97,-8.10,3.14,3.13,3.13
33.55,10.22,7.09,10.23,7.09,-7.10,-6.99,-8.07,3.12,3.13,3.13
33.89,10.26,7.12,10.25,7.12,-7.12,-7.01,-8.03,3.14,3.13,3.13
34.23,10.26,7.12,10.27,7.14,-7.14,-7.03,-7.98,3.12,3.14,3.13
34.57,10.31,7.17,10.29,7.16,-7.16,-7.04,-7.93,3.15,3.13,3.13
34.92,10.31,7.17,10.31,7.17,-7.18,-7.06,-7.87,3.13,3.13,3.13
35.27,10.31,7.17,10.33,7.20,-7.19,-7.08,-7.81,3.11,3.14,3.13
35.62,10.36,7.22,10.34,7.20,-7.21,-7.09,-7.75,3.15,3.13,3.13
35.97,10.36,7.22,10.36,7.22,-7.22,-7.11,-7.68,3.13,3.13,3.13
36.33,10.36,7.23,10.38,7.24,-7.24,-7.12,-7.61,3.12,3.14,3.13
36.70,10.40,7.26,10.38,7.25,-7.25,-7.14,-7.54,3.15,3.13,3.13
37.06,10.40,7.26,10.39,7.26,-7.26,-7.15,-7.47,3.13,3.13,3.13
37.43,10.40,7.26,10.41,7.27,-7.28,-7.17,-7.40,3.12,3.13,3.13
37.81,10.41,7.27,10.42,7.28,-7.29,-7.18,-7.33,3.12,3.13,3.13
38.19,10.45,7.31,10.43,7.30,-7.30,-7.19,-7.26,3.15,3.14,3.13
38.57,10.45,7.31,10.45,7.31,-7.31,-7.21,-7.20,3.14,3.14,3.13
38.95,10.45,7.31,10.45,7.31,-7.32,-7.22,-7.14,3.13,3.13,3.13
39.34,10.45,7.31,10.45,7.32,-7.33,-7.23,-7.08,3.12,3.12,3.13
39.74,10.45,7.31,10.46,7.33,-7.34,-7.24,-7.02,3.11,3.13,3.13
40.14,10.50,7.36,10.48,7.35,-7.35,-7.26,-6.97,3.15,3.14,3.13
40.54,10.50,7.36,10.50,7.36,-7.35,-7.27,-6.92,3.15,3.14,3.13
40.94,10.50,7.36,10.50,7.37,-7.36,-7.28,-6.88,3.14,3.14,3.13
41.35,10.50,7.36,10.50,7.36,-7.36,-7.29,-6.84,3.13,3.13,3.13
41.76,10.50,7.36,10.50,7.37,-7.37,-7.30,-6.81,3.13,3.13,3.13
42.18,10.50,7.36,10.50,7.37,-7.38,-7.31,-6.78,3.12,3.13,3.13
42.60,10.52,7.38,10.51,7.38,-7.38,-7.32,-6.75,3.14,3.13,3.13
43.03,10.52,7.38,10.52,7.38,-7.39,-7.32,-6.73,3.13,3.13,3.13
43.46,10.52,7.38,10.53,7.39,-7.39,-7.33,-6.71,3.13,3.14,3.13
43.90,10.54,7.40,10.53,7.40,-7.40,-7.34,-6.71,3.14,3.14,3.13
44.33,10.54,7.40,10.54,7.40,-7.40,-7.35,-6.70,3.14,3.14,3.13
44.78,10.54,7.40,10.54,7.41,-7.40,-7.36,-6.70,3.13,3.14,3.13
45.23,10.54,7.40,10.54,7.40,-7.41,-7.36,-6.70,3.13,3.13,3.13
45.68,10.54,7.40,10.54,7.40,-7.41,-7.37,-6.71,3.13,3.13,3.13
46.13,10.54,7.40,10.54,7.40,-7.41,-7.37,-6.73,3.13,3.13,3.13
46.60,10.54,7.40,10.54,7.40,-7.41,-7.38,-6.75,3.13,3.13,3.13
47.06,10.54,7.40,10.54,7.40,-7.41,-7.38,-6.77,3.13,3.13,3.13
47.53,10.54,7.40,10.54,7.40,-7.40,-7.39,-6.80,3.13,3.13,3.13
48.01,10.54,7.40,10.54,7.40,-7.41,-7.39,-6.83,3.13,3.13,3.13
48.49,10.54,7.40,10.54,7.40,-7.41,-7.40,-6.87,3.13,3.13,3.13
48.97,10.54,7.40,10.54,7.40,-7.41,-7.40,-6.91,3.13,3.13,3.13
49.46,10.54,7.40,10.54,7.40,-7.41,-7.40,-6.96,3.13,3.13,3.13
49.96,10.54,7.40,10.54,7.40,-7.41,-7.40,-7.00,3.13,3.13,3.13
50.46,10.54,7.40,10.54,7.41,-7.40,-7.40,-7.06,3.13,3.14,3.13
50.96,10.54,7.40,10.54,7.40,-7.40,-7.41,-7.11,3.14,3.14,3.13
51.47,10.54,7.40,10.53,7.40,-7.39,-7.41,-7.17,3.14,3.14,3.13
51.99,10.52,7.39,10.52,7.39,-7.39,-7.41,-7.23,3.13,3.14,3.13
52.51,10.52,7.38,10.51,7.38,-7.38,-7.41,-7.29,3.14,3.13,3.13
53.03,10.50,7.36,10.50,7.37,-7.38,-7.41,-7.35,3.12,3.12,3.13
53.56,10.50,7.36,10.50,7.37,-7.37,-7.40,-7.42,3.12,3.12,3.13
54.10,10.50,7.36,10.50,7.36,-7.37,-7.40,-7.48,3.13,3.13,3.13
54.64,10.50,7.36,10.50,7.36,-7.37,-7.40,-7.54,3.13,3.13,3.13
55.18,10.50,7.36,10.50,7.36,-7.36,-7.40,-7.60,3.14,3.14,3.13
55.74,10.50,7.36,10.50,7.37,-7.36,-7.39,-7.66,3.14,3.14,3.13
56.29,10.50,7.36,10.50,7.36,-7.35,-7.39,-7.72,3.14,3.14,3.13
56.86,10.50,7.36,10.48,7.35,-7.35,-7.38,-7.77,3.15,3.13,3.13
57.42,10.45,7.31,10.46,7.33,-7.34,-7.38,-7.82,3.11,3.13,3.13
58.00,10.45,7.31,10.45,7.32,-7.32,-7.37,-7.87,3.12,3.13,3.13
58.58,10.45,7.31,10.44,7.31,-7.31,-7.37,-7.91,3.14,3.13,3.13
59.16,10.45,7.31,10.43,7.30,-7.30,-7.36,-7.94,3.15,3.13,3.13
59.76,10.40,7.27,10.42,7.28,-7.28,-7.35,-7.97,3.11,3.13,3.13
60.35,10.40,7.26,10.40,7.27,-7.27,-7.35,-7.99,3.13,3.13,3.13
60.96,10.40,7.26,10.39,7.25,-7.26,-7.34,-8.00,3.14,3.13,3.13
61.57,10.38,7.24,10.38,7.24,-7.24,-7.33,-8.00,3.13,3.13,3.13
62.18,10.36,7.22,10.37,7.24,-7.23,-7.32,-8.00,3.13,3.14,3.13
62.80,10.36,7.22,10.35,7.22,-7.22,-7.31,-7.99,3.14,3.13,3.13
63.43,10.36,7.22,10.34,7.21,-7.21,-7.30,-7.97,3.15,3.13,3.13
64.07,10.31,7.18,10.32,7.19,-7.19,-7.29,-7.94,3.11,3.13,3.13
64.71,10.31,7.17,10.31,7.18,-7.18,-7.28,-7.90,3.13,3.13,3.13
65.35,10.31,7.17,10.30,7.17,-7.17,-7.26,-7.86,3.14,3.13,3.13
66.01,10.31,7.17,10.29,7.16,-7.15,-7.25,-7.81,3.15,3.14,3.13
66.67,10.26,7.13,10.28,7.15,-7.14,-7.24,-7.75,3.12,3.14,3.13
67.33,10.26,7.12,10.26,7.13,-7.13,-7.22,-7.69,3.13,3.13,3.13
68.01,10.26,7.12,10.24,7.11,-7.11,-7.21,-7.62,3.14,3.13,3.13
68.69,10.22,7.08,10.24,7.10,-7.10,-7.19,-7.54,3.12,3.14,3.13
69.37,10.22,7.08,10.22,7.08,-7.08,-7.17,-7.46,3.13,3.13,3.13
70.07,10.22,7.08,10.20,7.06,-7.07,-7.16,-7.38,3.15,3.13,3.13
70.77,10.17,7.03,10.19,7.06,-7.05,-7.14,-7.29,3.11,3.14,3.13
71.48,10.17,7.03,10.17,7.04,-7.04,-7.12,-7.21,3.13,3.13,3.13
72.19,10.17,7.03,10.15,7.02,-7.02,-7.10,-7.12,3.15,3.13,3.13
72.91,10.13,6.99,10.13,7.00,-7.00,-7.08,-7.03,3.13,3.14,3.13
73.64,10.11,6.97,10.11,6.98,-6.97,-7.06,-6.94,3.13,3.14,3.13
74.38,10.08,6.94,10.08,6.95,-6.95,-7.04,-6.85,3.13,3.13,3.13
75.12,10.07,6.93,10.06,6.93,-6.93,-7.02,-6.76,3.14,3.13,3.13
75.87,10.03,6.89,10.03,6.90,-6.90,-7.00,-6.67,3.12,3.13,3.13
76.63,10.01,6.87,10.01,6.88,-6.88,-6.97,-6.58,3.13,3.13,3.13
77.40,9.99,6.85,9.99,6.85,-6.85,-6.95,-6.50,3.13,3.13,3.13
78.17,9.97,6.83,9.96,6.83,-6.83,-6.93,-6.42,3.14,3.14,3.13
78.95,9.94,6.80,9.94,6.81,-6.80,-6.90,-6.34,3.13,3.14,3.13
79.74,9.91,6.77,9.91,6.78,-6.78,-6.88,-6.26,3.13,3.13,3.13
80.54,9.89,6.75,9.88,6.75,-6.75,-6.85,-6.19,3.13,3.13,3.13
81.35,9.85,6.71,9.86,6.73,-6.73,-6.82,-6.12,3.12,3.13,3.13
82.16,9.85,6.71,9.84,6.71,-6.70,-6.80,-6.06,3.14,3.13,3.13
82.98,9.81,6.67,9.81,6.68,-6.68,-6.77,-5.99,3.13,3.13,3.13
83.81,9.80,6.66,9.79,6.66,-6.65,-6.74,-5.94,3.15,3.14,3.13
84.65,9.75,6.61,9.76,6.63,-6.62,-6.71,-5.88,3.12,3.14,3.13
85.50,9.74,6.60,9.73,6.60,-6.60,-6.68,-5.83,3.14,3.13,3.13
86.35,9.71,6.57,9.70,6.57,-6.57,-6.65,-5.79,3.14,3.13,3.13
87.22,9.66,6.53,9.67,6.54,-6.54,-6.62,-5.75,3.12,3.13,3.13
88.09,9.64,6.50,9.64,6.50,-6.51,-6.59,-5.71,3.13,3.13,3.13
88.97,9.61,6.47,9.61,6.47,-6.47,-6.55,-5.68,3.13,3.13,3.13
89.86,9.58,6.44,9.58,6.45,-6.44,-6.52,-5.65,3.13,3.14,3.13
90.76,9.55,6.41,9.54,6.41,-6.41,-6.49,-5.63,3.14,3.13,3.13
91.66,9.52,6.38,9.51,6.38,-6.38,-6.45,-5.61,3.14,3.13,3.13
92.58,9.47,6.33,9.48,6.35,-6.35,-6.42,-5.59,3.12,3.13,3.13
93.51,9.46,6.32,9.45,6.32,-6.32,-6.38,-5.58,3.14,3.13,3.13
94.44,9.43,6.29,9.42,6.29,-6.29,-6.35,-5.57,3.14,3.13,3.13
95.39,9.40,6.26,9.40,6.26,-6.26,-6.31,-5.57,3.14,3.14,3.13
96.34,9.36,6.22,9.36,6.23,-6.23,-6.27,-5.57,3.13,3.13,3.13
97.30,9.33,6.19,9.33,6.20,-6.20,-6.23,-5.57,3.13,3.13,3.13
98.28,9.30,6.16,9.30,6.17,-6.17,-6.20,-5.58,3.13,3.13,3.13
99.26,9.29,6.15,9.27,6.14,-6.14,-6.16,-5.59,3.15,3.13,3.13
100.25,9.24,6.10,9.24,6.11,-6.11,-6.12,-5.60,3.13,3.13,3.13
101.25,9.21,6.07,9.21,6.08,-6.08,-6.08,-5.62,3.13,3.13,3.13
102.27,9.19,6.05,9.18,6.05,-6.05,-6.04,-5.64,3.14,3.13,3.13
103.29,9.15,6.01,9.15,6.02,-6.02,-6.00,-5.65,3.13,3.13,3.13
104.32,9.12,5.98,9.12,5.98,-5.98,-5.96,-5.68,3.13,3.13,3.13
105.37,9.08,5.95,9.08,5.95,-5.95,-5.92,-5.70,3.13,3.13,3.13
106.42,9.05,5.91,9.04,5.91,-5.91,-5.88,-5.72,3.14,3.13,3.13
107.48,9.01,5.87,9.01,5.88,-5.87,-5.84,-5.75,3.13,3.14,3.13
108.56,8.97,5.83,8.97,5.84,-5.83,-5.79,-5.77,3.13,3.14,3.13
109.64,8.94,5.80,8.93,5.80,-5.80,-5.75,-5.79,3.14,3.13,3.13
110.74,8.88,5.74,8.89,5.75,-5.75,-5.71,-5.81,3.12,3.13,3.13
111.85,8.85,5.71,8.84,5.71,-5.71,-5.67,-5.83,3.13,3.13,3.13
112.97,8.80,5.67,8.80,5.67,-5.67,-5.62,-5.85,3.12,3.13,3.13
114.10,8.77,5.63,8.76,5.63,-5.63,-5.58,-5.87,3.14,3.13,3.13
115.24,8.73,5.59,8.72,5.59,-5.59,-5.53,-5.88,3.14,3.13,3.13
116.39,8.68,5.54,8.69,5.55,-5.55,-5.49,-5.89,3.13,3.13,3.13
117.55,8.65,5.51,8.64,5.51,-5.51,-5.45,-5.89,3.14,3.13,3.13
118.73,8.61,5.47,8.60,5.47,-5.47,-5.40,-5.90,3.14,3.13,3.13
119.92,8.56,5.43,8.56,5.43,-5.43,-5.36,-5.89,3.13,3.13,3.13
121.12,8.53,5.39,8.52,5.39,-5.39,-5.31,-5.88,3.14,3.13,3.13
122.33,8.48,5.35,8.48,5.35,-5.35,-5.27,-5.87,3.13,3.13,3.13
123.55,8.45,5.31,8.44,5.31,-5.31,-5.22,-5.85,3.14,3.13,3.13
124.79,8.39,5.26,8.39,5.26,-5.26,-5.18,-5.82,3.12,3.13,3.13
126.03,8.36,5.22,8.36,5.22,-5.22,-5.13,-5.79,3.14,3.13,3.13
127.29,8.31,5.17,8.31,5.18,-5.18,-5.09,-5.75,3.13,3.13,3.13
128.57,8.28,5.14,8.27,5.14,-5.14,-5.04,-5.71,3.14,3.13,3.13
129.85,8.22,5.08,8.23,5.09,-5.09,-4.99,-5.66,3.12,3.13,3.13
131.15,8.19,5.05,8.18,5.05,-5.05,-4.95,-5.61,3.14,3.13,3.13
132.46,8.14,5.00,8.14,5.01,-5.01,-4.90,-5.54,3.13,3.13,3.13
133.79,8.10,4.96,8.10,4.96,-4.96,-4.86,-5.48,3.13,3.13,3.13
135.12,8.05,4.91,8.05,4.92,-4.92,-4.81,-5.41,3.13,3.13,3.13
136.48,8.01,4.87,8.01,4.87,-4.87,-4.76,-5.34,3.13,3.13,3.13
137.84,7.97,4.83,7.96,4.83,-4.83,-4.72,-5.26,3.14,3.13,3.13
139.22,7.91,4.77,7.91,4.78,-4.78,-4.67,-5.18,3.13,3.13,3.13
140.61,7.87,4.73,7.87,4.73,-4.73,-4.62,-5.10,3.13,3.13,3.13
142.02,7.82,4.68,7.82,4.68,-4.69,-4.58,-5.01,3.13,3.13,3.13
143.44,7.77,4.63,7.77,4.64,-4.64,-4.53,-4.92,3.13,3.13,3.13
144.87,7.72,4.58,7.72,4.59,-4.59,-4.48,-4.84,3.13,3.13,3.13
146.32,7.68,4.54,7.67,4.54,-4.54,-4.44,-4.75,3.14,3.14,3.13
147.78,7.63,4.49,7.62,4.49,-4.49,-4.39,-4.66,3.14,3.14,3.13
149.26,7.57,4.43,7.57,4.44,-4.44,-4.34,-4.56,3.13,3.14,3.13
150.75,7.52,4.38,7.52,4.38,-4.39,-4.30,-4.47,3.13,3.13,3.13
152.26,7.47,4.33,7.46,4.33,-4.33,-4.25,-4.38,3.13,3.13,3.13
153.78,7.41,4.27,7.41,4.28,-4.28,-4.20,-4.29,3.12,3.13,3.13
155.32,7.36,4.22,7.36,4.23,-4.23,-4.15,-4.21,3.12,3.13,3.13
156.88,7.33,4.19,7.32,4.18,-4.18,-4.11,-4.12,3.14,3.13,3.13
158.44,7.27,4.13,7.27,4.14,-4.13,-4.06,-4.03,3.13,3.13,3.13
160.03,7.22,4.08,7.22,4.09,-4.09,-4.01,-3.95,3.13,3.13,3.13
161.63,7.17,4.03,7.17,4.04,-4.04,-3.97,-3.87,3.13,3.13,3.13
163.24,7.13,3.99,7.12,3.99,-3.99,-3.92,-3.79,3.13,3.13,3.13
164.88,7.08,3.94,7.08,3.94,-3.95,-3.87,-3.71,3.13,3.13,3.13
166.53,7.03,3.89,7.03,3.90,-3.90,-3.82,-3.63,3.13,3.13,3.13
168.19,6.98,3.84,6.98,3.85,-3.84,-3.78,-3.56,3.13,3.14,3.13
169.87,6.94,3.80,6.93,3.80,-3.79,-3.73,-3.49,3.15,3.14,3.13
171.57,6.88,3.74,6.87,3.74,-3.73,-3.68,-3.42,3.14,3.14,3.13
173.29,6.80,3.66,6.81,3.68,-3.68,-3.63,-3.35,3.12,3.14,3.13
175.02,6.75,3.61,6.75,3.61,-3.62,-3.58,-3.29,3.13,3.13,3.13
176.77,6.70,3.56,6.68,3.55,-3.55,-3.54,-3.23,3.14,3.13,3.13
178.54,6.62,3.48,6.63,3.49,-3.49,-3.49,-3.17,3.13,3.14,3.13
180.32,6.56,3.42,6.56,3.43,-3.43,-3.44,-3.11,3.13,3.14,3.13
182.13,6.51,3.37,6.50,3.37,-3.37,-3.39,-3.06,3.14,3.13,3.13
183.95,6.44,3.30,6.44,3.31,-3.31,-3.34,-3.00,3.13,3.13,3.13
185.79,6.38,3.24,6.38,3.25,-3.25,-3.30,-2.95,3.13,3.13,3.13
187.65,6.33,3.19,6.32,3.19,-3.20,-3.25,-2.91,3.13,3.12,3.13
189.52,6.28,3.14,6.28,3.15,-3.15,-3.20,-2.86,3.12,3.13,3.13
191.42,6.24,3.10,6.24,3.11,-3.11,-3.15,-2.82,3.13,3.13,3.13
193.33,6.21,3.07,6.20,3.07,-3.07,-3.10,-2.78,3.13,3.13,3.13
195.27,6.17,3.03,6.18,3.04,-3.04,-3.05,-2.74,3.13,3.14,3.13
197.22,6.15,3.01,6.14,3.01,-3.01,-3.01,-2.70,3.14,3.14,3.13
199.19,6.12,2.98,6.11,2.98,-2.97,-2.96,-2.66,3.14,3.14,3.13
201.18,6.07,2.93,6.08,2.94,-2.94,-2.91,-2.63,3.13,3.14,3.13
203.19,6.05,2.91,6.04,2.91,-2.91,-2.86,-2.60,3.14,3.13,3.13
205.23,6.00,2.86,6.00,2.87,-2.87,-2.81,-2.57,3.13,3.13,3.13
207.28,5.97,2.83,5.96,2.83,-2.83,-2.76,-2.54,3.14,3.14,3.13
209.35,5.92,2.78,5.92,2.78,-2.78,-2.71,-2.51,3.13,3.13,3.13
211.44,5.87,2.73,5.87,2.74,-2.74,-2.66,-2.48,3.13,3.13,3.13
213.56,5.82,2.68,5.82,2.69,-2.69,-2.61,-2.45,3.13,3.13,3.13
215.69,5.77,2.63,5.77,2.63,-2.63,-2.56,-2.42,3.13,3.14,3.13
217.85,5.72,2.58,5.71,2.58,-2.58,-2.51,-2.40,3.14,3.13,3.13
220.03,5.65,2.51,5.65,2.52,-2.52,-2.46,-2.37,3.13,3.13,3.13
222.23,5.59,2.45,5.59,2.46,-2.46,-2.41,-2.35,3.13,3.13,3.13
224.45,5.54,2.40,5.54,2.40,-2.40,-2.36,-2.32,3.13,3.13,3.13
226.70,5.49,2.35,5.48,2.34,-2.34,-2.31,-2.29,3.14,3.13,3.13
228.96,5.41,2.27,5.41,2.28,-2.29,-2.26,-2.26,3.12,3.13,3.13
231.25,5.35,2.21,5.36,2.22,-2.23,-2.21,-2.24,3.12,3.13,3.13
233.57,5.31,2.17,5.30,2.17,-2.17,-2.16,-2.21,3.14,3.13,3.13
235.90,5.26,2.12,5.25,2.12,-2.12,-2.11,-2.18,3.14,3.14,3.13
238.26,5.20,2.06,5.20,2.07,-2.06,-2.06,-2.15,3.14,3.14,3.13
240.64,5.14,2.00,5.14,2.01,-2.01,-2.00,-2.11,3.13,3.13,3.13
243.05,5.08,1.94,5.08,1.95,-1.95,-1.95,-2.08,3.12,3.13,3.13
245.48,5.03,1.89,5.03,1.89,-1.90,-1.90,-2.04,3.13,3.13,3.13
247.93,4.98,1.84,4.98,1.84,-1.84,-1.85,-2.00,3.13,3.13,3.13
250.41,4.93,1.79,4.93,1.80,-1.79,-1.80,-1.96,3.14,3.14,3.13
252.92,4.88,1.74,4.87,1.74,-1.74,-1.75,-1.92,3.14,3.14,3.13
255.45,4.82,1.68,4.81,1.68,-1.68,-1.69,-1.88,3.14,3.13,3.13
258.00,4.75,1.61,4.75,1.62,-1.63,-1.64,-1.83,3.12,3.13,3.13
260.58,4.70,1.56,4.70,1.57,-1.57,-1.59,-1.79,3.13,3.13,3.13
263.19,4.65,1.51,4.65,1.52,-1.51,-1.54,-1.74,3.13,3.13,3.13
265.82,4.61,1.47,4.59,1.46,-1.46,-1.48,-1.69,3.15,3.14,3.13
268.48,4.53,1.39,4.53,1.40,-1.40,-1.43,-1.64,3.13,3.14,3.13
271.16,4.47,1.33,4.47,1.34,-1.34,-1.38,-1.58,3.13,3.13,3.13
273.87,4.42,1.28,4.41,1.28,-1.28,-1.32,-1.53,3.13,3.13,3.13
276.61,4.36,1.22,4.36,1.22,-1.22,-1.27,-1.47,3.13,3.13,3.13
279.38,4.30,1.16,4.30,1.17,-1.16,-1.22,-1.41,3.13,3.14,3.13
282.17,4.24,1.10,4.24,1.11,-1.10,-1.16,-1.35,3.13,3.14,3.13
284.99,4.18,1.04,4.18,1.04,-1.04,-1.11,-1.29,3.13,3.13,3.13
287.84,4.12,0.98,4.11,0.98,-0.99,-1.06,-1.23,3.13,3.13,3.13
290.72,4.05,0.91,4.05,0.92,-0.93,-1.00,-1.17,3.12,3.13,3.13
293.63,4.00,0.86,4.00,0.87,-0.87,-0.95,-1.10,3.13,3.13,3.13
296.57,3.96,0.82,3.95,0.82,-0.81,-0.89,-1.04,3.14,3.14,3.13
299.53,3.91,0.77,3.89,0.76,-0.76,-0.84,-0.97,3.15,3.14,3.13
302.53,3.82,0.68,3.83,0.70,-0.70,-0.78,-0.91,3.12,3.13,3.13
305.55,3.77,0.63,3.77,0.64,-0.64,-0.73,-0.84,3.13,3.13,3.13
308.61,3.72,0.58,3.71,0.58,-0.58,-0.67,-0.78,3.14,3.13,3.13
311.69,3.66,0.52,3.66,0.53,-0.52,-0.62,-0.71,3.14,3.14,3.13
314.81,3.60,0.46,3.60,0.47,-0.46,-0.56,-0.64,3.14,3.14,3.13
317.96,3.54,0.40,3.54,0.41,-0.40,-0.51,-0.58,3.14,3.14,3.13
321.14,3.48,0.34,3.48,0.34,-0.34,-0.45,-0.51,3.13,3.13,3.13
324.35,3.42,0.28,3.41,0.28,-0.29,-0.39,-0.44,3.13,3.13,3.13
327.59,3.35,0.21,3.35,0.22,-0.23,-0.34,-0.37,3.12,3.12,3.13
330.87,3.30,0.16,3.30,0.17,-0.17,-0.28,-0.31,3.12,3.13,3.13
334.18,3.26,0.12,3.25,0.12,-0.12,-0.23,-0.24,3.14,3.14,3.13
337.52,3.21,0.07,3.20,0.07,-0.06,-0.17,-0.17,3.15,3.14,3.13
340.90,3.15,0.01,3.14,0.01,-0.00,-0.11,-0.10,3.14,3.14,3.13
344.30,3.07,-0.07,3.08,-0.05,0.05,-0.06,-0.03,3.12,3.14,3.13
347.75,3.03,-0.11,3.02,-0.11,0.11,0.00,0.03,3.14,3.13,3.13
351.23,2.97,-0.17,2.96,-0.17,0.17,0.06,0.10,3.14,3.13,3.13
354.74,2.90,-0.24,2.90,-0.23,0.23,0.12,0.17,3.12,3.13,3.13
358.28,2.84,-0.30,2.84,-0.29,0.29,0.17,0.24,3.12,3.13,3.13
361.87,2.79,-0.35,2.79,-0.34,0.34,0.23,0.31,3.13,3.13,3.13
365.49,2.75,-0.39,2.74,-0.40,0.40,0.29,0.38,3.15,3.14,3.13
369.14,2.68,-0.46,2.68,-0.45,0.46,0.35,0.45,3.13,3.14,3.13
372.83,2.62,-0.52,2.62,-0.51,0.51,0.40,0.52,3.13,3.13,3.13
376.56,2.57,-0.57,2.56,-0.57,0.56,0.46,0.59,3.13,3.12,3.13
380.33,2.51,-0.63,2.51,-0.62,0.62,0.52,0.66,3.12,3.13,3.13
384.13,2.46,-0.68,2.46,-0.67,0.67,0.58,0.73,3.13,3.13,3.13
387.97,2.42,-0.72,2.41,-0.72,0.73,0.63,0.80,3.14,3.14,3.13
391.85,2.37,-0.77,2.36,-0.77,0.78,0.69,0.87,3.15,3.14,3.13
395.77,2.30,-0.84,2.30,-0.83,0.83,0.75,0.94,3.13,3.14,3.13
399.73,2.24,-0.90,2.24,-0.89,0.89,0.81,1.01,3.13,3.13,3.13
403.72,2.19,-0.95,2.18,-0.95,0.94,0.87,1.08,3.13,3.13,3.13
407.76,2.13,-1.01,2.13,-1.00,1.00,0.93,1.15,3.13,3.13,3.13
411.84,2.08,-1.06,2.07,-1.06,1.06,0.98,1.21,3.14,3.13,3.13
415.96,2.02,-1.12,2.02,-1.11,1.11,1.04,1.28,3.13,3.13,3.13
420.12,1.97,-1.17,1.97,-1.17,1.16,1.10,1.35,3.13,3.13,3.13
424.32,1.92,-1.22,1.91,-1.22,1.22,1.16,1.42,3.13,3.13,3.13
428.56,1.86,-1.28,1.86,-1.27,1.27,1.22,1.49,3.13,3.13,3.13
432.85,1.81,-1.33,1.81,-1.32,1.32,1.27,1.55,3.13,3.13,3.13
437.18,1.77,-1.37,1.76,-1.37,1.37,1.33,1.62,3.14,3.14,3.13
441.55,1.72,-1.42,1.71,-1.42,1.43,1.39,1.68,3.14,3.14,3.13
445.96,1.66,-1.48,1.66,-1.47,1.48,1.45,1.74,3.14,3.14,3.13
450.42,1.60,-1.54,1.60,-1.54,1.53,1.50,1.80,3.13,3.13,3.13
454.93,1.54,-1.60,1.54,-1.59,1.58,1.56,1.86,3.12,3.12,3.13
459.48,1.49,-1.65,1.49,-1.64,1.64,1.62,1.91,3.12,3.13,3.13
464.07,1.45,-1.69,1.44,-1.69,1.69,1.67,1.97,3.13,3.13,3.13
468.71,1.40,-1.74,1.40,-1.74,1.74,1.73,2.02,3.14,3.13,3.13
473.40,1.35,-1.79,1.35,-1.78,1.79,1.79,2.07,3.14,3.14,3.13
478.13,1.30,-1.84,1.30,-1.83,1.84,1.84,2.12,3.14,3.14,3.13
482.91,1.26,-1.88,1.25,-1.88,1.89,1.90,2.16,3.14,3.14,3.13
487.74,1.19,-1.95,1.20,-1.94,1.94,1.95,2.20,3.12,3.13,3.13
492.62,1.15,-1.99,1.14,-1.99,1.99,2.01,2.24,3.13,3.13,3.13
497.55,1.09,-2.05,1.09,-2.04,2.04,2.06,2.28,3.13,3.13,3.13
502.52,1.05,-2.09,1.04,-2.09,2.09,2.12,2.31,3.14,3.13,3.13
507.55,0.99,-2.15,0.99,-2.14,2.14,2.17,2.34,3.13,3.13,3.13
512.62,0.95,-2.19,0.95,-2.19,2.19,2.22,2.37,3.14,3.14,3.13
517.75,0.90,-2.24,0.89,-2.24,2.24,2.28,2.39,3.14,3.13,3.13
522.93,0.84,-2.30,0.84,-2.29,2.29,2.33,2.42,3.13,3.13,3.13
528.16,0.79,-2.35,0.79,-2.34,2.34,2.38,2.44,3.12,3.13,3.13
533.44,0.76,-2.38,0.75,-2.39,2.38,2.43,2.46,3.14,3.13,3.13
