frequency,raw,error,smoothed,error_smoothed,equalization,parametric_eq,fixed_band_eq,equalized_raw,equalized_smoothed,target
20.00,-14.51,-15.39,-14.51,-15.38,6.00,6.00,2.66,-8.51,-8.51,0.87
20.20,-14.46,-15.34,-14.46,-15.34,6.00,6.01,2.74,-8.46,-8.46,0.87
20.40,-14.41,-15.30,-14.42,-15.30,6.00,6.01,2.82,-8.41,-8.42,0.88
20.61,-14.36,-15.26,-14.36,-15.25,6.00,6.01,2.90,-8.36,-8.36,0.89
20.81,-14.31,-15.21,-14.31,-15.21,6.00,6.01,2.98,-8.31,-8.31,0.89
21.02,-14.26,-15.17,-14.26,-15.16,6.00,6.01,3.06,-8.26,-8.26,0.90
21.23,-14.20,-15.11,-14.21,-15.11,6.00,6.01,3.15,-8.20,-8.21,0.90
21.44,-14.15,-15.06,-14.15,-15.06,6.00,6.01,3.24,-8.15,-8.15,0.91
21.66,-14.09,-15.02,-14.10,-15.01,6.00,6.01,3.33,-8.09,-8.10,0.92
21.87,-14.04,-14.96,-14.04,-14.97,6.00,6.01,3.43,-8.04,-8.04,0.92
22.09,-13.98,-14.91,-13.98,-14.91,6.00,6.01,3.52,-7.98,-7.98,0.93
22.31,-13.92,-14.86,-13.92,-14.86,6.00,6.01,3.62,-7.92,-7.92,0.94
22.54,-13.85,-14.79,-13.86,-14.80,6.00,6.01,3.72,-7.85,-7.86,0.94
22.76,-13.79,-14.74,-13.79,-14.74,6.00,6.01,3.83,-7.79,-7.79,0.95
22.99,-13.72,-14.68,-13.73,-14.68,6.00,6.01,3.94,-7.72,-7.73,0.96
23.22,-13.66,-14.63,-13.67,-14.64,6.00,6.01,4.05,-7.66,-7.67,0.97
23.45,-13.61,-14.59,-13.61,-14.59,6.00,6.01,4.16,-7.61,-7.61,0.98
23.69,-13.56,-14.55,-13.56,-14.55,6.00,6.01,4.27,-7.56,-7.56,0.99
23.92,-13.50,-14.50,-13.50,-14.50,6.00,6.01,4.39,-7.50,-7.50,1.00
24.16,-13.44,-14.45,-13.44,-14.45,6.00,6.01,4.51,-7.44,-7.44,1.01
24.40,-13.37,-14.39,-13.38,-14.40,6.00,6.01,4.63,-7.37,-7.38,1.02
24.65,-13.31,-14.35,-13.32,-14.35,6.00,6.01,4.76,-7.31,-7.32,1.04
24.89,-13.25,-14.30,-13.25,-14.29,6.00,6.01,4.88,-7.25,-7.25,1.04
25.14,-13.17,-14.23,-13.17,-14.22,6.00,6.01,5.01,-7.17,-7.17,1.05
25.39,-13.08,-14.15,-13.09,-14.15,6.00,6.01,5.13,-7.08,-7.09,1.06
25.65,-13.00,-14.08,-13.01,-14.08,6.00,6.01,5.26,-7.00,-7.01,1.07
25.91,-12.93,-14.02,-12.92,-14.01,6.00,6.01,5.39,-6.93,-6.92,1.09
26.16,-12.84,-13.94,-12.84,-13.94,6.00,6.01,5.52,-6.84,-6.84,1.10
26.43,-12.76,-13.87,-12.75,-13.87,6.00,6.01,5.65,-6.76,-6.75,1.11
26.69,-12.66,-13.78,-12.66,-13.78,6.00,6.02,5.78,-6.66,-6.66,1.12
26.96,-12.56,-13.70,-12.57,-13.71,6.00,6.02,5.90,-6.56,-6.57,1.14
27.23,-12.48,-13.63,-12.49,-13.64,6.00,6.02,6.03,-6.48,-6.49,1.15
27.50,-12.40,-13.57,-12.40,-13.57,6.00,6.02,6.15,-6.40,-6.40,1.17
27.77,-12.32,-13.50,-12.32,-13.49,6.00,6.02,6.27,-6.32,-6.32,1.18
28.05,-12.22,-13.42,-12.23,-13.42,6.00,6.02,6.38,-6.22,-6.23,1.20
28.33,-12.14,-13.35,-12.15,-13.35,6.00,6.02,6.49,-6.14,-6.15,1.20
28.62,-12.07,-13.30,-12.07,-13.29,6.00,6.02,6.60,-6.07,-6.07,1.22
28.90,-12.00,-13.24,-12.00,-13.23,6.00,6.02,6.69,-6.00,-6.00,1.23
29.19,-11.92,-13.18,-11.93,-13.18,6.00,6.02,6.79,-5.92,-5.93,1.25
29.48,-11.85,-13.11,-11.85,-13.12,6.00,6.02,6.87,-5.85,-5.85,1.26
29.78,-11.78,-13.06,-11.78,-13.06,6.00,6.02,6.95,-5.78,-5.78,1.28
30.08,-11.71,-13.00,-11.72,-13.01,6.00,6.02,7.01,-5.71,-5.72,1.29
30.38,-11.65,-12.96,-11.65,-12.96,6.00,6.02,7.08,-5.65,-5.65,1.31
30.68,-11.58,-12.90,-11.59,-12.90,6.00,6.02,7.12,-5.58,-5.59,1.32
30.99,-11.52,-12.86,-11.52,-12.85,6.00,6.02,7.16,-5.52,-5.52,1.33
31.30,-11.45,-12.80,-11.45,-12.80,6.00,6.02,7.19,-5.45,-5.45,1.34
31.61,-11.38,-12.75,-11.39,-12.75,6.00,6.02,7.21,-5.38,-5.39,1.36
31.93,-11.32,-12.69,-11.33,-12.70,6.00,6.02,7.22,-5.32,-5.33,1.37
32.24,-11.27,-12.66,-11.27,-12.66,6.00,6.02,7.23,-5.27,-5.27,1.39
32.57,-11.21,-12.61,-11.21,-12.61,6.00,6.02,7.22,-5.21,-5.21,1.40
32.89,-11.14,-12.56,-11.14,-12.56,6.00,6.02,7.20,-5.14,-5.14,1.42
33.22,-11.07,-12.50,-11.08,-12.51,6.00,6.02,7.17,-5.07,-5.08,1.42
33.55,-11.02,-12.46,-11.02,-12.46,6.00,6.02,7.14,-5.02,-5.02,1.44
33.89,-10.97,-12.42,-10.97,-12.42,6.00,6.02,7.10,-4.97,-4.97,1.45
34.23,-10.92,-12.39,-10.92,-12.38,6.00,6.02,7.06,-4.92,-4.92,1.47
34.57,-10.86,-12.34,-10.87,-12.34,6.00,6.02,7.01,-4.86,-4.87,1.48
34.92,-10.80,-12.29,-10.81,-12.30,6.00,6.02,6.95,-4.80,-4.81,1.48
35.27,-10.75,-12.26,-10.75,-12.25,6.00,6.02,6.89,-4.75,-4.75,1.50
35.62,-10.69,-12.20,-10.69,-12.20,6.00,6.02,6.83,-4.69,-4.69,1.51
35.97,-10.63,-12.15,-10.63,-12.15,6.00,6.02,6.77,-4.63,-4.63,1.52
36.33,-10.56,-12.09,-10.56,-12.09,6.00,6.02,6.70,-4.56,-4.56,1.52
36.70,-10.49,-12.03,-10.50,-12.03,6.00,6.02,6.64,-4.49,-4.50,1.53
37.06,-10.43,-11.97,-10.44,-11.98,6.00,6.02,6.57,-4.43,-4.44,1.54
37.43,-10.38,-11.93,-10.38,-11.93,6.00,6.02,6.50,-4.38,-4.38,1.55
37.81,-10.32,-11.88,-10.32,-11.87,6.00,6.02,6.43,-4.32,-4.32,1.55
38.19,-10.25,-11.82,-10.25,-11.81,6.00,6.02,6.37,-4.25,-4.25,1.56
38.57,-10.17,-11.74,-10.18,-11.75,6.00,6.02,6.31,-4.17,-4.18,1.57
38.95,-10.11,-11.69,-10.11,-11.69,6.00,6.02,6.25,-4.11,-4.11,1.58
39.34,-10.05,-11.63,-10.05,-11.63,6.00,6.01,6.19,-4.05,-4.05,1.58
39.74,-9.99,-11.58,-9.99,-11.58,6.00,6.01,6.13,-3.99,-3.99,1.59
40.14,-9.92,-11.51,-9.92,-11.51,6.00,6.01,6.08,-3.92,-3.92,1.58
40.54,-9.85,-11.45,-9.85,-11.44,6.00,6.01,6.03,-3.85,-3.85,1.59
40.94,-9.77,-11.37,-9.78,-11.38,6.00,6.01,5.98,-3.77,-3.78,1.60
41.35,-9.71,-11.32,-9.71,-11.32,6.00,6.01,5.94,-3.71,-3.71,1.60
41.76,-9.65,-11.26,-9.65,-11.26,6.00,6.01,5.90,-3.65,-3.65,1.61
42.18,-9.60,-11.22,-9.60,-11.22,6.00,6.01,5.87,-3.60,-3.60,1.62
42.60,-9.54,-11.16,-9.54,-11.16,6.00,6.01,5.84,-3.54,-3.54,1.62
43.03,-9.48,-11.11,-9.49,-11.11,6.00,6.01,5.81,-3.48,-3.49,1.63
43.46,-9.42,-11.06,-9.43,-11.06,6.00,6.01,5.79,-3.42,-3.43,1.63
43.90,-9.37,-11.01,-9.37,-11.01,6.00,6.01,5.77,-3.37,-3.37,1.64
44.33,-9.31,-10.97,-9.31,-10.96,6.00,6.00,5.76,-3.31,-3.31,1.65
44.78,-9.25,-10.91,-9.26,-10.91,6.00,6.00,5.75,-3.25,-3.26,1.66
45.23,-9.20,-10.87,-9.21,-10.87,6.00,6.00,5.75,-3.20,-3.21,1.66
45.68,-9.16,-10.84,-9.17,-10.84,6.00,6.00,5.75,-3.16,-3.17,1.68
46.13,-9.13,-10.81,-9.13,-10.82,6.00,6.00,5.75,-3.13,-3.13,1.68
46.60,-9.10,-10.80,-9.10,-10.79,6.00,6.00,5.76,-3.10,-3.10,1.69
47.06,-9.06,-10.76,-9.06,-10.76,6.00,6.00,5.77,-3.06,-3.06,1.70
47.53,-9.01,-10.73,-9.02,-10.73,6.00,5.99,5.79,-3.01,-3.02,1.71
48.01,-8.97,-10.69,-8.98,-10.69,6.00,5.99,5.81,-2.97,-2.98,1.71
48.49,-8.94,-10.67,-8.94,-10.67,6.00,5.99,5.83,-2.94,-2.94,1.73
48.97,-8.90,-10.63,-8.91,-10.64,6.00,5.99,5.86,-2.90,-2.91,1.73
49.46,-8.87,-10.62,-8.87,-10.61,6.00,5.99,5.89,-2.87,-2.87,1.74
49.96,-8.83,-10.58,-8.83,-10.58,6.00,5.99,5.92,-2.83,-2.83,1.75
50.46,-8.79,-10.54,-8.79,-10.54,6.00,5.99,5.96,-2.79,-2.79,1.75
50.96,-8.74,-10.50,-8.75,-10.50,6.00,5.98,6.00,-2.74,-2.75,1.76
51.47,-8.70,-10.46,-8.71,-10.47,6.00,5.98,6.04,-2.70,-2.71,1.76
51.99,-8.66,-10.43,-8.66,-10.42,6.00,5.98,6.08,-2.66,-2.66,1.76
52.51,-8.62,-10.39,-8.62,-10.38,6.00,5.98,6.13,-2.62,-2.62,1.76
53.03,-8.57,-10.34,-8.58,-10.34,6.00,5.98,6.18,-2.57,-2.58,1.76
53.56,-8.53,-10.31,-8.54,-10.31,6.00,5.98,6.22,-2.53,-2.54,1.77
54.10,-8.49,-10.27,-8.49,-10.27,6.00,5.97,6.27,-2.49,-2.49,1.77
54.64,-8.45,-10.23,-8.45,-10.22,6.00,5.97,6.32,-2.45,-2.45,1.77
55.18,-8.40,-10.17,-8.41,-10.17,6.00,5.97,6.36,-2.40,-2.41,1.76
55.74,-8.36,-10.13,-8.36,-10.13,6.00,5.97,6.41,-2.36,-2.36,1.76
56.29,-8.32,-10.08,-8.32,-10.08,6.00,5.97,6.45,-2.32,-2.32,1.76
56.86,-8.28,-10.03,-8.28,-10.03,6.00,5.97,6.49,-2.28,-2.28,1.75
57.42,-8.24,-9.99,-8.24,-9.99,6.00,5.97,6.53,-2.24,-2.24,1.75
58.00,-8.20,-9.94,-8.21,-9.94,6.00,5.97,6.56,-2.20,-2.21,1.73
58.58,-8.17,-9.90,-8.17,-9.90,6.00,5.97,6.59,-2.17,-2.17,1.73
59.16,-8.13,-9.85,-8.14,-9.85,6.00,5.97,6.62,-2.13,-2.14,1.72
59.76,-8.10,-9.81,-8.10,-9.81,6.00,5.97,6.64,-2.10,-2.10,1.70
60.35,-8.07,-9.76,-8.07,-9.76,6.00,5.97,6.65,-2.07,-2.07,1.69
60.96,-8.03,-9.71,-8.04,-9.71,6.00,5.97,6.66,-2.03,-2.04,1.67
61.57,-7.99,-9.65,-7.99,-9.65,6.00,5.97,6.67,-1.99,-1.99,1.66
62.18,-7.95,-9.60,-7.95,-9.60,6.00,5.97,6.67,-1.95,-1.95,1.64
62.80,-7.90,-9.53,-7.91,-9.53,6.00,5.97,6.66,-1.90,-1.91,1.63
63.43,-7.86,-9.48,-7.86,-9.47,6.00,5.97,6.64,-1.86,-1.86,1.61
64.07,-7.81,-9.40,-7.81,-9.40,6.00,5.97,6.63,-1.81,-1.81,1.58
64.71,-7.77,-9.34,-7.78,-9.34,6.00,5.97,6.60,-1.77,-1.78,1.57
65.35,-7.74,-9.29,-7.74,-9.29,6.00,5.98,6.57,-1.74,-1.74,1.55
66.01,-7.72,-9.25,-7.72,-9.25,6.00,5.98,6.53,-1.72,-1.72,1.53
66.67,-7.70,-9.22,-7.71,-9.22,6.00,5.98,6.49,-1.70,-1.71,1.51
67.33,-7.69,-9.19,-7.69,-9.18,6.00,5.99,6.45,-1.69,-1.69,1.49
68.01,-7.67,-9.14,-7.68,-9.14,6.00,5.99,6.40,-1.67,-1.68,1.46
68.69,-7.66,-9.10,-7.66,-9.10,6.00,6.00,6.34,-1.66,-1.66,1.44
69.37,-7.64,-9.06,-7.64,-9.06,6.00,6.00,6.29,-1.64,-1.64,1.42
70.07,-7.61,-9.01,-7.62,-9.02,6.00,6.01,6.23,-1.61,-1.62,1.40
70.77,-7.59,-8.97,-7.60,-8.97,6.00,6.01,6.17,-1.59,-1.60,1.38
71.48,-7.58,-8.94,-7.58,-8.93,6.00,6.02,6.10,-1.58,-1.58,1.35
72.19,-7.56,-8.89,-7.56,-8.90,6.00,6.02,6.04,-1.56,-1.56,1.33
72.91,-7.54,-8.86,-7.55,-8.86,6.00,6.02,5.98,-1.54,-1.55,1.32
73.64,-7.52,-8.81,-7.52,-8.81,6.00,6.03,5.91,-1.52,-1.52,1.29
74.38,-7.49,-8.77,-7.49,-8.77,6.00,6.03,5.85,-1.49,-1.49,1.28
75.12,-7.46,-8.71,-7.46,-8.71,6.00,6.04,5.79,-1.46,-1.46,1.25
75.87,-7.42,-8.66,-7.43,-8.66,6.00,6.04,5.73,-1.42,-1.43,1.23
76.63,-7.39,-8.61,-7.39,-8.61,6.00,6.04,5.67,-1.39,-1.39,1.22
77.40,-7.36,-8.56,-7.37,-8.57,6.00,6.04,5.61,-1.36,-1.37,1.20
78.17,-7.34,-8.53,-7.34,-8.52,6.00,6.04,5.55,-1.34,-1.34,1.18
78.95,-7.32,-8.49,-7.32,-8.48,6.00,6.03,5.50,-1.32,-1.32,1.16
79.74,-7.30,-8.45,-7.30,-8.45,6.00,6.03,5.45,-1.30,-1.30,1.14
80.54,-7.28,-8.41,-7.29,-8.41,6.00,6.02,5.40,-1.28,-1.29,1.12
81.35,-7.28,-8.39,-7.28,-8.39,6.00,6.01,5.36,-1.28,-1.28,1.10
82.16,-7.28,-8.37,-7.28,-8.36,6.00,6.01,5.32,-1.28,-1.28,1.08
82.98,-7.28,-8.35,-7.29,-8.35,6.00,6.00,5.28,-1.28,-1.29,1.06
83.81,-7.29,-8.33,-7.29,-8.33,6.00,5.98,5.25,-1.29,-1.29,1.04
84.65,-7.30,-8.32,-7.30,-8.32,6.00,5.97,5.22,-1.30,-1.30,1.02
85.50,-7.30,-8.30,-7.30,-8.30,6.00,5.96,5.19,-1.30,-1.30,1.00
86.35,-7.30,-8.28,-7.30,-8.28,6.00,5.95,5.17,-1.30,-1.30,0.97
87.22,-7.30,-8.25,-7.30,-8.25,6.00,5.93,5.15,-1.30,-1.30,0.95
88.09,-7.30,-8.23,-7.30,-8.23,6.00,5.92,5.14,-1.30,-1.30,0.92
88.97,-7.30,-8.21,-7.30,-8.21,6.00,5.91,5.13,-1.30,-1.30,0.91
89.86,-7.30,-8.19,-7.30,-8.19,6.00,5.90,5.12,-1.30,-1.30,0.89
90.76,-7.30,-8.16,-7.30,-8.17,6.00,5.89,5.12,-1.30,-1.30,0.86
91.66,-7.30,-8.15,-7.30,-8.14,6.00,5.88,5.12,-1.30,-1.30,0.84
92.58,-7.29,-8.11,-7.29,-8.11,6.00,5.87,5.12,-1.29,-1.29,0.82
93.51,-7.28,-8.08,-7.29,-8.08,6.00,5.87,5.13,-1.28,-1.29,0.79
94.44,-7.28,-8.06,-7.28,-8.06,6.00,5.87,5.14,-1.28,-1.28,0.78
95.39,-7.28,-8.03,-7.28,-8.04,6.00,5.87,5.16,-1.28,-1.28,0.75
96.34,-7.29,-8.02,-7.29,-8.02,6.00,5.88,5.18,-1.29,-1.29,0.73
97.30,-7.30,-8.01,-7.31,-8.01,6.00,5.88,5.20,-1.30,-1.31,0.70
98.28,-7.32,-8.00,-7.32,-8.00,6.00,5.90,5.22,-1.32,-1.32,0.68
99.26,-7.34,-7.99,-7.34,-7.99,6.00,5.91,5.25,-1.34,-1.34,0.65
100.25,-7.36,-7.99,-7.37,-7.99,6.00,5.93,5.28,-1.36,-1.37,0.63
101.25,-7.39,-8.00,-7.39,-7.99,6.00,5.95,5.31,-1.39,-1.39,0.60
102.27,-7.42,-8.00,-7.42,-7.99,6.00,5.97,5.34,-1.42,-1.42,0.57
103.29,-7.45,-7.99,-7.46,-8.00,6.00,6.00,5.38,-1.45,-1.46,0.54
104.32,-7.48,-7.99,-7.49,-7.99,6.00,6.03,5.42,-1.48,-1.49,0.51
105.37,-7.52,-8.00,-7.52,-7.99,6.00,6.06,5.45,-1.52,-1.52,0.48
106.42,-7.54,-7.98,-7.55,-7.99,6.00,6.10,5.49,-1.54,-1.55,0.44
107.48,-7.57,-7.98,-7.57,-7.98,6.00,6.13,5.53,-1.57,-1.57,0.40
108.56,-7.60,-7.97,-7.60,-7.96,6.00,6.17,5.56,-1.60,-1.60,0.36
109.64,-7.62,-7.95,-7.63,-7.96,6.00,6.21,5.60,-1.62,-1.63,0.33
110.74,-7.65,-7.94,-7.65,-7.94,6.00,6.24,5.63,-1.65,-1.65,0.29
111.85,-7.67,-7.92,-7.67,-7.92,6.00,6.27,5.67,-1.67,-1.67,0.25
112.97,-7.67,-7.88,-7.68,-7.89,6.00,6.30,5.69,-1.67,-1.68,0.20
114.10,-7.68,-7.85,-7.68,-7.84,6.00,6.32,5.72,-1.68,-1.68,0.16
115.24,-7.67,-7.79,-7.67,-7.79,6.00,6.34,5.74,-1.67,-1.67,0.12
116.39,-7.65,-7.73,-7.66,-7.74,6.00,6.35,5.76,-1.65,-1.66,0.08
117.55,-7.63,-7.67,-7.64,-7.67,6.00,6.34,5.77,-1.63,-1.64,0.03
118.73,-7.61,-7.61,-7.61,-7.61,6.00,6.34,5.77,-1.61,-1.61,-0.00
119.92,-7.58,-7.54,-7.58,-7.54,6.00,6.31,5.77,-1.58,-1.58,-0.05
121.12,-7.54,-7.46,-7.55,-7.46,6.00,6.28,5.77,-1.54,-1.55,-0.08
122.33,-7.49,-7.37,-7.50,-7.38,6.00,6.23,5.75,-1.49,-1.50,-0.12
123.55,-7.43,-7.28,-7.43,-7.27,6.00,6.18,5.73,-1.43,-1.43,-0.15
124.79,-7.34,-7.15,-7.34,-7.15,6.02,6.10,5.70,-1.33,-1.33,-0.19
126.03,-7.23,-7.01,-7.24,-7.01,6.04,6.02,5.67,-1.20,-1.20,-0.22
127.29,-7.10,-6.85,-7.10,-6.84,6.05,5.92,5.62,-1.05,-1.05,-0.26
128.57,-6.94,-6.65,-6.94,-6.65,6.04,5.81,5.58,-0.90,-0.90,-0.29
129.85,-6.76,-6.44,-6.77,-6.44,6.01,5.69,5.52,-0.76,-0.76,-0.32
131.15,-6.57,-6.22,-6.57,-6.22,5.94,5.56,5.46,-0.64,-0.64,-0.36
132.46,-6.37,-5.99,-6.37,-5.99,5.83,5.42,5.38,-0.55,-0.54,-0.39
133.79,-6.15,-5.75,-6.16,-5.75,5.68,5.28,5.31,-0.47,-0.48,-0.41
135.12,-5.94,-5.50,-5.94,-5.50,5.49,5.13,5.23,-0.45,-0.45,-0.44
136.48,-5.71,-5.24,-5.71,-5.24,5.27,4.98,5.14,-0.45,-0.45,-0.47
137.84,-5.48,-4.98,-5.48,-4.98,5.02,4.83,5.05,-0.47,-0.46,-0.50
139.22,-5.23,-4.70,-5.24,-4.71,4.74,4.67,4.95,-0.49,-0.50,-0.53
140.61,-4.99,-4.44,-5.00,-4.44,4.46,4.52,4.85,-0.54,-0.54,-0.56
142.02,-4.76,-4.19,-4.76,-4.18,4.18,4.36,4.75,-0.58,-0.58,-0.58
143.44,-4.53,-3.93,-4.53,-3.93,3.93,4.21,4.64,-0.60,-0.60,-0.60
144.87,-4.31,-3.68,-4.32,-3.69,3.69,4.05,4.54,-0.62,-0.63,-0.63
146.32,-4.12,-3.46,-4.12,-3.45,3.46,3.90,4.42,-0.66,-0.65,-0.67
147.78,-3.93,-3.24,-3.94,-3.24,3.26,3.76,4.31,-0.68,-0.68,-0.69
149.26,-3.77,-3.06,-3.78,-3.06,3.06,3.61,4.20,-0.71,-0.71,-0.72
150.75,-3.63,-2.89,-3.63,-2.89,2.89,3.47,4.09,-0.74,-0.74,-0.74
152.26,-3.50,-2.74,-3.51,-2.73,2.74,3.34,3.97,-0.77,-0.77,-0.77
153.78,-3.39,-2.59,-3.40,-2.60,2.60,3.20,3.86,-0.80,-0.80,-0.80
155.32,-3.30,-2.48,-3.30,-2.48,2.48,3.08,3.75,-0.82,-0.82,-0.82
156.88,-3.22,-2.38,-3.22,-2.38,2.38,2.95,3.64,-0.84,-0.85,-0.85
158.44,-3.16,-2.30,-3.16,-2.29,2.29,2.83,3.52,-0.87,-0.87,-0.87
160.03,-3.11,-2.21,-3.12,-2.22,2.22,2.71,3.41,-0.89,-0.89,-0.90
161.63,-3.08,-2.16,-3.08,-2.16,2.17,2.60,3.30,-0.92,-0.92,-0.92
163.24,-3.06,-2.11,-3.06,-2.12,2.12,2.49,3.20,-0.94,-0.94,-0.95
164.88,-3.05,-2.08,-3.06,-2.09,2.08,2.39,3.09,-0.97,-0.98,-0.97
166.53,-3.06,-2.06,-3.06,-2.06,2.05,2.29,2.98,-1.01,-1.01,-1.00
168.19,-3.06,-2.04,-3.06,-2.03,2.03,2.19,2.88,-1.04,-1.03,-1.03
169.87,-3.06,-2.01,-3.06,-2.01,2.00,2.10,2.78,-1.06,-1.06,-1.06
171.57,-3.06,-1.98,-3.07,-1.98,1.98,2.01,2.68,-1.08,-1.09,-1.08
173.29,-3.07,-1.96,-3.07,-1.96,1.96,1.92,2.58,-1.12,-1.12,-1.11
175.02,-3.08,-1.95,-3.08,-1.94,1.93,1.84,2.49,-1.15,-1.15,-1.14
176.77,-3.08,-1.91,-3.08,-1.91,1.91,1.76,2.39,-1.18,-1.18,-1.17
178.54,-3.08,-1.88,-3.08,-1.88,1.88,1.68,2.30,-1.20,-1.20,-1.20
180.32,-3.08,-1.85,-3.08,-1.85,1.86,1.61,2.21,-1.23,-1.23,-1.24
182.13,-3.08,-1.82,-3.09,-1.82,1.83,1.54,2.12,-1.25,-1.25,-1.26
183.95,-3.09,-1.80,-3.09,-1.80,1.81,1.47,2.03,-1.29,-1.29,-1.29
185.79,-3.10,-1.78,-3.10,-1.78,1.78,1.40,1.94,-1.33,-1.33,-1.33
187.65,-3.11,-1.76,-3.11,-1.76,1.75,1.33,1.86,-1.36,-1.36,-1.35
189.52,-3.11,-1.73,-3.11,-1.72,1.72,1.27,1.78,-1.39,-1.39,-1.39
191.42,-3.10,-1.69,-3.11,-1.69,1.69,1.21,1.70,-1.41,-1.42,-1.42
193.33,-3.09,-1.64,-3.10,-1.65,1.65,1.15,1.62,-1.44,-1.44,-1.45
195.27,-3.08,-1.61,-3.09,-1.61,1.61,1.10,1.54,-1.47,-1.47,-1.47
197.22,-3.07,-1.57,-3.07,-1.57,1.56,1.04,1.46,-1.51,-1.51,-1.50
199.19,-3.05,-1.52,-3.05,-1.52,1.51,0.99,1.39,-1.54,-1.54,-1.54
201.18,-3.02,-1.45,-3.03,-1.45,1.45,0.94,1.32,-1.58,-1.58,-1.58
203.19,-2.99,-1.39,-2.99,-1.38,1.38,0.89,1.24,-1.61,-1.61,-1.61
205.23,-2.94,-1.31,-2.95,-1.31,1.31,0.84,1.18,-1.64,-1.64,-1.64
207.28,-2.89,-1.23,-2.90,-1.23,1.22,0.79,1.11,-1.67,-1.67,-1.67
209.35,-2.84,-1.15,-2.84,-1.14,1.14,0.75,1.04,-1.70,-1.70,-1.70
211.44,-2.78,-1.05,-2.78,-1.05,1.05,0.71,0.97,-1.73,-1.73,-1.74
213.56,-2.72,-0.96,-2.73,-0.96,0.96,0.66,0.91,-1.76,-1.77,-1.76
215.69,-2.67,-0.87,-2.67,-0.87,0.87,0.62,0.85,-1.80,-1.80,-1.80
217.85,-2.62,-0.78,-2.62,-0.79,0.79,0.58,0.79,-1.84,-1.83,-1.84
220.03,-2.57,-0.71,-2.57,-0.70,0.71,0.54,0.73,-1.87,-1.87,-1.87
222.23,-2.52,-0.63,-2.53,-0.63,0.63,0.50,0.67,-1.89,-1.89,-1.90
224.45,-2.49,-0.56,-2.49,-0.56,0.57,0.47,0.61,-1.93,-1.92,-1.93
226.70,-2.46,-0.50,-2.47,-0.50,0.51,0.43,0.56,-1.95,-1.96,-1.96
228.96,-2.44,-0.46,-2.45,-0.46,0.46,0.40,0.51,-1.98,-1.99,-1.99
231.25,-2.44,-0.43,-2.43,-0.42,0.42,0.36,0.45,-2.02,-2.01,-2.01
233.57,-2.42,-0.39,-2.43,-0.39,0.39,0.33,0.40,-2.03,-2.04,-2.03
235.90,-2.41,-0.36,-2.42,-0.36,0.36,0.29,0.36,-2.05,-2.05,-2.06
238.26,-2.41,-0.34,-2.41,-0.34,0.35,0.26,0.31,-2.07,-2.07,-2.07
240.64,-2.41,-0.32,-2.42,-0.33,0.33,0.23,0.26,-2.08,-2.09,-2.09
243.05,-2.42,-0.32,-2.42,-0.32,0.32,0.20,0.22,-2.11,-2.11,-2.11
245.48,-2.43,-0.31,-2.43,-0.31,0.31,0.17,0.18,-2.13,-2.13,-2.12
247.93,-2.44,-0.31,-2.44,-0.31,0.30,0.14,0.14,-2.15,-2.14,-2.14
250.41,-2.44,-0.29,-2.44,-0.29,0.29,0.11,0.10,-2.15,-2.15,-2.15
252.92,-2.44,-0.28,-2.45,-0.28,0.28,0.08,0.06,-2.16,-2.16,-2.17
255.45,-2.44,-0.26,-2.45,-0.27,0.28,0.05,0.02,-2.17,-2.17,-2.18
258.00,-2.45,-0.26,-2.45,-0.26,0.27,0.02,-0.01,-2.19,-2.19,-2.19
260.58,-2.45,-0.25,-2.46,-0.25,0.25,-0.00,-0.04,-2.20,-2.20,-2.20
263.19,-2.46,-0.25,-2.46,-0.24,0.24,-0.03,-0.08,-2.23,-2.22,-2.21
265.82,-2.45,-0.23,-2.45,-0.23,0.22,-0.06,-0.11,-2.23,-2.23,-2.23
268.48,-2.44,-0.20,-2.45,-0.21,0.20,-0.08,-0.14,-2.25,-2.25,-2.24
271.16,-2.43,-0.18,-2.43,-0.18,0.17,-0.11,-0.16,-2.26,-2.26,-2.26
273.87,-2.41,-0.14,-2.41,-0.14,0.14,-0.14,-0.19,-2.27,-2.27,-2.27
276.61,-2.38,-0.10,-2.39,-0.10,0.10,-0.16,-0.22,-2.28,-2.28,-2.28
279.38,-2.35,-0.06,-2.36,-0.06,0.06,-0.19,-0.24,-2.29,-2.30,-2.30
282.17,-2.33,-0.02,-2.33,-0.02,0.02,-0.21,-0.27,-2.31,-2.31,-2.31
284.99,-2.30,0.02,-2.30,0.02,-0.02,-0.24,-0.29,-2.33,-2.32,-2.32
287.84,-2.26,0.07,-2.27,0.07,-0.07,-0.26,-0.32,-2.33,-2.33,-2.34
290.72,-2.23,0.11,-2.23,0.11,-0.11,-0.29,-0.34,-2.34,-2.35,-2.35
293.63,-2.20,0.16,-2.21,0.16,-0.15,-0.31,-0.36,-2.36,-2.36,-2.36
296.57,-2.18,0.19,-2.18,0.19,-0.19,-0.34,-0.39,-2.38,-2.37,-2.37
299.53,-2.15,0.23,-2.16,0.23,-0.23,-0.36,-0.41,-2.39,-2.39,-2.39
302.53,-2.13,0.27,-2.13,0.27,-0.27,-0.39,-0.43,-2.40,-2.40,-2.40
305.55,-2.11,0.31,-2.11,0.30,-0.30,-0.41,-0.45,-2.41,-2.41,-2.42
308.61,-2.10,0.33,-2.10,0.33,-0.32,-0.44,-0.48,-2.43,-2.43,-2.43
311.69,-2.09,0.35,-2.10,0.35,-0.35,-0.46,-0.50,-2.44,-2.44,-2.45
314.81,-2.09,0.37,-2.10,0.37,-0.37,-0.49,-0.52,-2.46,-2.46,-2.47
317.96,-2.10,0.38,-2.10,0.38,-0.38,-0.51,-0.55,-2.49,-2.48,-2.48
321.14,-2.10,0.40,-2.11,0.39,-0.40,-0.53,-0.57,-2.50,-2.50,-2.50
324.35,-2.11,0.40,-2.11,0.40,-0.41,-0.56,-0.59,-2.53,-2.52,-2.51
327.59,-2.11,0.42,-2.11,0.42,-0.43,-0.58,-0.62,-2.54,-2.54,-2.54
330.87,-2.11,0.43,-2.11,0.44,-0.44,-0.61,-0.64,-2.55,-2.55,-2.55
334.18,-2.11,0.46,-2.11,0.45,-0.45,-0.63,-0.67,-2.57,-2.57,-2.57
337.52,-2.11,0.47,-2.11,0.47,-0.47,-0.66,-0.69,-2.58,-2.58,-2.58
340.90,-2.11,0.49,-2.11,0.49,-0.48,-0.68,-0.72,-2.60,-2.60,-2.60
344.30,-2.11,0.50,-2.11,0.50,-0.50,-0.71,-0.75,-2.61,-2.61,-2.61
347.75,-2.11,0.52,-2.12,0.52,-0.51,-0.73,-0.78,-2.63,-2.63,-2.64
351.23,-2.12,0.53,-2.12,0.53,-0.53,-0.76,-0.80,-2.65,-2.65,-2.66
354.74,-2.13,0.54,-2.13,0.54,-0.54,-0.79,-0.83,-2.68,-2.67,-2.67
358.28,-2.13,0.56,-2.14,0.55,-0.56,-0.81,-0.86,-2.69,-2.70,-2.69
361.87,-2.13,0.58,-2.13,0.58,-0.58,-0.84,-0.89,-2.72,-2.72,-2.71
365.49,-2.12,0.60,-2.12,0.60,-0.61,-0.87,-0.92,-2.73,-2.73,-2.72
369.14,-2.10,0.64,-2.11,0.64,-0.64,-0.89,-0.96,-2.74,-2.75,-2.74
372.83,-2.08,0.67,-2.09,0.67,-0.68,-0.92,-0.99,-2.76,-2.76,-2.76
376.56,-2.06,0.71,-2.06,0.72,-0.72,-0.95,-1.02,-2.78,-2.78,-2.78
380.33,-2.03,0.76,-2.03,0.76,-0.76,-0.97,-1.06,-2.79,-2.80,-2.80
384.13,-2.00,0.80,-2.00,0.81,-0.81,-1.00,-1.09,-2.81,-2.81,-2.81
387.97,-1.97,0.86,-1.97,0.85,-0.85,-1.03,-1.13,-2.82,-2.82,-2.83
391.85,-1.94,0.90,-1.94,0.90,-0.89,-1.06,-1.16,-2.84,-2.84,-2.84
395.77,-1.91,0.94,-1.91,0.94,-0.93,-1.09,-1.20,-2.85,-2.85,-2.85
399.73,-1.88,0.98,-1.89,0.98,-0.97,-1.12,-1.23,-2.86,-2.86,-2.86
403.72,-1.86,1.01,-1.86,1.01,-1.01,-1.15,-1.27,-2.87,-2.87,-2.87
407.76,-1.84,1.04,-1.85,1.04,-1.04,-1.18,-1.31,-2.89,-2.89,-2.88
411.84,-1.83,1.07,-1.83,1.07,-1.07,-1.21,-1.35,-2.91,-2.90,-2.90
415.96,-1.81,1.10,-1.81,1.10,-1.10,-1.24,-1.39,-2.92,-2.92,-2.92
420.12,-1.79,1.13,-1.79,1.13,-1.13,-1.27,-1.43,-2.93,-2.93,-2.93
424.32,-1.77,1.16,-1.77,1.16,-1.16,-1.30,-1.46,-2.94,-2.94,-2.94
428.56,-1.75,1.19,-1.75,1.20,-1.19,-1.33,-1.50,-2.95,-2.95,-2.95
