frequency,raw,error,smoothed,error_smoothed,equalization,parametric_eq,fixed_band_eq,equalized_raw,equalized_smoothed,target
20.00,-6.45,-8.16,-6.45,-8.16,6.00,6.47,2.63,-0.45,-0.45,1.71
20.20,-6.38,-8.13,-6.38,-8.13,6.00,6.45,2.71,-0.38,-0.38,1.75
20.40,-6.31,-8.10,-6.30,-8.09,6.00,6.43,2.79,-0.31,-0.30,1.79
20.61,-6.24,-8.05,-6.23,-8.05,6.00,6.41,2.87,-0.24,-0.23,1.81
20.81,-6.16,-8.01,-6.16,-8.01,6.00,6.39,2.95,-0.16,-0.16,1.85
21.02,-6.09,-7.98,-6.09,-7.97,6.00,6.37,3.04,-0.09,-0.09,1.89
21.23,-6.02,-7.93,-6.01,-7.93,6.00,6.35,3.12,-0.02,-0.01,1.91
21.44,-5.95,-7.88,-5.94,-7.87,6.00,6.33,3.21,0.05,0.06,1.93
21.66,-5.87,-7.82,-5.87,-7.82,6.00,6.31,3.30,0.13,0.13,1.95
21.87,-5.80,-7.75,-5.80,-7.76,6.00,6.29,3.40,0.20,0.20,1.96
22.09,-5.73,-7.70,-5.72,-7.70,6.00,6.27,3.50,0.27,0.28,1.98
22.31,-5.66,-7.64,-5.65,-7.64,6.00,6.25,3.60,0.34,0.35,1.99
22.54,-5.58,-7.57,-5.58,-7.57,6.00,6.22,3.70,0.42,0.42,1.99
22.76,-5.51,-7.50,-5.50,-7.50,6.00,6.20,3.81,0.49,0.50,2.00
22.99,-5.43,-7.42,-5.43,-7.43,6.00,6.18,3.91,0.57,0.57,2.00
23.22,-5.36,-7.36,-5.36,-7.36,6.00,6.16,4.03,0.64,0.64,2.01
23.45,-5.29,-7.30,-5.29,-7.30,6.00,6.13,4.14,0.71,0.71,2.02
23.69,-5.22,-7.24,-5.21,-7.24,6.00,6.11,4.26,0.78,0.79,2.03
23.92,-5.14,-7.18,-5.14,-7.18,6.00,6.08,4.37,0.86,0.86,2.05
24.16,-5.07,-7.13,-5.06,-7.12,6.00,6.06,4.49,0.93,0.94,2.06
24.40,-4.99,-7.06,-4.99,-7.06,6.00,6.03,4.61,1.01,1.01,2.07
24.65,-4.92,-6.99,-4.91,-6.99,6.00,6.01,4.74,1.08,1.09,2.07
24.89,-4.83,-6.93,-4.84,-6.93,6.00,5.98,4.86,1.17,1.16,2.09
25.14,-4.77,-6.87,-4.76,-6.86,6.00,5.96,4.99,1.23,1.24,2.10
25.39,-4.68,-6.80,-4.69,-6.80,6.00,5.93,5.12,1.32,1.31,2.11
25.65,-4.62,-6.74,-4.62,-6.74,6.00,5.90,5.25,1.38,1.38,2.12
25.91,-4.55,-6.68,-4.54,-6.67,6.00,5.87,5.38,1.45,1.46,2.13
26.16,-4.47,-6.60,-4.47,-6.61,6.00,5.85,5.51,1.53,1.53,2.14
26.43,-4.40,-6.55,-4.40,-6.55,6.00,5.82,5.63,1.60,1.60,2.15
26.69,-4.33,-6.49,-4.32,-6.49,6.00,5.79,5.76,1.67,1.68,2.17
26.96,-4.25,-6.42,-4.25,-6.43,6.00,5.76,5.89,1.75,1.75,2.18
27.23,-4.18,-6.36,-4.18,-6.37,6.00,5.73,6.01,1.83,1.83,2.19
27.50,-4.11,-6.31,-4.11,-6.31,6.01,5.70,6.13,1.90,1.90,2.21
27.77,-4.04,-6.24,-4.04,-6.24,6.01,5.67,6.24,1.98,1.98,2.20
28.05,-3.97,-6.19,-3.96,-6.18,6.01,5.64,6.35,2.04,2.05,2.22
28.33,-3.89,-6.11,-3.89,-6.12,6.00,5.60,6.45,2.11,2.11,2.22
28.62,-3.82,-6.06,-3.82,-6.06,5.98,5.57,6.55,2.16,2.17,2.24
28.90,-3.75,-6.00,-3.74,-5.99,5.95,5.54,6.64,2.21,2.21,2.25
29.19,-3.67,-5.93,-3.67,-5.93,5.92,5.51,6.73,2.25,2.25,2.26
29.48,-3.60,-5.87,-3.60,-5.87,5.87,5.47,6.80,2.28,2.28,2.28
29.78,-3.53,-5.81,-3.53,-5.81,5.82,5.44,6.86,2.29,2.30,2.29
30.08,-3.46,-5.75,-3.46,-5.75,5.76,5.40,6.91,2.31,2.31,2.30
30.38,-3.39,-5.69,-3.39,-5.69,5.70,5.37,6.96,2.31,2.31,2.30
30.68,-3.32,-5.63,-3.32,-5.63,5.64,5.33,6.98,2.32,2.32,2.31
30.99,-3.25,-5.57,-3.25,-5.57,5.58,5.30,7.00,2.33,2.33,2.32
31.30,-3.19,-5.52,-3.18,-5.52,5.52,5.26,7.01,2.33,2.33,2.33
31.61,-3.12,-5.47,-3.12,-5.46,5.46,5.22,7.00,2.34,2.34,2.35
31.93,-3.06,-5.41,-3.05,-5.40,5.40,5.18,6.98,2.35,2.35,2.35
32.24,-2.99,-5.34,-2.99,-5.35,5.35,5.15,6.96,2.36,2.36,2.36
32.57,-2.93,-5.29,-2.92,-5.29,5.29,5.11,6.91,2.37,2.37,2.36
32.89,-2.86,-5.24,-2.86,-5.24,5.24,5.07,6.86,2.38,2.38,2.38
33.22,-2.80,-5.18,-2.79,-5.18,5.18,5.03,6.80,2.38,2.39,2.38
33.55,-2.73,-5.13,-2.73,-5.13,5.12,4.99,6.73,2.40,2.39,2.40
33.89,-2.67,-5.06,-2.67,-5.07,5.07,4.95,6.65,2.40,2.40,2.40
34.23,-2.61,-5.02,-2.60,-5.01,5.01,4.91,6.56,2.40,2.41,2.42
34.57,-2.54,-4.95,-2.54,-4.96,4.95,4.87,6.46,2.42,2.41,2.41
34.92,-2.48,-4.90,-2.47,-4.90,4.90,4.82,6.36,2.42,2.42,2.42
35.27,-2.41,-4.84,-2.41,-4.83,4.84,4.78,6.25,2.43,2.43,2.43
35.62,-2.35,-4.77,-2.35,-4.78,4.78,4.74,6.14,2.43,2.43,2.43
35.97,-2.29,-4.71,-2.29,-4.72,4.72,4.69,6.02,2.44,2.43,2.43
36.33,-2.24,-4.68,-2.23,-4.67,4.66,4.65,5.90,2.43,2.43,2.44
36.70,-2.18,-4.62,-2.17,-4.61,4.61,4.61,5.78,2.43,2.43,2.44
37.06,-2.12,-4.54,-2.12,-4.55,4.55,4.56,5.66,2.44,2.43,2.43
37.43,-2.06,-4.49,-2.06,-4.49,4.49,4.51,5.54,2.44,2.44,2.43
37.81,-2.01,-4.44,-2.00,-4.43,4.44,4.47,5.41,2.43,2.44,2.43
38.19,-1.95,-4.38,-1.95,-4.38,4.38,4.42,5.29,2.43,2.43,2.43
38.57,-1.90,-4.33,-1.90,-4.33,4.32,4.38,5.16,2.43,2.43,2.44
38.95,-1.85,-4.27,-1.84,-4.27,4.26,4.33,5.04,2.42,2.42,2.42
39.34,-1.79,-4.21,-1.79,-4.21,4.21,4.28,4.92,2.42,2.42,2.42
39.74,-1.74,-4.14,-1.74,-4.15,4.15,4.23,4.80,2.42,2.41,2.41
40.14,-1.69,-4.10,-1.69,-4.09,4.10,4.18,4.68,2.41,2.41,2.41
40.54,-1.64,-4.04,-1.64,-4.04,4.04,4.13,4.56,2.41,2.41,2.40
40.94,-1.59,-3.99,-1.59,-3.99,3.99,4.09,4.45,2.40,2.40,2.41
41.35,-1.54,-3.94,-1.54,-3.94,3.94,4.04,4.34,2.40,2.40,2.40
41.76,-1.49,-3.88,-1.49,-3.89,3.89,3.99,4.23,2.40,2.40,2.40
42.18,-1.44,-3.84,-1.44,-3.84,3.84,3.94,4.12,2.40,2.40,2.40
42.60,-1.39,-3.78,-1.39,-3.79,3.79,3.88,4.02,2.40,2.40,2.40
43.03,-1.34,-3.74,-1.34,-3.74,3.73,3.83,3.92,2.40,2.40,2.40
43.46,-1.29,-3.69,-1.29,-3.69,3.68,3.78,3.82,2.40,2.40,2.40
43.90,-1.24,-3.63,-1.24,-3.63,3.63,3.73,3.72,2.40,2.39,2.40
44.33,-1.20,-3.59,-1.19,-3.58,3.58,3.68,3.63,2.39,2.39,2.39
44.78,-1.15,-3.53,-1.15,-3.53,3.54,3.63,3.54,2.39,2.39,2.38
45.23,-1.10,-3.49,-1.10,-3.48,3.49,3.57,3.45,2.39,2.39,2.39
45.68,-1.06,-3.44,-1.05,-3.44,3.44,3.52,3.36,2.39,2.39,2.38
46.13,-1.01,-3.39,-1.01,-3.40,3.40,3.47,3.28,2.40,2.39,2.39
46.60,-0.97,-3.37,-0.96,-3.36,3.36,3.42,3.20,2.39,2.40,2.40
47.06,-0.92,-3.31,-0.92,-3.32,3.32,3.36,3.13,2.40,2.40,2.40
47.53,-0.88,-3.28,-0.88,-3.28,3.28,3.31,3.05,2.40,2.40,2.40
48.01,-0.84,-3.25,-0.84,-3.24,3.23,3.26,2.98,2.40,2.40,2.41
48.49,-0.80,-3.20,-0.80,-3.20,3.19,3.20,2.91,2.40,2.40,2.41
48.97,-0.76,-3.14,-0.76,-3.15,3.15,3.15,2.84,2.39,2.39,2.39
49.46,-0.72,-3.10,-0.72,-3.10,3.10,3.10,2.78,2.39,2.39,2.38
49.96,-0.68,-3.04,-0.68,-3.05,3.06,3.04,2.71,2.38,2.38,2.36
50.46,-0.64,-3.01,-0.64,-3.01,3.01,2.99,2.65,2.37,2.37,2.38
50.96,-0.60,-2.96,-0.60,-2.96,2.96,2.94,2.59,2.36,2.36,2.37
51.47,-0.56,-2.91,-0.55,-2.91,2.91,2.88,2.54,2.36,2.36,2.35
51.99,-0.51,-2.86,-0.51,-2.86,2.86,2.83,2.48,2.35,2.35,2.35
52.51,-0.47,-2.82,-0.47,-2.81,2.81,2.78,2.43,2.34,2.34,2.35
53.03,-0.43,-2.77,-0.42,-2.76,2.75,2.73,2.38,2.33,2.33,2.34
53.56,-0.38,-2.71,-0.38,-2.71,2.70,2.67,2.33,2.32,2.32,2.33
54.10,-0.33,-2.64,-0.33,-2.64,2.64,2.62,2.28,2.32,2.32,2.31
54.64,-0.28,-2.58,-0.28,-2.58,2.59,2.57,2.23,2.31,2.31,2.30
55.18,-0.24,-2.53,-0.24,-2.52,2.53,2.52,2.18,2.30,2.30,2.29
55.74,-0.20,-2.47,-0.20,-2.48,2.48,2.47,2.14,2.28,2.28,2.27
56.29,-0.17,-2.43,-0.17,-2.43,2.43,2.41,2.10,2.26,2.26,2.27
56.86,-0.14,-2.38,-0.14,-2.38,2.38,2.36,2.05,2.24,2.25,2.25
57.42,-0.11,-2.33,-0.11,-2.34,2.33,2.31,2.01,2.23,2.23,2.22
58.00,-0.08,-2.29,-0.08,-2.29,2.29,2.26,1.97,2.21,2.21,2.21
58.58,-0.05,-2.25,-0.04,-2.24,2.24,2.21,1.93,2.20,2.20,2.20
59.16,-0.01,-2.19,-0.01,-2.20,2.19,2.16,1.89,2.19,2.18,2.19
59.76,0.02,-2.15,0.02,-2.15,2.14,2.12,1.85,2.16,2.16,2.17
60.35,0.05,-2.09,0.05,-2.09,2.09,2.07,1.81,2.14,2.14,2.15
60.96,0.08,-2.04,0.08,-2.04,2.03,2.02,1.77,2.11,2.11,2.12
61.57,0.11,-1.97,0.12,-1.97,1.97,1.97,1.73,2.09,2.09,2.09
62.18,0.15,-1.91,0.15,-1.91,1.92,1.92,1.69,2.07,2.07,2.06
62.80,0.18,-1.85,0.18,-1.85,1.86,1.88,1.65,2.04,2.04,2.04
63.43,0.21,-1.80,0.21,-1.80,1.80,1.83,1.61,2.02,2.02,2.01
64.07,0.23,-1.75,0.24,-1.75,1.75,1.79,1.57,1.98,1.99,1.98
64.71,0.26,-1.70,0.26,-1.70,1.70,1.74,1.53,1.96,1.96,1.96
65.35,0.28,-1.65,0.29,-1.65,1.65,1.70,1.49,1.94,1.94,1.94
66.01,0.31,-1.60,0.31,-1.61,1.61,1.66,1.45,1.92,1.92,1.92
66.67,0.32,-1.57,0.33,-1.56,1.56,1.61,1.41,1.89,1.89,1.89
67.33,0.34,-1.52,0.34,-1.52,1.52,1.57,1.37,1.87,1.87,1.86
68.01,0.36,-1.48,0.36,-1.48,1.48,1.53,1.33,1.84,1.84,1.84
68.69,0.37,-1.44,0.38,-1.44,1.43,1.49,1.29,1.81,1.81,1.81
69.37,0.39,-1.39,0.39,-1.39,1.39,1.45,1.26,1.78,1.78,1.79
70.07,0.41,-1.35,0.42,-1.35,1.34,1.41,1.22,1.75,1.76,1.77
70.77,0.45,-1.29,0.45,-1.29,1.29,1.37,1.18,1.74,1.74,1.74
71.48,0.48,-1.24,0.48,-1.24,1.24,1.33,1.14,1.72,1.72,1.72
72.19,0.51,-1.18,0.51,-1.18,1.18,1.29,1.10,1.70,1.70,1.70
72.91,0.54,-1.13,0.54,-1.13,1.13,1.25,1.06,1.68,1.68,1.67
73.64,0.57,-1.07,0.57,-1.08,1.09,1.21,1.02,1.66,1.66,1.65
74.38,0.60,-1.03,0.60,-1.03,1.04,1.18,0.99,1.64,1.64,1.63
75.12,0.62,-0.99,0.62,-1.00,1.00,1.14,0.95,1.62,1.62,1.62
75.87,0.64,-0.97,0.64,-0.97,0.96,1.10,0.91,1.61,1.61,1.61
76.63,0.66,-0.93,0.66,-0.93,0.93,1.07,0.87,1.59,1.59,1.59
77.40,0.68,-0.90,0.69,-0.90,0.89,1.03,0.83,1.58,1.58,1.59
78.17,0.71,-0.86,0.71,-0.86,0.86,1.00,0.80,1.58,1.57,1.57
78.95,0.73,-0.84,0.73,-0.83,0.83,0.96,0.76,1.57,1.57,1.57
79.74,0.75,-0.81,0.76,-0.80,0.80,0.93,0.72,1.56,1.56,1.56
80.54,0.77,-0.78,0.77,-0.78,0.78,0.89,0.69,1.55,1.55,1.55
81.35,0.79,-0.75,0.79,-0.75,0.75,0.86,0.65,1.55,1.54,1.54
82.16,0.80,-0.73,0.81,-0.73,0.73,0.83,0.62,1.53,1.54,1.53
82.98,0.81,-0.72,0.81,-0.71,0.71,0.79,0.58,1.53,1.53,1.53
83.81,0.82,-0.68,0.82,-0.70,0.70,0.76,0.55,1.53,1.52,1.51
84.65,0.81,-0.69,0.82,-0.69,0.69,0.73,0.51,1.51,1.51,1.51
85.50,0.81,-0.69,0.81,-0.69,0.69,0.70,0.48,1.50,1.50,1.50
86.35,0.80,-0.69,0.80,-0.69,0.69,0.66,0.44,1.49,1.49,1.49
87.22,0.79,-0.69,0.80,-0.69,0.69,0.63,0.41,1.48,1.49,1.49
88.09,0.79,-0.68,0.79,-0.69,0.69,0.60,0.37,1.48,1.48,1.47
88.97,0.78,-0.69,0.78,-0.69,0.69,0.57,0.34,1.47,1.47,1.48
89.86,0.77,-0.69,0.78,-0.69,0.68,0.53,0.31,1.46,1.46,1.46
90.76,0.77,-0.67,0.78,-0.68,0.68,0.50,0.27,1.45,1.45,1.45
91.66,0.78,-0.67,0.78,-0.66,0.67,0.47,0.24,1.45,1.45,1.45
92.58,0.79,-0.64,0.79,-0.65,0.65,0.44,0.21,1.44,1.44,1.44
93.51,0.80,-0.64,0.81,-0.63,0.63,0.41,0.17,1.43,1.43,1.44
94.44,0.82,-0.61,0.83,-0.60,0.60,0.37,0.14,1.42,1.42,1.43
95.39,0.85,-0.57,0.85,-0.57,0.56,0.34,0.11,1.42,1.41,1.43
96.34,0.88,-0.52,0.88,-0.52,0.52,0.31,0.08,1.41,1.40,1.40
97.30,0.91,-0.48,0.92,-0.48,0.48,0.28,0.04,1.39,1.39,1.39
98.28,0.95,-0.43,0.95,-0.43,0.43,0.25,0.01,1.39,1.38,1.38
99.26,0.98,-0.38,0.99,-0.38,0.39,0.21,-0.02,1.37,1.37,1.37
100.25,1.02,-0.33,1.02,-0.33,0.34,0.18,-0.05,1.36,1.36,1.36
101.25,1.05,-0.29,1.05,-0.29,0.29,0.15,-0.08,1.35,1.34,1.34
102.27,1.07,-0.25,1.07,-0.25,0.25,0.12,-0.11,1.32,1.32,1.32
103.29,1.08,-0.21,1.09,-0.21,0.21,0.09,-0.14,1.29,1.30,1.29
104.32,1.10,-0.18,1.10,-0.18,0.17,0.05,-0.18,1.28,1.28,1.29
105.37,1.12,-0.13,1.12,-0.14,0.14,0.02,-0.21,1.26,1.26,1.26
106.42,1.13,-0.10,1.14,-0.10,0.11,-0.01,-0.24,1.24,1.24,1.24
107.48,1.14,-0.07,1.14,-0.07,0.07,-0.04,-0.27,1.22,1.21,1.21
108.56,1.13,-0.04,1.13,-0.04,0.04,-0.07,-0.29,1.18,1.18,1.17
109.64,1.12,-0.02,1.13,-0.01,0.01,-0.10,-0.32,1.14,1.14,1.14
110.74,1.12,0.02,1.12,0.01,-0.02,-0.13,-0.35,1.10,1.10,1.11
111.85,1.12,0.05,1.12,0.05,-0.06,-0.17,-0.38,1.07,1.07,1.08
112.97,1.12,0.09,1.12,0.09,-0.09,-0.20,-0.41,1.03,1.03,1.03
114.10,1.12,0.13,1.12,0.13,-0.13,-0.23,-0.43,0.99,0.99,0.99
115.24,1.12,0.17,1.12,0.17,-0.17,-0.26,-0.46,0.95,0.95,0.96
116.39,1.12,0.22,1.12,0.21,-0.21,-0.29,-0.48,0.91,0.91,0.91
117.55,1.12,0.25,1.12,0.25,-0.25,-0.32,-0.51,0.87,0.87,0.87
118.73,1.12,0.30,1.12,0.30,-0.29,-0.35,-0.53,0.83,0.83,0.83
119.92,1.12,0.33,1.12,0.33,-0.33,-0.38,-0.55,0.79,0.79,0.79
121.12,1.12,0.37,1.12,0.37,-0.37,-0.41,-0.57,0.76,0.76,0.75
122.33,1.12,0.41,1.12,0.40,-0.40,-0.44,-0.59,0.72,0.72,0.72
123.55,1.12,0.43,1.12,0.43,-0.44,-0.47,-0.61,0.69,0.69,0.69
124.79,1.12,0.47,1.12,0.46,-0.47,-0.50,-0.63,0.65,0.65,0.66
126.03,1.12,0.50,1.12,0.50,-0.50,-0.53,-0.65,0.62,0.62,0.62
127.29,1.12,0.53,1.12,0.54,-0.54,-0.56,-0.67,0.59,0.59,0.59
128.57,1.12,0.58,1.12,0.57,-0.57,-0.59,-0.68,0.56,0.56,0.55
129.85,1.12,0.60,1.12,0.60,-0.60,-0.62,-0.70,0.53,0.53,0.52
131.15,1.12,0.63,1.12,0.63,-0.63,-0.65,-0.71,0.50,0.50,0.49
132.46,1.12,0.65,1.12,0.65,-0.65,-0.67,-0.73,0.47,0.47,0.47
133.79,1.12,0.68,1.12,0.68,-0.68,-0.70,-0.74,0.44,0.44,0.45
135.12,1.12,0.71,1.12,0.70,-0.71,-0.73,-0.75,0.42,0.42,0.42
136.48,1.12,0.73,1.12,0.73,-0.73,-0.76,-0.77,0.39,0.39,0.40
137.84,1.12,0.75,1.12,0.75,-0.75,-0.78,-0.78,0.37,0.37,0.38
139.22,1.12,0.79,1.12,0.78,-0.77,-0.81,-0.79,0.35,0.35,0.34
140.61,1.12,0.80,1.12,0.80,-0.80,-0.84,-0.80,0.33,0.33,0.32
142.02,1.12,0.81,1.12,0.82,-0.82,-0.87,-0.81,0.30,0.30,0.31
143.44,1.12,0.84,1.12,0.84,-0.84,-0.89,-0.82,0.28,0.28,0.28
144.87,1.12,0.87,1.12,0.86,-0.87,-0.92,-0.83,0.26,0.26,0.26
146.32,1.12,0.89,1.12,0.89,-0.89,-0.94,-0.84,0.23,0.23,0.23
147.78,1.12,0.91,1.12,0.91,-0.91,-0.97,-0.86,0.21,0.21,0.21
149.26,1.12,0.93,1.12,0.94,-0.94,-1.00,-0.87,0.18,0.18,0.19
150.75,1.12,0.97,1.12,0.97,-0.97,-1.02,-0.88,0.16,0.16,0.15
152.26,1.12,1.00,1.12,1.00,-1.00,-1.05,-0.89,0.13,0.13,0.12
153.78,1.12,1.03,1.12,1.03,-1.02,-1.07,-0.90,0.10,0.10,0.10
155.32,1.12,1.06,1.12,1.06,-1.06,-1.10,-0.92,0.07,0.07,0.06
156.88,1.12,1.08,1.12,1.09,-1.09,-1.12,-0.93,0.03,0.03,0.04
158.44,1.12,1.11,1.12,1.12,-1.12,-1.15,-0.94,-0.00,-0.00,0.01
160.03,1.12,1.16,1.12,1.15,-1.16,-1.17,-0.96,-0.04,-0.04,-0.03
161.63,1.12,1.19,1.13,1.19,-1.19,-1.20,-0.98,-0.07,-0.07,-0.06
163.24,1.13,1.24,1.13,1.23,-1.23,-1.22,-0.99,-0.09,-0.09,-0.10
164.88,1.14,1.27,1.14,1.27,-1.26,-1.25,-1.01,-0.12,-0.12,-0.12
166.53,1.14,1.31,1.14,1.30,-1.29,-1.27,-1.03,-0.15,-0.15,-0.16
168.19,1.13,1.32,1.13,1.32,-1.32,-1.29,-1.05,-0.19,-0.19,-0.19
169.87,1.11,1.34,1.12,1.35,-1.35,-1.32,-1.07,-0.23,-0.23,-0.23
171.57,1.09,1.36,1.10,1.37,-1.37,-1.34,-1.09,-0.27,-0.27,-0.27
173.29,1.08,1.40,1.07,1.38,-1.39,-1.37,-1.11,-0.30,-0.31,-0.31
175.02,1.04,1.39,1.05,1.40,-1.40,-1.39,-1.13,-0.36,-0.35,-0.35
176.77,1.01,1.41,1.02,1.42,-1.42,-1.42,-1.15,-0.40,-0.40,-0.40
178.54,0.98,1.44,0.98,1.43,-1.43,-1.44,-1.18,-0.45,-0.45,-0.45
180.32,0.95,1.45,0.95,1.45,-1.44,-1.47,-1.20,-0.49,-0.49,-0.50
182.13,0.92,1.47,0.92,1.46,-1.46,-1.50,-1.23,-0.53,-0.54,-0.54
183.95,0.87,1.47,0.88,1.47,-1.47,-1.52,-1.26,-0.60,-0.59,-0.60
185.79,0.84,1.48,0.85,1.49,-1.49,-1.55,-1.29,-0.65,-0.64,-0.64
187.65,0.82,1.52,0.82,1.51,-1.51,-1.57,-1.32,-0.69,-0.70,-0.69
189.52,0.79,1.53,0.80,1.53,-1.54,-1.60,-1.35,-0.75,-0.74,-0.74
191.42,0.78,1.56,0.78,1.56,-1.57,-1.62,-1.38,-0.79,-0.79,-0.78
193.33,0.77,1.60,0.77,1.60,-1.61,-1.65,-1.41,-0.84,-0.84,-0.82
195.27,0.77,1.64,0.78,1.65,-1.65,-1.67,-1.44,-0.88,-0.87,-0.86
197.22,0.78,1.70,0.78,1.70,-1.69,-1.70,-1.47,-0.91,-0.91,-0.92
199.19,0.79,1.76,0.79,1.75,-1.74,-1.72,-1.50,-0.94,-0.95,-0.97
201.18,0.79,1.80,0.79,1.80,-1.79,-1.75,-1.54,-0.99,-0.99,-1.01
203.19,0.79,1.83,0.79,1.83,-1.83,-1.77,-1.57,-1.04,-1.04,-1.04
205.23,0.79,1.87,0.79,1.87,-1.88,-1.80,-1.61,-1.09,-1.09,-1.08
207.28,0.79,1.90,0.80,1.91,-1.93,-1.82,-1.64,-1.13,-1.13,-1.11
209.35,0.80,1.96,0.80,1.96,-1.97,-1.84,-1.67,-1.17,-1.17,-1.16
211.44,0.81,2.02,0.81,2.01,-2.01,-1.87,-1.71,-1.20,-1.20,-1.21
213.56,0.81,2.05,0.82,2.05,-2.05,-1.89,-1.74,-1.23,-1.23,-1.24
215.69,0.81,2.08,0.82,2.09,-2.08,-1.91,-1.77,-1.27,-1.27,-1.26
217.85,0.81,2.12,0.81,2.11,-2.11,-1.93,-1.80,-1.30,-1.30,-1.30
220.03,0.80,2.14,0.80,2.14,-2.13,-1.95,-1.84,-1.33,-1.33,-1.34
222.23,0.78,2.15,0.79,2.15,-2.14,-1.96,-1.86,-1.36,-1.35,-1.37
224.45,0.76,2.15,0.76,2.15,-2.14,-1.98,-1.89,-1.38,-1.38,-1.39
226.70,0.72,2.13,0.72,2.13,-2.13,-1.99,-1.92,-1.41,-1.41,-1.40
228.96,0.68,2.11,0.69,2.12,-2.12,-2.00,-1.94,-1.44,-1.43,-1.43
231.25,0.66,2.10,0.66,2.10,-2.10,-2.01,-1.97,-1.44,-1.44,-1.44
233.57,0.63,2.09,0.63,2.08,-2.08,-2.02,-1.99,-1.44,-1.45,-1.45
235.90,0.58,2.04,0.59,2.06,-2.05,-2.03,-2.00,-1.47,-1.46,-1.46
238.26,0.56,2.04,0.56,2.03,-2.03,-2.03,-2.02,-1.47,-1.47,-1.48
240.64,0.53,2.01,0.53,2.00,-2.01,-2.03,-2.03,-1.47,-1.48,-1.47
243.05,0.50,1.97,0.51,1.98,-1.99,-2.03,-2.04,-1.48,-1.48,-1.47
245.48,0.48,1.96,0.49,1.96,-1.97,-2.03,-2.05,-1.49,-1.48,-1.47
247.93,0.47,1.94,0.48,1.95,-1.95,-2.03,-2.05,-1.48,-1.48,-1.47
250.41,0.47,1.95,0.47,1.94,-1.94,-2.02,-2.05,-1.46,-1.46,-1.47
252.92,0.47,1.92,0.47,1.92,-1.92,-2.01,-2.05,-1.45,-1.45,-1.45
255.45,0.47,1.91,0.47,1.91,-1.90,-2.00,-2.04,-1.43,-1.43,-1.43
258.00,0.46,1.89,0.46,1.89,-1.88,-1.99,-2.04,-1.42,-1.42,-1.43
260.58,0.44,1.87,0.45,1.87,-1.86,-1.97,-2.02,-1.41,-1.41,-1.42
263.19,0.43,1.84,0.43,1.84,-1.82,-1.95,-2.01,-1.39,-1.40,-1.41
265.82,0.39,1.79,0.40,1.79,-1.79,-1.93,-1.99,-1.39,-1.39,-1.40
268.48,0.37,1.75,0.37,1.75,-1.74,-1.91,-1.97,-1.37,-1.38,-1.37
271.16,0.33,1.69,0.33,1.69,-1.70,-1.89,-1.95,-1.37,-1.37,-1.36
273.87,0.29,1.64,0.30,1.65,-1.65,-1.86,-1.93,-1.36,-1.35,-1.35
276.61,0.26,1.60,0.26,1.60,-1.60,-1.84,-1.90,-1.34,-1.34,-1.33
279.38,0.23,1.56,0.23,1.56,-1.56,-1.81,-1.88,-1.32,-1.32,-1.33
282.17,0.20,1.51,0.20,1.52,-1.51,-1.78,-1.85,-1.31,-1.31,-1.31
284.99,0.18,1.48,0.18,1.47,-1.47,-1.76,-1.82,-1.29,-1.30,-1.29
287.84,0.14,1.43,0.15,1.44,-1.44,-1.73,-1.78,-1.30,-1.29,-1.29
290.72,0.13,1.40,0.13,1.40,-1.42,-1.70,-1.75,-1.28,-1.29,-1.27
293.63,0.12,1.39,0.12,1.38,-1.40,-1.67,-1.72,-1.27,-1.27,-1.26
296.57,0.12,1.37,0.13,1.38,-1.38,-1.63,-1.68,-1.26,-1.25,-1.25
299.53,0.13,1.37,0.13,1.37,-1.37,-1.60,-1.65,-1.23,-1.23,-1.24
302.53,0.14,1.37,0.14,1.37,-1.36,-1.57,-1.61,-1.21,-1.22,-1.23
305.55,0.14,1.36,0.14,1.36,-1.35,-1.54,-1.58,-1.20,-1.20,-1.21
308.61,0.14,1.35,0.14,1.35,-1.34,-1.51,-1.54,-1.20,-1.20,-1.21
311.69,0.14,1.33,0.14,1.33,-1.33,-1.48,-1.51,-1.19,-1.19,-1.19
314.81,0.14,1.31,0.14,1.32,-1.32,-1.45,-1.47,-1.18,-1.18,-1.17
317.96,0.14,1.31,0.14,1.31,-1.31,-1.42,-1.44,-1.17,-1.17,-1.16
321.14,0.14,1.30,0.14,1.30,-1.30,-1.39,-1.40,-1.16,-1.16,-1.15
324.35,0.14,1.29,0.14,1.29,-1.29,-1.36,-1.37,-1.15,-1.15,-1.15
327.59,0.14,1.28,0.14,1.28,-1.28,-1.33,-1.33,-1.14,-1.14,-1.14
330.87,0.14,1.27,0.14,1.28,-1.27,-1.30,-1.30,-1.13,-1.13,-1.13
334.18,0.14,1.27,0.14,1.27,-1.27,-1.28,-1.27,-1.12,-1.12,-1.12
337.52,0.14,1.27,0.14,1.26,-1.26,-1.25,-1.24,-1.12,-1.12,-1.12
340.90,0.14,1.25,0.14,1.25,-1.25,-1.22,-1.21,-1.11,-1.11,-1.11
344.30,0.14,1.25,0.14,1.25,-1.25,-1.20,-1.18,-1.10,-1.10,-1.11
347.75,0.14,1.24,0.14,1.24,-1.24,-1.17,-1.15,-1.10,-1.10,-1.10
351.23,0.14,1.24,0.14,1.24,-1.24,-1.15,-1.12,-1.10,-1.10,-1.10
354.74,0.14,1.24,0.14,1.24,-1.24,-1.12,-1.09,-1.10,-1.10,-1.10
358.28,0.14,1.24,0.14,1.24,-1.24,-1.10,-1.07,-1.10,-1.10,-1.09
361.87,0.14,1.24,0.15,1.24,-1.25,-1.08,-1.04,-1.10,-1.10,-1.09
365.49,0.15,1.25,0.15,1.25,-1.25,-1.05,-1.02,-1.10,-1.10,-1.09
369.14,0.15,1.26,0.16,1.26,-1.26,-1.03,-0.99,-1.10,-1.10,-1.11
372.83,0.16,1.27,0.16,1.27,-1.26,-1.01,-0.97,-1.10,-1.10,-1.11
376.56,0.16,1.27,0.16,1.27,-1.27,-0.99,-0.95,-1.10,-1.10,-1.11
380.33,0.16,1.26,0.16,1.27,-1.27,-0.97,-0.93,-1.10,-1.11,-1.10
384.13,0.15,1.26,0.16,1.27,-1.26,-0.95,-0.91,-1.11,-1.11,-1.11
387.97,0.14,1.26,0.15,1.26,-1.25,-0.94,-0.89,-1.11,-1.11,-1.11
391.85,0.13,1.26,0.13,1.25,-1.24,-0.92,-0.87,-1.11,-1.11,-1.12
395.77,0.10,1.22,0.10,1.22,-1.22,-0.90,-0.85,-1.11,-1.11,-1.11
399.73,0.07,1.20,0.08,1.20,-1.19,-0.88,-0.84,-1.12,-1.12,-1.12
403.72,0.04,1.17,0.04,1.17,-1.16,-0.87,-0.82,-1.12,-1.12,-1.13
407.76,0.01,1.14,0.01,1.13,-1.13,-0.85,-0.80,-1.12,-1.12,-1.13
411.84,-0.03,1.09,-0.02,1.10,-1.10,-0.84,-0.79,-1.13,-1.12,-1.12
415.96,-0.06,1.06,-0.06,1.06,-1.07,-0.82,-0.77,-1.12,-1.12,-1.12
420.12,-0.09,1.03,-0.09,1.03,-1.03,-0.81,-0.76,-1.12,-1.12,-1.12
424.32,-0.12,1.00,-0.12,1.01,-1.01,-0.80,-0.75,-1.12,-1.12,-1.12
428.56,-0.15,0.98,-0.14,0.98,-0.98,-0.78,-0.74,-1.13,-1.13,-1.13
432.85,-0.17,0.96,-0.17,0.96,-0.96,-0.77,-0.73,-1.13,-1.13,-1.13
437.18,-0.19,0.94,-0.18,0.94,-0.95,-0.76,-0.72,-1.13,-1.13,-1.13
441.55,-0.20,0.93,-0.19,0.93,-0.94,-0.75,-0.71,-1.14,-1.14,-1.12
445.96,-0.20,0.93,-0.20,0.93,-0.94,-0.74,-0.70,-1.13,-1.13,-1.12
450.42,-0.20,0.94,-0.19,0.93,-0.93,-0.73,-0.69,-1.13,-1.13,-1.13
454.93,-0.19,0.94,-0.19,0.94,-0.93,-0.72,-0.68,-1.12,-1.12,-1.12
459.48,-0.18,0.95,-0.18,0.94,-0.94,-0.71,-0.67,-1.11,-1.12,-1.12
464.07,-0.18,0.95,-0.18,0.95,-0.94,-0.70,-0.67,-1.12,-1.11,-1.12
468.71,-0.18,0.94,-0.18,0.95,-0.94,-0.69,-0.66,-1.12,-1.12,-1.12
473.40,-0.18,0.95,-0.18,0.94,-0.94,-0.68,-0.66,-1.12,-1.12,-1.13
478.13,-0.18,0.94,-0.18,0.94,-0.94,-0.68,-0.65,-1.12,-1.12,-1.12
482.91,-0.18,0.94,-0.18,0.94,-0.94,-0.67,-0.65,-1.12,-1.12,-1.12
487.74,-0.18,0.94,-0.18,0.94,-0.95,-0.66,-0.65,-1.12,-1.12,-1.12
492.62,-0.18,0.93,-0.17,0.94,-0.95,-0.66,-0.65,-1.13,-1.12,-1.11
497.55,-0.17,0.95,-0.17,0.95,-0.95,-0.65,-0.64,-1.12,-1.12,-1.12
502.52,-0.16,0.95,-0.16,0.96,-0.95,-0.64,-0.64,-1.11,-1.11,-1.11
507.55,-0.16,0.96,-0.15,0.96,-0.95,-0.64,-0.64,-1.11,-1.11,-1.12
