frequency,raw,error,smoothed,error_smoothed,equalization,parametric_eq,fixed_band_eq,equalized_raw,equalized_smoothed,target
20.00,2.88,1.77,2.88,1.77,-1.77,-1.88,-1.21,1.11,1.11,1.11
20.20,2.92,1.84,2.93,1.84,-1.84,-1.91,-1.24,1.08,1.08,1.08
20.40,2.97,1.91,2.97,1.91,-1.91,-1.94,-1.28,1.06,1.06,1.06
20.61,3.01,1.97,3.01,1.98,-1.98,-1.97,-1.32,1.04,1.04,1.04
20.81,3.05,2.03,3.05,2.04,-2.04,-2.00,-1.36,1.02,1.02,1.02
21.02,3.09,2.09,3.09,2.09,-2.09,-2.02,-1.40,1.00,1.00,1.00
21.23,3.12,2.14,3.12,2.15,-2.15,-2.05,-1.45,0.98,0.98,0.98
21.44,3.15,2.19,3.15,2.20,-2.20,-2.08,-1.49,0.96,0.96,0.96
21.66,3.18,2.24,3.18,2.24,-2.24,-2.11,-1.54,0.94,0.94,0.94
21.87,3.21,2.28,3.21,2.29,-2.28,-2.14,-1.58,0.93,0.92,0.93
22.09,3.23,2.32,3.23,2.32,-2.32,-2.17,-1.63,0.91,0.91,0.91
22.31,3.25,2.35,3.25,2.36,-2.36,-2.19,-1.68,0.89,0.90,0.90
22.54,3.27,2.38,3.27,2.39,-2.39,-2.22,-1.73,0.89,0.89,0.89
22.76,3.29,2.41,3.29,2.41,-2.41,-2.25,-1.79,0.88,0.88,0.88
22.99,3.30,2.43,3.30,2.43,-2.43,-2.28,-1.84,0.88,0.87,0.87
23.22,3.30,2.44,3.30,2.45,-2.44,-2.31,-1.90,0.86,0.87,0.86
23.45,3.30,2.45,3.30,2.45,-2.44,-2.33,-1.95,0.86,0.86,0.85
23.69,3.29,2.45,3.29,2.45,-2.45,-2.36,-2.01,0.85,0.85,0.84
23.92,3.28,2.44,3.28,2.45,-2.45,-2.39,-2.07,0.84,0.84,0.84
24.16,3.27,2.44,3.27,2.44,-2.45,-2.41,-2.13,0.83,0.82,0.83
24.40,3.26,2.43,3.26,2.44,-2.45,-2.44,-2.19,0.81,0.82,0.83
24.65,3.26,2.44,3.26,2.44,-2.45,-2.46,-2.25,0.81,0.81,0.82
24.89,3.27,2.45,3.27,2.46,-2.46,-2.49,-2.31,0.81,0.81,0.82
25.14,3.28,2.47,3.28,2.47,-2.48,-2.51,-2.38,0.81,0.80,0.81
25.39,3.29,2.49,3.29,2.49,-2.50,-2.54,-2.44,0.80,0.80,0.80
25.65,3.31,2.51,3.31,2.52,-2.52,-2.56,-2.50,0.79,0.79,0.80
25.91,3.34,2.55,3.34,2.55,-2.55,-2.59,-2.57,0.79,0.79,0.79
26.16,3.37,2.58,3.37,2.58,-2.58,-2.61,-2.63,0.79,0.79,0.79
26.43,3.40,2.61,3.40,2.62,-2.62,-2.63,-2.70,0.79,0.79,0.79
26.69,3.43,2.65,3.43,2.65,-2.65,-2.65,-2.76,0.78,0.78,0.78
26.96,3.46,2.68,3.46,2.69,-2.69,-2.67,-2.82,0.78,0.78,0.78
27.23,3.49,2.72,3.49,2.72,-2.72,-2.70,-2.88,0.77,0.77,0.77
27.50,3.52,2.75,3.52,2.75,-2.75,-2.72,-2.94,0.77,0.77,0.77
27.77,3.55,2.78,3.55,2.79,-2.78,-2.74,-3.00,0.77,0.76,0.77
28.05,3.57,2.81,3.57,2.81,-2.81,-2.75,-3.06,0.76,0.76,0.76
28.33,3.59,2.83,3.59,2.84,-2.83,-2.77,-3.11,0.76,0.76,0.76
28.62,3.61,2.85,3.61,2.86,-2.85,-2.79,-3.16,0.76,0.76,0.76
28.90,3.62,2.87,3.62,2.87,-2.86,-2.81,-3.21,0.76,0.76,0.75
29.19,3.63,2.88,3.63,2.88,-2.87,-2.82,-3.25,0.76,0.76,0.75
29.48,3.63,2.88,3.63,2.88,-2.88,-2.84,-3.29,0.76,0.75,0.75
29.78,3.62,2.87,3.62,2.88,-2.88,-2.86,-3.33,0.74,0.74,0.75
30.08,3.61,2.86,3.62,2.87,-2.88,-2.87,-3.37,0.73,0.74,0.75
30.38,3.61,2.87,3.61,2.87,-2.88,-2.88,-3.39,0.73,0.73,0.74
30.68,3.61,2.87,3.61,2.87,-2.88,-2.90,-3.42,0.74,0.74,0.74
30.99,3.61,2.87,3.61,2.88,-2.88,-2.91,-3.44,0.74,0.74,0.74
31.30,3.61,2.87,3.61,2.88,-2.88,-2.92,-3.46,0.74,0.74,0.74
31.61,3.61,2.88,3.61,2.88,-2.88,-2.93,-3.47,0.73,0.73,0.73
31.93,3.61,2.88,3.61,2.88,-2.88,-2.95,-3.47,0.73,0.73,0.73
32.24,3.61,2.88,3.61,2.89,-2.89,-2.96,-3.48,0.73,0.73,0.73
32.57,3.61,2.89,3.61,2.89,-2.89,-2.97,-3.48,0.72,0.72,0.72
32.89,3.61,2.89,3.61,2.89,-2.89,-2.97,-3.47,0.72,0.72,0.72
33.22,3.61,2.89,3.61,2.90,-2.90,-2.98,-3.46,0.71,0.71,0.72
33.55,3.61,2.90,3.61,2.90,-2.90,-2.99,-3.45,0.71,0.71,0.71
33.89,3.61,2.90,3.61,2.90,-2.90,-3.00,-3.43,0.71,0.71,0.71
34.23,3.61,2.90,3.61,2.91,-2.91,-3.01,-3.41,0.70,0.70,0.71
34.57,3.61,2.91,3.61,2.91,-2.91,-3.01,-3.39,0.70,0.70,0.70
34.92,3.61,2.91,3.61,2.91,-2.91,-3.02,-3.36,0.70,0.70,0.70
35.27,3.61,2.91,3.61,2.92,-2.92,-3.02,-3.33,0.70,0.70,0.70
35.62,3.61,2.92,3.61,2.92,-2.92,-3.03,-3.31,0.69,0.69,0.69
35.97,3.61,2.92,3.61,2.92,-2.92,-3.03,-3.28,0.69,0.69,0.69
36.33,3.61,2.92,3.61,2.92,-2.92,-3.04,-3.24,0.69,0.69,0.69
36.70,3.61,2.92,3.61,2.92,-2.93,-3.04,-3.21,0.69,0.69,0.69
37.06,3.61,2.92,3.61,2.93,-2.93,-3.04,-3.18,0.68,0.68,0.69
37.43,3.61,2.93,3.61,2.93,-2.93,-3.05,-3.15,0.68,0.68,0.68
37.81,3.61,2.93,3.61,2.93,-2.93,-3.05,-3.11,0.68,0.68,0.68
38.19,3.61,2.93,3.61,2.94,-2.94,-3.05,-3.08,0.67,0.67,0.68
38.57,3.61,2.94,3.61,2.94,-2.94,-3.05,-3.05,0.67,0.67,0.67
38.95,3.61,2.94,3.61,2.95,-2.95,-3.05,-3.02,0.66,0.66,0.67
39.34,3.61,2.95,3.61,2.95,-2.95,-3.06,-2.99,0.66,0.66,0.66
39.74,3.61,2.95,3.61,2.96,-2.96,-3.06,-2.96,0.66,0.66,0.66
40.14,3.61,2.96,3.61,2.96,-2.96,-3.06,-2.93,0.65,0.65,0.65
40.54,3.61,2.96,3.61,2.96,-2.96,-3.06,-2.90,0.65,0.65,0.65
40.94,3.61,2.96,3.61,2.97,-2.96,-3.06,-2.88,0.65,0.65,0.65
41.35,3.61,2.96,3.61,2.96,-2.96,-3.06,-2.86,0.65,0.65,0.65
41.76,3.61,2.96,3.61,2.97,-2.96,-3.06,-2.83,0.65,0.65,0.65
42.18,3.61,2.96,3.61,2.96,-2.96,-3.06,-2.82,0.65,0.65,0.65
42.60,3.61,2.96,3.61,2.96,-2.96,-3.06,-2.80,0.65,0.65,0.65
43.03,3.61,2.95,3.61,2.96,-2.96,-3.05,-2.78,0.65,0.65,0.66
43.46,3.61,2.95,3.61,2.95,-2.96,-3.05,-2.77,0.66,0.66,0.66
43.90,3.61,2.95,3.61,2.95,-2.96,-3.05,-2.76,0.66,0.66,0.66
44.33,3.61,2.95,3.61,2.95,-2.95,-3.05,-2.75,0.66,0.66,0.66
44.78,3.61,2.95,3.61,2.95,-2.95,-3.05,-2.74,0.66,0.66,0.66
45.23,3.61,2.95,3.61,2.95,-2.95,-3.05,-2.74,0.66,0.66,0.66
45.68,3.61,2.95,3.61,2.95,-2.95,-3.04,-2.74,0.66,0.66,0.66
46.13,3.61,2.95,3.61,2.95,-2.96,-3.04,-2.74,0.66,0.66,0.66
46.60,3.61,2.95,3.61,2.95,-2.96,-3.04,-2.74,0.66,0.66,0.66
47.06,3.61,2.95,3.61,2.96,-2.96,-3.04,-2.74,0.65,0.65,0.66
47.53,3.61,2.96,3.61,2.96,-2.96,-3.03,-2.75,0.65,0.65,0.65
48.01,3.61,2.96,3.61,2.96,-2.96,-3.03,-2.75,0.65,0.65,0.65
48.49,3.61,2.96,3.61,2.97,-2.96,-3.03,-2.76,0.65,0.65,0.65
48.97,3.61,2.96,3.61,2.96,-2.96,-3.02,-2.78,0.65,0.65,0.65
49.46,3.61,2.96,3.61,2.96,-2.96,-3.02,-2.79,0.65,0.65,0.65
49.96,3.61,2.96,3.61,2.97,-2.96,-3.02,-2.80,0.65,0.65,0.65
50.46,3.61,2.96,3.61,2.96,-2.96,-3.01,-2.82,0.65,0.65,0.65
50.96,3.61,2.96,3.61,2.96,-2.96,-3.01,-2.83,0.65,0.65,0.65
51.47,3.61,2.95,3.61,2.96,-2.96,-3.00,-2.85,0.65,0.65,0.66
51.99,3.61,2.95,3.61,2.95,-2.96,-3.00,-2.87,0.66,0.66,0.66
52.51,3.61,2.95,3.61,2.95,-2.95,-2.99,-2.89,0.66,0.66,0.66
53.03,3.61,2.95,3.61,2.95,-2.95,-2.99,-2.91,0.66,0.66,0.66
53.56,3.61,2.95,3.61,2.95,-2.95,-2.98,-2.93,0.66,0.66,0.66
54.10,3.61,2.94,3.61,2.95,-2.95,-2.98,-2.95,0.66,0.66,0.67
54.64,3.61,2.94,3.61,2.95,-2.95,-2.97,-2.96,0.66,0.66,0.67
55.18,3.61,2.94,3.62,2.95,-2.95,-2.96,-2.98,0.66,0.66,0.67
55.74,3.62,2.95,3.62,2.95,-2.95,-2.96,-3.00,0.67,0.67,0.67
56.29,3.63,2.95,3.63,2.95,-2.95,-2.95,-3.02,0.68,0.68,0.68
56.86,3.63,2.95,3.63,2.95,-2.94,-2.94,-3.03,0.69,0.69,0.68
57.42,3.62,2.94,3.62,2.94,-2.93,-2.94,-3.05,0.69,0.69,0.68
58.00,3.61,2.92,3.61,2.93,-2.92,-2.93,-3.06,0.69,0.69,0.69
58.58,3.59,2.90,3.59,2.91,-2.90,-2.92,-3.07,0.69,0.69,0.69
59.16,3.57,2.88,3.57,2.88,-2.88,-2.91,-3.08,0.70,0.69,0.69
59.76,3.54,2.84,3.54,2.85,-2.85,-2.90,-3.08,0.69,0.69,0.70
60.35,3.51,2.81,3.51,2.82,-2.82,-2.89,-3.09,0.69,0.69,0.70
60.96,3.48,2.78,3.48,2.78,-2.79,-2.88,-3.09,0.70,0.70,0.70
61.57,3.45,2.75,3.45,2.75,-2.75,-2.88,-3.08,0.70,0.70,0.70
62.18,3.42,2.72,3.42,2.72,-2.72,-2.87,-3.08,0.70,0.70,0.70
62.80,3.39,2.69,3.39,2.69,-2.69,-2.85,-3.07,0.70,0.70,0.70
63.43,3.36,2.66,3.36,2.67,-2.67,-2.84,-3.06,0.70,0.70,0.70
64.07,3.34,2.64,3.34,2.64,-2.64,-2.83,-3.04,0.70,0.70,0.70
64.71,3.31,2.61,3.31,2.62,-2.62,-2.82,-3.02,0.70,0.70,0.70
65.35,3.29,2.59,3.30,2.60,-2.60,-2.81,-3.00,0.69,0.70,0.70
66.01,3.28,2.58,3.28,2.58,-2.58,-2.80,-2.98,0.70,0.69,0.70
66.67,3.27,2.57,3.27,2.57,-2.58,-2.79,-2.95,0.70,0.69,0.70
67.33,3.26,2.56,3.26,2.57,-2.57,-2.77,-2.93,0.69,0.69,0.70
68.01,3.26,2.56,3.26,2.57,-2.57,-2.76,-2.90,0.69,0.69,0.70
68.69,3.27,2.57,3.27,2.57,-2.58,-2.75,-2.86,0.69,0.69,0.70
69.37,3.28,2.58,3.28,2.59,-2.58,-2.73,-2.83,0.70,0.70,0.70
70.07,3.29,2.59,3.29,2.59,-2.59,-2.72,-2.79,0.70,0.70,0.70
70.77,3.30,2.60,3.30,2.60,-2.59,-2.70,-2.76,0.71,0.71,0.70
71.48,3.30,2.59,3.30,2.60,-2.59,-2.69,-2.72,0.71,0.71,0.71
72.19,3.30,2.59,3.30,2.59,-2.59,-2.67,-2.68,0.72,0.71,0.71
72.91,3.28,2.57,3.29,2.58,-2.57,-2.66,-2.64,0.71,0.71,0.71
73.64,3.27,2.56,3.27,2.56,-2.55,-2.64,-2.60,0.72,0.72,0.71
74.38,3.25,2.53,3.25,2.53,-2.53,-2.62,-2.56,0.72,0.72,0.72
75.12,3.22,2.50,3.22,2.50,-2.50,-2.61,-2.52,0.72,0.72,0.72
75.87,3.19,2.46,3.19,2.47,-2.47,-2.59,-2.48,0.72,0.72,0.73
76.63,3.16,2.43,3.16,2.43,-2.44,-2.57,-2.44,0.73,0.73,0.73
77.40,3.13,2.40,3.13,2.40,-2.40,-2.56,-2.40,0.73,0.73,0.73
78.17,3.10,2.36,3.10,2.37,-2.36,-2.54,-2.37,0.74,0.74,0.74
78.95,3.07,2.33,3.07,2.33,-2.33,-2.52,-2.33,0.74,0.74,0.74
79.74,3.04,2.30,3.04,2.30,-2.30,-2.50,-2.29,0.74,0.74,0.74
80.54,3.01,2.26,3.01,2.27,-2.27,-2.48,-2.26,0.74,0.74,0.75
81.35,2.99,2.24,2.99,2.24,-2.25,-2.46,-2.23,0.74,0.74,0.75
82.16,2.97,2.22,2.97,2.23,-2.23,-2.44,-2.19,0.74,0.74,0.75
82.98,2.96,2.21,2.96,2.22,-2.22,-2.42,-2.16,0.74,0.74,0.75
83.81,2.96,2.21,2.96,2.21,-2.21,-2.40,-2.13,0.75,0.75,0.75
84.65,2.96,2.20,2.96,2.21,-2.21,-2.38,-2.11,0.75,0.75,0.76
85.50,2.96,2.20,2.96,2.21,-2.20,-2.36,-2.08,0.76,0.76,0.76
86.35,2.96,2.20,2.96,2.20,-2.20,-2.34,-2.06,0.76,0.76,0.76
87.22,2.96,2.20,2.96,2.20,-2.19,-2.32,-2.03,0.77,0.77,0.76
88.09,2.94,2.18,2.94,2.19,-2.18,-2.30,-2.01,0.76,0.77,0.76
88.97,2.92,2.16,2.92,2.17,-2.16,-2.28,-1.99,0.76,0.76,0.76
89.86,2.90,2.14,2.90,2.14,-2.14,-2.26,-1.97,0.76,0.76,0.76
90.76,2.87,2.11,2.87,2.11,-2.12,-2.24,-1.95,0.76,0.76,0.76
91.66,2.84,2.08,2.84,2.09,-2.09,-2.22,-1.94,0.76,0.76,0.76
92.58,2.81,2.05,2.81,2.05,-2.06,-2.19,-1.92,0.76,0.76,0.76
93.51,2.78,2.02,2.78,2.02,-2.02,-2.17,-1.91,0.76,0.76,0.76
94.44,2.75,1.99,2.75,2.00,-1.99,-2.15,-1.90,0.76,0.76,0.76
95.39,2.72,1.96,2.72,1.96,-1.96,-2.13,-1.89,0.76,0.76,0.76
96.34,2.69,1.93,2.69,1.93,-1.93,-2.11,-1.88,0.76,0.76,0.76
97.30,2.66,1.89,2.67,1.90,-1.90,-2.08,-1.88,0.76,0.76,0.77
98.28,2.64,1.87,2.64,1.88,-1.88,-2.06,-1.87,0.76,0.76,0.77
99.26,2.63,1.86,2.63,1.86,-1.87,-2.04,-1.86,0.77,0.76,0.77
100.25,2.61,1.84,2.62,1.85,-1.86,-2.02,-1.86,0.76,0.76,0.77
101.25,2.61,1.84,2.61,1.84,-1.85,-2.00,-1.86,0.76,0.76,0.77
102.27,2.61,1.84,2.61,1.85,-1.85,-1.98,-1.85,0.77,0.77,0.77
103.29,2.62,1.85,2.62,1.85,-1.85,-1.96,-1.85,0.78,0.78,0.77
104.32,2.63,1.85,2.63,1.85,-1.85,-1.94,-1.85,0.79,0.78,0.78
105.37,2.63,1.85,2.63,1.85,-1.85,-1.92,-1.85,0.78,0.78,0.78
106.42,2.63,1.85,2.63,1.85,-1.85,-1.90,-1.85,0.78,0.78,0.78
107.48,2.63,1.84,2.63,1.85,-1.85,-1.88,-1.85,0.78,0.78,0.79
108.56,2.63,1.84,2.63,1.84,-1.85,-1.87,-1.85,0.79,0.79,0.79
109.64,2.63,1.84,2.63,1.84,-1.84,-1.85,-1.85,0.79,0.79,0.79
110.74,2.63,1.84,2.63,1.84,-1.84,-1.83,-1.85,0.79,0.79,0.79
111.85,2.63,1.84,2.63,1.84,-1.84,-1.82,-1.85,0.79,0.79,0.79
112.97,2.63,1.83,2.63,1.84,-1.84,-1.81,-1.85,0.79,0.79,0.80
114.10,2.63,1.83,2.63,1.84,-1.84,-1.80,-1.84,0.79,0.79,0.80
115.24,2.64,1.84,2.64,1.84,-1.84,-1.80,-1.84,0.80,0.80,0.80
116.39,2.64,1.84,2.65,1.84,-1.85,-1.79,-1.83,0.80,0.80,0.80
117.55,2.65,1.84,2.65,1.85,-1.84,-1.79,-1.83,0.81,0.81,0.81
118.73,2.65,1.84,2.65,1.85,-1.84,-1.80,-1.82,0.81,0.81,0.81
119.92,2.65,1.84,2.65,1.84,-1.84,-1.80,-1.81,0.81,0.81,0.81
121.12,2.65,1.84,2.65,1.84,-1.83,-1.80,-1.80,0.82,0.81,0.81
122.33,2.63,1.81,2.64,1.82,-1.82,-1.81,-1.79,0.81,0.82,0.82
123.55,2.62,1.80,2.62,1.80,-1.81,-1.81,-1.77,0.82,0.82,0.82
124.79,2.61,1.78,2.61,1.78,-1.79,-1.80,-1.76,0.83,0.82,0.83
126.03,2.59,1.76,2.59,1.76,-1.76,-1.78,-1.74,0.83,0.83,0.83
127.29,2.57,1.73,2.57,1.73,-1.73,-1.75,-1.72,0.84,0.84,0.84
128.57,2.53,1.69,2.53,1.70,-1.69,-1.70,-1.70,0.84,0.84,0.84
129.85,2.49,1.65,2.50,1.66,-1.65,-1.66,-1.67,0.84,0.85,0.84
131.15,2.45,1.61,2.45,1.61,-1.60,-1.60,-1.65,0.85,0.85,0.84
132.46,2.40,1.55,2.40,1.55,-1.55,-1.55,-1.62,0.85,0.85,0.85
133.79,2.34,1.49,2.35,1.50,-1.50,-1.49,-1.59,0.84,0.84,0.85
135.12,2.29,1.44,2.29,1.44,-1.45,-1.44,-1.56,0.84,0.84,0.85
136.48,2.24,1.39,2.24,1.39,-1.40,-1.39,-1.53,0.84,0.84,0.85
137.84,2.19,1.34,2.20,1.35,-1.35,-1.34,-1.49,0.84,0.84,0.85
139.22,2.15,1.30,2.16,1.31,-1.31,-1.29,-1.46,0.84,0.85,0.85
140.61,2.12,1.27,2.12,1.27,-1.27,-1.25,-1.42,0.86,0.85,0.85
142.02,2.08,1.22,2.08,1.23,-1.22,-1.21,-1.38,0.86,0.86,0.86
143.44,2.04,1.18,2.05,1.19,-1.19,-1.17,-1.35,0.86,0.86,0.86
144.87,2.01,1.15,2.01,1.15,-1.15,-1.14,-1.31,0.87,0.86,0.86
146.32,1.97,1.10,1.98,1.11,-1.11,-1.10,-1.27,0.87,0.87,0.87
147.78,1.94,1.07,1.94,1.07,-1.07,-1.07,-1.23,0.88,0.87,0.87
149.26,1.90,1.03,1.90,1.03,-1.03,-1.04,-1.19,0.87,0.87,0.87
150.75,1.86,0.98,1.87,0.99,-0.99,-1.01,-1.15,0.87,0.87,0.88
152.26,1.83,0.95,1.83,0.95,-0.96,-0.98,-1.11,0.87,0.87,0.88
153.78,1.80,0.92,1.80,0.92,-0.93,-0.95,-1.06,0.87,0.88,0.88
155.32,1.78,0.89,1.78,0.90,-0.90,-0.92,-1.02,0.88,0.88,0.89
156.88,1.76,0.87,1.76,0.87,-0.87,-0.89,-0.98,0.89,0.89,0.89
158.44,1.74,0.85,1.74,0.85,-0.85,-0.86,-0.94,0.89,0.89,0.89
160.03,1.72,0.83,1.72,0.83,-0.83,-0.83,-0.90,0.89,0.89,0.89
161.63,1.70,0.81,1.70,0.81,-0.81,-0.80,-0.86,0.90,0.90,0.89
163.24,1.68,0.78,1.68,0.79,-0.79,-0.77,-0.82,0.90,0.90,0.90
164.88,1.66,0.76,1.66,0.76,-0.77,-0.74,-0.78,0.90,0.89,0.90
166.53,1.64,0.74,1.64,0.74,-0.75,-0.72,-0.74,0.89,0.89,0.90
168.19,1.62,0.72,1.62,0.72,-0.73,-0.69,-0.70,0.89,0.90,0.90
169.87,1.61,0.70,1.61,0.70,-0.71,-0.66,-0.66,0.90,0.90,0.91
171.57,1.59,0.68,1.60,0.69,-0.69,-0.63,-0.63,0.90,0.91,0.91
173.29,1.58,0.67,1.58,0.67,-0.67,-0.61,-0.59,0.92,0.91,0.91
175.02,1.56,0.65,1.56,0.65,-0.64,-0.58,-0.55,0.92,0.92,0.91
176.77,1.53,0.61,1.53,0.62,-0.61,-0.55,-0.51,0.92,0.92,0.92
178.54,1.50,0.58,1.50,0.58,-0.58,-0.52,-0.48,0.92,0.92,0.92
180.32,1.46,0.54,1.46,0.54,-0.54,-0.49,-0.44,0.92,0.92,0.92
182.13,1.42,0.50,1.42,0.50,-0.50,-0.46,-0.40,0.92,0.92,0.92
183.95,1.37,0.45,1.37,0.45,-0.46,-0.43,-0.37,0.92,0.92,0.92
185.79,1.32,0.40,1.33,0.41,-0.41,-0.40,-0.33,0.91,0.91,0.92
187.65,1.28,0.36,1.28,0.36,-0.37,-0.37,-0.30,0.91,0.91,0.92
189.52,1.24,0.32,1.24,0.33,-0.33,-0.34,-0.26,0.91,0.91,0.92
191.42,1.21,0.29,1.21,0.29,-0.30,-0.31,-0.23,0.92,0.91,0.92
193.33,1.17,0.25,1.18,0.26,-0.26,-0.28,-0.20,0.91,0.92,0.92
195.27,1.14,0.22,1.14,0.23,-0.22,-0.25,-0.16,0.92,0.92,0.92
197.22,1.11,0.19,1.11,0.19,-0.18,-0.21,-0.13,0.93,0.93,0.92
199.19,1.07,0.15,1.07,0.15,-0.14,-0.18,-0.10,0.93,0.93,0.92
201.18,1.03,0.10,1.03,0.10,-0.10,-0.14,-0.06,0.93,0.93,0.93
203.19,0.98,0.05,0.99,0.06,-0.06,-0.10,-0.03,0.92,0.93,0.93
205.23,0.94,0.00,0.95,0.01,-0.02,-0.06,-0.00,0.92,0.93,0.94
207.28,0.91,-0.03,0.91,-0.03,0.02,-0.02,0.03,0.93,0.93,0.94
209.35,0.87,-0.07,0.88,-0.07,0.06,0.02,0.06,0.93,0.94,0.94
211.44,0.84,-0.11,0.84,-0.10,0.10,0.06,0.09,0.94,0.95,0.95
213.56,0.81,-0.14,0.81,-0.14,0.14,0.11,0.12,0.96,0.95,0.95
215.69,0.77,-0.18,0.77,-0.18,0.18,0.16,0.15,0.96,0.96,0.95
217.85,0.73,-0.22,0.73,-0.22,0.23,0.20,0.18,0.96,0.96,0.95
220.03,0.69,-0.27,0.69,-0.27,0.27,0.25,0.21,0.96,0.96,0.96
222.23,0.64,-0.32,0.64,-0.31,0.32,0.30,0.24,0.96,0.96,0.96
224.45,0.59,-0.37,0.60,-0.36,0.36,0.36,0.27,0.95,0.95,0.96
226.70,0.55,-0.41,0.55,-0.41,0.40,0.40,0.30,0.95,0.95,0.96
228.96,0.51,-0.46,0.51,-0.45,0.44,0.45,0.32,0.95,0.95,0.97
231.25,0.48,-0.49,0.48,-0.48,0.48,0.49,0.35,0.96,0.96,0.97
233.57,0.46,-0.51,0.46,-0.51,0.51,0.53,0.38,0.97,0.97,0.97
235.90,0.44,-0.54,0.44,-0.53,0.54,0.57,0.40,0.99,0.99,0.98
238.26,0.42,-0.56,0.42,-0.56,0.57,0.59,0.43,1.00,0.99,0.98
240.64,0.39,-0.60,0.39,-0.59,0.60,0.61,0.45,0.99,0.99,0.99
243.05,0.37,-0.63,0.37,-0.63,0.62,0.63,0.48,0.99,0.99,1.00
245.48,0.35,-0.66,0.35,-0.65,0.64,0.63,0.50,0.99,1.00,1.01
247.93,0.34,-0.67,0.34,-0.67,0.66,0.64,0.52,1.00,1.00,1.01
250.41,0.34,-0.68,0.34,-0.68,0.67,0.64,0.54,1.01,1.01,1.02
252.92,0.34,-0.69,0.35,-0.68,0.68,0.64,0.57,1.02,1.03,1.03
255.45,0.35,-0.69,0.35,-0.68,0.69,0.64,0.59,1.04,1.04,1.04
258.00,0.36,-0.68,0.36,-0.68,0.69,0.64,0.61,1.05,1.05,1.04
260.58,0.36,-0.69,0.36,-0.68,0.69,0.64,0.63,1.05,1.05,1.05
263.19,0.36,-0.69,0.36,-0.68,0.69,0.65,0.65,1.05,1.05,1.05
265.82,0.36,-0.69,0.36,-0.69,0.69,0.65,0.67,1.05,1.05,1.05
268.48,0.36,-0.70,0.36,-0.69,0.69,0.66,0.69,1.05,1.05,1.06
271.16,0.36,-0.70,0.36,-0.69,0.69,0.67,0.71,1.05,1.05,1.06
273.87,0.37,-0.69,0.37,-0.69,0.69,0.68,0.73,1.06,1.06,1.06
276.61,0.37,-0.70,0.38,-0.69,0.69,0.69,0.75,1.06,1.06,1.07
279.38,0.38,-0.69,0.38,-0.69,0.69,0.70,0.77,1.07,1.07,1.07
282.17,0.38,-0.70,0.38,-0.69,0.69,0.72,0.79,1.08,1.08,1.08
284.99,0.38,-0.70,0.38,-0.70,0.70,0.73,0.80,1.08,1.08,1.08
287.84,0.37,-0.71,0.37,-0.71,0.71,0.75,0.82,1.08,1.08,1.08
290.72,0.36,-0.72,0.36,-0.72,0.72,0.77,0.84,1.09,1.09,1.08
293.63,0.34,-0.74,0.34,-0.74,0.74,0.79,0.86,1.08,1.09,1.08
296.57,0.32,-0.76,0.32,-0.76,0.76,0.82,0.88,1.09,1.08,1.08
299.53,0.29,-0.80,0.29,-0.79,0.79,0.84,0.91,1.08,1.08,1.09
302.53,0.26,-0.83,0.26,-0.83,0.82,0.86,0.93,1.08,1.08,1.09
305.55,0.23,-0.86,0.24,-0.86,0.85,0.89,0.95,1.08,1.08,1.09
308.61,0.21,-0.89,0.21,-0.88,0.88,0.92,0.97,1.09,1.09,1.10
311.69,0.19,-0.91,0.19,-0.91,0.92,0.94,1.00,1.11,1.10,1.10
314.81,0.16,-0.95,0.16,-0.94,0.95,0.97,1.02,1.11,1.11,1.11
317.96,0.13,-0.98,0.13,-0.98,0.99,1.00,1.04,1.12,1.12,1.11
321.14,0.09,-1.03,0.09,-1.02,1.03,1.03,1.07,1.12,1.12,1.12
324.35,0.05,-1.07,0.05,-1.06,1.06,1.06,1.10,1.12,1.12,1.12
327.59,0.01,-1.11,0.01,-1.11,1.10,1.09,1.12,1.11,1.11,1.12
330.87,-0.02,-1.15,-0.02,-1.15,1.14,1.12,1.15,1.12,1.12,1.13
334.18,-0.05,-1.19,-0.04,-1.18,1.17,1.15,1.18,1.12,1.13,1.14
337.52,-0.07,-1.21,-0.07,-1.21,1.20,1.18,1.21,1.14,1.14,1.14
340.90,-0.09,-1.24,-0.09,-1.24,1.24,1.21,1.25,1.15,1.15,1.15
344.30,-0.12,-1.27,-0.12,-1.26,1.27,1.25,1.28,1.15,1.16,1.15
347.75,-0.15,-1.30,-0.15,-1.30,1.31,1.28,1.31,1.16,1.16,1.15
351.23,-0.19,-1.34,-0.19,-1.34,1.35,1.31,1.35,1.16,1.16,1.15
354.74,-0.23,-1.39,-0.23,-1.39,1.39,1.35,1.38,1.16,1.16,1.16
358.28,-0.28,-1.44,-0.28,-1.43,1.44,1.38,1.42,1.16,1.16,1.16
361.87,-0.33,-1.49,-0.32,-1.48,1.48,1.42,1.46,1.15,1.16,1.16
365.49,-0.37,-1.53,-0.37,-1.53,1.53,1.45,1.50,1.16,1.15,1.16
369.14,-0.42,-1.58,-0.42,-1.58,1.57,1.49,1.54,1.15,1.15,1.16
372.83,-0.46,-1.62,-0.46,-1.62,1.61,1.53,1.58,1.15,1.15,1.16
376.56,-0.49,-1.66,-0.49,-1.65,1.64,1.56,1.62,1.15,1.15,1.17
380.33,-0.51,-1.68,-0.51,-1.67,1.67,1.60,1.67,1.16,1.16,1.17
384.13,-0.52,-1.69,-0.52,-1.69,1.69,1.64,1.71,1.18,1.17,1.17
387.97,-0.54,-1.71,-0.54,-1.71,1.72,1.67,1.75,1.18,1.18,1.17
391.85,-0.56,-1.74,-0.56,-1.73,1.74,1.71,1.80,1.18,1.19,1.18
395.77,-0.58,-1.76,-0.58,-1.76,1.77,1.75,1.85,1.19,1.18,1.18
399.73,-0.61,-1.80,-0.60,-1.79,1.79,1.78,1.89,1.18,1.18,1.19
403.72,-0.63,-1.82,-0.63,-1.82,1.81,1.82,1.94,1.18,1.19,1.19
407.76,-0.65,-1.85,-0.65,-1.84,1.84,1.86,1.99,1.19,1.19,1.20
411.84,-0.67,-1.87,-0.67,-1.87,1.87,1.89,2.04,1.20,1.20,1.20
415.96,-0.69,-1.90,-0.69,-1.89,1.90,1.93,2.08,1.21,1.21,1.21
420.12,-0.71,-1.92,-0.71,-1.92,1.93,1.97,2.13,1.22,1.21,1.21
424.32,-0.74,-1.95,-0.74,-1.95,1.95,2.00,2.18,1.22,1.22,1.21
428.56,-0.77,-1.99,-0.77,-1.98,1.98,2.04,2.22,1.22,1.22,1.22
432.85,-0.80,-2.02,-0.80,-2.02,2.01,2.07,2.27,1.22,1.22,1.22
437.18,-0.83,-2.05,-0.83,-2.05,2.04,2.11,2.31,1.22,1.22,1.22
441.55,-0.86,-2.08,-0.86,-2.07,2.07,2.14,2.36,1.22,1.22,1.22
445.96,-0.88,-2.10,-0.88,-2.10,2.10,2.18,2.40,1.22,1.22,1.22
450.42,-0.91,-2.13,-0.91,-2.12,2.12,2.21,2.44,1.21,1.22,1.22
454.93,-0.93,-2.15,-0.92,-2.14,2.14,2.24,2.47,1.21,1.22,1.22
459.48,-0.94,-2.16,-0.94,-2.16,2.15,2.27,2.51,1.22,1.21,1.22
464.07,-0.95,-2.17,-0.95,-2.17,2.16,2.30,2.54,1.22,1.21,1.22
468.71,-0.96,-2.18,-0.95,-2.17,2.17,2.33,2.57,1.21,1.22,1.22
473.40,-0.95,-2.17,-0.95,-2.17,2.17,2.36,2.59,1.22,1.22,1.22
478.13,-0.95,-2.18,-0.95,-2.17,2.17,2.38,2.61,1.22,1.23,1.23
482.91,-0.94,-2.17,-0.94,-2.17,2.17,2.41,2.63,1.23,1.23,1.23
487.74,-0.94,-2.17,-0.94,-2.17,2.16,2.43,2.65,1.23,1.23,1.23
492.62,-0.93,-2.16,-0.93,-2.16,2.16,2.46,2.66,1.23,1.23,1.23
497.55,-0.93,-2.17,-0.92,-2.16,2.15,2.48,2.67,1.23,1.23,1.24
502.52,-0.92,-2.16,-0.92,-2.15,2.15,2.50,2.67,1.23,1.23,1.24
507.55,-0.91,-2.15,-0.91,-2.15,2.15,2.51,2.67,1.24,1.24,1.24
512.62,-0.91,-2.15,-0.91,-2.15,2.15,2.53,2.66,1.25,1.25,1.24
517.75,-0.91,-2.16,-0.91,-2.15,2.16,2.55,2.65,1.25,1.25,1.25
522.93,-0.92,-2.17,-0.92,-2.17,2.17,2.56,2.64,1.25,1.25,1.25
528.16,-0.94,-2.19,-0.94,-2.18,2.19,2.57,2.63,1.25,1.25,1.25
533.44,-0.96,-2.21,-0.96,-2.21,2.21,2.58,2.61,1.25,1.25,1.25
538.77,-0.98,-2.24,-0.98,-2.24,2.23,2.59,2.59,1.26,1.25,1.26
544.16,-1.01,-2.27,-1.01,-2.26,2.26,2.59,2.56,1.25,1.26,1.26
