frequency,raw,error,smoothed,error_smoothed,equalization,parametric_eq,fixed_band_eq,equalized_raw,equalized_smoothed,target
20.00,17.54,9.39,17.54,9.39,-9.39,-8.85,-4.24,8.15,8.15,8.15
20.20,17.54,9.40,17.54,9.40,-9.40,-8.86,-4.36,8.14,8.14,8.14
20.40,17.54,9.41,17.54,9.41,-9.41,-8.86,-4.47,8.13,8.13,8.13
20.61,17.54,9.41,17.54,9.42,-9.42,-8.86,-4.60,8.13,8.13,8.13
20.81,17.54,9.43,17.54,9.43,-9.42,-8.86,-4.72,8.12,8.12,8.11
21.02,17.54,9.43,17.54,9.43,-9.43,-8.86,-4.84,8.11,8.11,8.11
21.23,17.54,9.43,17.54,9.44,-9.44,-8.86,-4.97,8.11,8.11,8.11
21.44,17.54,9.43,17.54,9.44,-9.44,-8.86,-5.11,8.10,8.10,8.11
21.66,17.54,9.44,17.54,9.44,-9.44,-8.86,-5.24,8.10,8.10,8.10
21.87,17.54,9.45,17.54,9.44,-9.45,-8.87,-5.39,8.10,8.10,8.10
22.09,17.54,9.45,17.54,9.45,-9.45,-8.87,-5.53,8.10,8.10,8.10
22.31,17.54,9.45,17.54,9.45,-9.45,-8.87,-5.68,8.09,8.09,8.10
22.54,17.54,9.46,17.54,9.45,-9.45,-8.87,-5.83,8.09,8.09,8.09
22.76,17.54,9.45,17.54,9.45,-9.45,-8.87,-5.99,8.09,8.09,8.10
22.99,17.54,9.45,17.54,9.45,-9.45,-8.87,-6.15,8.09,8.09,8.10
23.22,17.54,9.45,17.54,9.45,-9.45,-8.87,-6.31,8.10,8.10,8.09
23.45,17.54,9.45,17.54,9.45,-9.44,-8.87,-6.48,8.10,8.10,8.09
23.69,17.54,9.44,17.54,9.44,-9.44,-8.88,-6.66,8.10,8.10,8.10
23.92,17.54,9.44,17.54,9.43,-9.44,-8.88,-6.83,8.11,8.11,8.10
24.16,17.54,9.42,17.54,9.42,-9.43,-8.88,-7.01,8.11,8.11,8.12
24.40,17.54,9.41,17.54,9.42,-9.43,-8.88,-7.19,8.12,8.12,8.13
24.65,17.54,9.41,17.55,9.42,-9.42,-8.88,-7.38,8.12,8.13,8.13
24.89,17.54,9.42,17.54,9.42,-9.41,-8.88,-7.57,8.13,8.13,8.13
25.14,17.53,9.42,17.53,9.41,-9.40,-8.88,-7.77,8.14,8.13,8.12
25.39,17.50,9.39,17.51,9.39,-9.38,-8.88,-7.96,8.13,8.13,8.12
25.65,17.48,9.36,17.49,9.36,-9.35,-8.89,-8.16,8.13,8.13,8.13
25.91,17.46,9.34,17.46,9.34,-9.33,-8.89,-8.36,8.14,8.13,8.12
26.16,17.43,9.31,17.43,9.31,-9.30,-8.89,-8.56,8.13,8.13,8.12
26.43,17.39,9.27,17.39,9.27,-9.27,-8.89,-8.76,8.12,8.12,8.12
26.69,17.35,9.23,17.36,9.24,-9.25,-8.89,-8.96,8.10,8.11,8.12
26.96,17.32,9.20,17.33,9.21,-9.23,-8.89,-9.16,8.09,8.10,8.12
27.23,17.31,9.21,17.31,9.20,-9.22,-8.89,-9.36,8.10,8.10,8.11
27.50,17.31,9.21,17.31,9.20,-9.21,-8.89,-9.56,8.10,8.10,8.11
27.77,17.31,9.21,17.31,9.21,-9.21,-8.90,-9.75,8.10,8.10,8.11
28.05,17.31,9.21,17.31,9.21,-9.21,-8.90,-9.94,8.10,8.10,8.10
28.33,17.31,9.21,17.32,9.22,-9.21,-8.90,-10.11,8.11,8.11,8.10
28.62,17.31,9.22,17.32,9.22,-9.20,-8.90,-10.29,8.12,8.12,8.09
28.90,17.31,9.22,17.30,9.22,-9.18,-8.90,-10.45,8.13,8.12,8.09
29.19,17.27,9.20,17.27,9.19,-9.16,-8.90,-10.60,8.11,8.11,8.08
29.48,17.21,9.14,17.21,9.14,-9.14,-8.90,-10.74,8.08,8.08,8.08
29.78,17.15,9.09,17.16,9.09,-9.11,-8.90,-10.87,8.04,8.05,8.06
30.08,17.11,9.04,17.12,9.06,-9.09,-8.90,-10.97,8.03,8.03,8.07
30.38,17.10,9.05,17.10,9.05,-9.07,-8.90,-11.07,8.03,8.03,8.05
30.68,17.09,9.05,17.09,9.05,-9.06,-8.90,-11.14,8.04,8.03,8.04
30.99,17.08,9.06,17.09,9.06,-9.06,-8.90,-11.21,8.03,8.03,8.03
31.30,17.08,9.06,17.08,9.06,-9.07,-8.90,-11.24,8.02,8.02,8.02
31.61,17.08,9.06,17.08,9.07,-9.08,-8.90,-11.27,8.01,8.01,8.02
31.93,17.08,9.08,17.08,9.08,-9.08,-8.90,-11.27,8.00,8.00,8.00
32.24,17.08,9.09,17.09,9.09,-9.08,-8.90,-11.26,8.00,8.01,8.00
32.57,17.08,9.10,17.09,9.10,-9.06,-8.90,-11.23,8.02,8.02,7.99
32.89,17.08,9.10,17.07,9.09,-9.04,-8.90,-11.19,8.04,8.03,7.98
33.22,17.03,9.05,17.02,9.04,-9.01,-8.90,-11.13,8.02,8.01,7.98
33.55,16.96,8.98,16.96,8.97,-8.99,-8.90,-11.06,7.98,7.98,7.99
33.89,16.88,8.89,16.90,8.92,-8.96,-8.90,-10.98,7.92,7.94,7.99
34.23,16.86,8.88,16.87,8.88,-8.94,-8.90,-10.88,7.93,7.93,7.98
34.57,16.86,8.89,16.86,8.88,-8.91,-8.90,-10.78,7.95,7.94,7.98
34.92,16.86,8.89,16.86,8.89,-8.89,-8.90,-10.67,7.97,7.97,7.97
35.27,16.86,8.88,16.87,8.90,-8.87,-8.90,-10.56,8.00,8.00,7.98
35.62,16.86,8.91,16.87,8.90,-8.85,-8.89,-10.44,8.02,8.02,7.96
35.97,16.86,8.90,16.84,8.88,-8.83,-8.89,-10.32,8.03,8.01,7.96
36.33,16.78,8.83,16.78,8.83,-8.81,-8.89,-10.20,7.97,7.97,7.95
36.70,16.70,8.77,16.71,8.77,-8.80,-8.89,-10.08,7.90,7.91,7.94
37.06,16.63,8.71,16.65,8.73,-8.79,-8.89,-9.95,7.84,7.86,7.92
37.43,16.63,8.74,16.63,8.73,-8.78,-8.88,-9.83,7.85,7.85,7.90
37.81,16.63,8.75,16.63,8.75,-8.77,-8.88,-9.71,7.86,7.86,7.88
38.19,16.63,8.77,16.64,8.78,-8.76,-8.88,-9.60,7.87,7.88,7.86
38.57,16.63,8.81,16.64,8.81,-8.76,-8.87,-9.48,7.88,7.88,7.82
38.95,16.63,8.83,16.61,8.81,-8.76,-8.87,-9.38,7.87,7.85,7.80
39.34,16.55,8.79,16.55,8.78,-8.76,-8.87,-9.27,7.79,7.78,7.76
39.74,16.46,8.72,16.48,8.74,-8.77,-8.86,-9.17,7.70,7.71,7.74
40.14,16.40,8.70,16.42,8.71,-8.77,-8.86,-9.07,7.64,7.65,7.70
40.54,16.40,8.72,16.40,8.72,-8.76,-8.85,-8.99,7.64,7.64,7.68
40.94,16.40,8.75,16.40,8.75,-8.75,-8.85,-8.90,7.66,7.65,7.65
41.35,16.40,8.77,16.41,8.78,-8.73,-8.84,-8.82,7.67,7.68,7.64
41.76,16.40,8.79,16.39,8.78,-8.72,-8.84,-8.75,7.68,7.67,7.61
42.18,16.36,8.77,16.34,8.75,-8.72,-8.83,-8.68,7.64,7.62,7.59
42.60,16.26,8.70,16.27,8.70,-8.72,-8.83,-8.62,7.54,7.55,7.57
43.03,16.17,8.63,16.20,8.66,-8.72,-8.82,-8.57,7.46,7.49,7.54
43.46,16.17,8.66,16.17,8.65,-8.71,-8.81,-8.52,7.47,7.46,7.51
43.90,16.17,8.69,16.17,8.68,-8.69,-8.81,-8.47,7.49,7.48,7.49
44.33,16.17,8.71,16.18,8.72,-8.67,-8.80,-8.44,7.50,7.51,7.47
44.78,16.17,8.73,16.16,8.72,-8.66,-8.79,-8.41,7.51,7.50,7.44
45.23,16.12,8.70,16.10,8.68,-8.66,-8.78,-8.38,7.46,7.44,7.42
45.68,16.01,8.63,16.03,8.64,-8.66,-8.78,-8.36,7.35,7.37,7.38
46.13,15.94,8.59,15.97,8.61,-8.66,-8.77,-8.35,7.29,7.31,7.35
46.60,15.94,8.62,15.94,8.61,-8.65,-8.76,-8.34,7.30,7.29,7.32
47.06,15.94,8.65,15.94,8.64,-8.64,-8.75,-8.34,7.31,7.30,7.29
47.53,15.92,8.66,15.93,8.67,-8.63,-8.74,-8.35,7.29,7.30,7.26
48.01,15.90,8.69,15.88,8.66,-8.64,-8.73,-8.36,7.27,7.24,7.22
48.49,15.81,8.63,15.81,8.63,-8.64,-8.72,-8.37,7.17,7.17,7.18
48.97,15.72,8.59,15.76,8.62,-8.65,-8.72,-8.39,7.07,7.11,7.13
49.46,15.72,8.62,15.72,8.62,-8.65,-8.71,-8.42,7.08,7.07,7.10
49.96,15.72,8.67,15.72,8.66,-8.64,-8.70,-8.45,7.08,7.08,7.05
50.46,15.70,8.68,15.70,8.68,-8.63,-8.69,-8.48,7.07,7.07,7.03
50.96,15.67,8.68,15.65,8.66,-8.63,-8.68,-8.52,7.04,7.02,7.00
51.47,15.58,8.62,15.58,8.62,-8.64,-8.67,-8.56,6.95,6.95,6.96
51.99,15.49,8.57,15.53,8.60,-8.65,-8.66,-8.60,6.85,6.88,6.93
52.51,15.49,8.61,15.49,8.60,-8.65,-8.65,-8.64,6.84,6.84,6.88
53.03,15.49,8.63,15.50,8.65,-8.65,-8.65,-8.69,6.84,6.85,6.86
53.56,15.49,8.69,15.49,8.68,-8.64,-8.64,-8.74,6.85,6.84,6.81
54.10,15.47,8.71,15.43,8.67,-8.64,-8.63,-8.79,6.84,6.80,6.76
54.64,15.34,8.63,15.37,8.66,-8.63,-8.62,-8.84,6.72,6.74,6.71
55.18,15.26,8.60,15.30,8.63,-8.62,-8.62,-8.89,6.64,6.68,6.67
55.74,15.26,8.63,15.23,8.59,-8.61,-8.61,-8.94,6.66,6.62,6.63
56.29,15.19,8.59,15.16,8.56,-8.59,-8.60,-8.98,6.61,6.58,6.60
56.86,15.06,8.49,15.10,8.53,-8.56,-8.59,-9.03,6.50,6.54,6.57
57.42,15.03,8.51,15.05,8.52,-8.53,-8.59,-9.06,6.50,6.51,6.53
58.00,15.03,8.54,15.03,8.53,-8.52,-8.58,-9.10,6.52,6.52,6.50
58.58,15.03,8.56,15.02,8.54,-8.50,-8.58,-9.13,6.53,6.51,6.48
59.16,14.99,8.54,14.96,8.51,-8.50,-8.57,-9.16,6.49,6.46,6.46
59.76,14.86,8.44,14.89,8.47,-8.49,-8.56,-9.17,6.37,6.40,6.43
60.35,14.81,8.44,14.83,8.45,-8.49,-8.56,-9.19,6.32,6.34,6.37
60.96,14.80,8.47,14.81,8.48,-8.49,-8.55,-9.19,6.32,6.32,6.33
61.57,14.80,8.53,14.78,8.51,-8.49,-8.54,-9.19,6.32,6.30,6.28
62.18,14.76,8.54,14.73,8.50,-8.48,-8.54,-9.18,6.28,6.25,6.22
62.80,14.62,8.44,14.66,8.48,-8.48,-8.53,-9.16,6.15,6.19,6.18
63.43,14.58,8.45,14.60,8.47,-8.48,-8.52,-9.13,6.11,6.13,6.13
64.07,14.58,8.49,14.57,8.47,-8.47,-8.51,-9.10,6.11,6.09,6.10
64.71,14.54,8.49,14.52,8.47,-8.46,-8.51,-9.06,6.08,6.06,6.05
65.35,14.47,8.47,14.46,8.45,-8.45,-8.50,-9.01,6.02,6.01,6.00
66.01,14.35,8.39,14.40,8.43,-8.44,-8.49,-8.95,5.92,5.96,5.97
66.67,14.35,8.43,14.35,8.43,-8.43,-8.48,-8.89,5.92,5.92,5.93
67.33,14.32,8.46,14.30,8.42,-8.43,-8.47,-8.82,5.90,5.87,5.87
68.01,14.25,8.43,14.25,8.42,-8.42,-8.46,-8.75,5.83,5.83,5.83
68.69,14.16,8.38,14.18,8.40,-8.41,-8.45,-8.67,5.75,5.77,5.79
69.37,14.12,8.38,14.15,8.40,-8.41,-8.44,-8.59,5.72,5.74,5.74
70.07,14.12,8.42,14.12,8.42,-8.41,-8.42,-8.51,5.72,5.72,5.70
70.77,14.12,8.47,14.08,8.42,-8.41,-8.41,-8.42,5.71,5.67,5.66
71.48,14.01,8.41,14.01,8.40,-8.41,-8.40,-8.33,5.60,5.60,5.60
72.19,13.89,8.34,13.94,8.39,-8.41,-8.38,-8.24,5.48,5.54,5.56
72.91,13.89,8.38,13.90,8.39,-8.40,-8.37,-8.16,5.49,5.50,5.51
73.64,13.89,8.43,13.86,8.40,-8.38,-8.35,-8.07,5.51,5.48,5.46
74.38,13.83,8.42,13.82,8.40,-8.36,-8.34,-7.98,5.48,5.47,5.42
75.12,13.71,8.34,13.75,8.37,-8.33,-8.32,-7.89,5.38,5.42,5.38
75.87,13.68,8.33,13.65,8.30,-8.31,-8.30,-7.81,5.38,5.34,5.35
76.63,13.56,8.24,13.56,8.25,-8.28,-8.29,-7.73,5.28,5.28,5.32
77.40,13.47,8.19,13.50,8.21,-8.25,-8.27,-7.65,5.22,5.24,5.29
78.17,13.44,8.20,13.45,8.20,-8.23,-8.25,-7.57,5.22,5.23,5.25
78.95,13.44,8.21,13.44,8.21,-8.20,-8.23,-7.50,5.24,5.24,5.23
79.74,13.44,8.24,13.41,8.21,-8.18,-8.21,-7.43,5.27,5.24,5.20
80.54,13.36,8.19,13.35,8.18,-8.17,-8.19,-7.36,5.20,5.19,5.18
81.35,13.26,8.12,13.28,8.14,-8.16,-8.17,-7.30,5.11,5.13,5.14
82.16,13.21,8.09,13.24,8.13,-8.14,-8.15,-7.25,5.07,5.10,5.13
82.98,13.21,8.13,13.21,8.13,-8.12,-8.13,-7.19,5.09,5.08,5.08
83.81,13.21,8.17,13.16,8.11,-8.10,-8.11,-7.15,5.12,5.06,5.04
84.65,13.06,8.06,13.09,8.09,-8.07,-8.08,-7.11,5.00,5.02,5.00
85.50,12.98,8.02,13.03,8.06,-8.04,-8.06,-7.07,4.94,4.99,4.97
86.35,12.98,8.05,12.95,8.01,-8.03,-8.04,-7.04,4.96,4.92,4.94
87.22,12.93,8.04,12.88,7.99,-8.01,-8.02,-7.01,4.92,4.87,4.90
88.09,12.75,7.90,12.82,7.96,-7.99,-8.00,-6.99,4.76,4.82,4.86
88.97,12.75,7.94,12.77,7.95,-7.97,-7.97,-6.97,4.78,4.80,4.82
89.86,12.75,7.98,12.73,7.96,-7.95,-7.95,-6.96,4.81,4.78,4.77
90.76,12.73,8.00,12.70,7.97,-7.92,-7.93,-6.96,4.81,4.78,4.73
91.66,12.60,7.91,12.63,7.94,-7.90,-7.91,-6.95,4.71,4.73,4.69
92.58,12.53,7.89,12.52,7.88,-7.87,-7.88,-6.96,4.66,4.66,4.65
93.51,12.43,7.82,12.42,7.82,-7.84,-7.86,-6.97,4.59,4.58,4.61
94.44,12.32,7.76,12.36,7.79,-7.81,-7.84,-6.98,4.51,4.55,4.57
95.39,12.30,7.78,12.30,7.77,-7.79,-7.82,-7.00,4.52,4.51,4.52
96.34,12.26,7.78,12.23,7.75,-7.76,-7.79,-7.02,4.50,4.46,4.48
97.30,12.15,7.72,12.16,7.73,-7.74,-7.77,-7.05,4.41,4.42,4.43
98.28,12.07,7.69,12.11,7.72,-7.73,-7.75,-7.08,4.34,4.38,4.39
99.26,12.07,7.74,12.07,7.73,-7.72,-7.72,-7.11,4.35,4.35,4.33
100.25,12.06,7.77,12.03,7.73,-7.71,-7.70,-7.15,4.35,4.32,4.30
101.25,11.99,7.72,11.97,7.71,-7.70,-7.67,-7.19,4.30,4.28,4.27
102.27,11.84,7.62,11.91,7.68,-7.67,-7.65,-7.23,4.17,4.23,4.23
103.29,11.84,7.66,11.83,7.64,-7.64,-7.62,-7.28,4.21,4.19,4.18
104.32,11.79,7.64,11.76,7.61,-7.60,-7.59,-7.33,4.20,4.17,4.15
105.37,11.67,7.56,11.70,7.59,-7.56,-7.57,-7.38,4.12,4.15,4.12
106.42,11.61,7.52,11.60,7.52,-7.52,-7.54,-7.43,4.09,4.08,4.09
107.48,11.52,7.48,11.50,7.45,-7.49,-7.51,-7.48,4.03,4.01,4.04
108.56,11.40,7.38,11.44,7.41,-7.47,-7.48,-7.53,3.94,3.97,4.03
109.64,11.39,7.39,11.40,7.40,-7.44,-7.44,-7.58,3.96,3.96,4.00
110.74,11.39,7.43,11.40,7.43,-7.41,-7.41,-7.63,3.99,3.99,3.97
111.85,11.39,7.45,11.38,7.43,-7.38,-7.38,-7.68,4.01,4.00,3.94
112.97,11.36,7.45,11.32,7.41,-7.35,-7.34,-7.72,4.01,3.96,3.91
114.10,11.16,7.29,11.22,7.35,-7.33,-7.31,-7.77,3.83,3.89,3.88
115.24,11.13,7.30,11.10,7.27,-7.31,-7.28,-7.80,3.82,3.79,3.83
116.39,11.00,7.22,11.01,7.22,-7.28,-7.24,-7.84,3.73,3.73,3.78
117.55,10.93,7.19,10.98,7.24,-7.23,-7.21,-7.86,3.70,3.75,3.75
118.73,10.93,7.23,10.91,7.21,-7.19,-7.17,-7.89,3.75,3.72,3.70
119.92,10.92,7.26,10.86,7.19,-7.15,-7.14,-7.90,3.78,3.71,3.67
121.12,10.70,7.06,10.78,7.15,-7.11,-7.11,-7.91,3.59,3.67,3.65
122.33,10.70,7.11,10.68,7.07,-7.09,-7.07,-7.90,3.61,3.59,3.59
123.55,10.60,7.04,10.58,7.01,-7.07,-7.04,-7.90,3.54,3.51,3.56
124.79,10.48,6.96,10.53,7.01,-7.04,-7.01,-7.88,3.44,3.49,3.52
126.03,10.47,7.00,10.49,7.01,-7.02,-6.98,-7.86,3.45,3.46,3.47
127.29,10.47,7.05,10.44,7.02,-7.01,-6.95,-7.83,3.46,3.43,3.42
128.57,10.42,7.04,10.39,7.01,-6.99,-6.92,-7.79,3.43,3.39,3.38
129.85,10.27,6.93,10.33,7.00,-6.98,-6.89,-7.74,3.30,3.36,3.34
131.15,10.25,6.96,10.27,6.97,-6.96,-6.86,-7.69,3.30,3.31,3.29
132.46,10.25,7.01,10.19,6.94,-6.93,-6.84,-7.63,3.33,3.27,3.25
133.79,10.11,6.90,10.14,6.93,-6.89,-6.81,-7.56,3.22,3.24,3.21
135.12,10.01,6.84,10.03,6.85,-6.86,-6.79,-7.48,3.15,3.17,3.17
136.48,9.96,6.81,9.92,6.78,-6.82,-6.76,-7.41,3.14,3.10,3.15
137.84,9.81,6.70,9.86,6.75,-6.78,-6.74,-7.32,3.03,3.08,3.11
139.22,9.79,6.72,9.81,6.73,-6.74,-6.72,-7.24,3.06,3.07,3.07
140.61,9.79,6.76,9.74,6.70,-6.69,-6.70,-7.15,3.10,3.05,3.04
142.02,9.68,6.68,9.70,6.70,-6.65,-6.67,-7.05,3.04,3.05,3.01
143.44,9.59,6.62,9.62,6.64,-6.61,-6.65,-6.96,2.98,3.01,2.98
144.87,9.56,6.62,9.51,6.57,-6.58,-6.63,-6.86,2.98,2.93,2.94
146.32,9.41,6.50,9.43,6.51,-6.56,-6.61,-6.77,2.85,2.87,2.92
147.78,9.33,6.45,9.37,6.48,-6.53,-6.59,-6.67,2.80,2.84,2.89
149.26,9.33,6.48,9.34,6.48,-6.50,-6.57,-6.57,2.83,2.83,2.86
150.75,9.33,6.51,9.32,6.50,-6.47,-6.55,-6.47,2.86,2.85,2.82
152.26,9.32,6.53,9.28,6.49,-6.45,-6.53,-6.38,2.88,2.83,2.80
153.78,9.18,6.42,9.22,6.46,-6.42,-6.51,-6.29,2.76,2.80,2.76
155.32,9.12,6.39,9.14,6.41,-6.40,-6.49,-6.20,2.73,2.74,2.73
156.88,9.09,6.39,9.04,6.34,-6.37,-6.48,-6.11,2.73,2.67,2.70
158.44,8.94,6.28,8.98,6.31,-6.32,-6.46,-6.02,2.62,2.66,2.67
160.03,8.88,6.25,8.91,6.27,-6.28,-6.44,-5.94,2.61,2.63,2.64
161.63,8.88,6.28,8.83,6.22,-6.23,-6.41,-5.86,2.66,2.60,2.60
163.24,8.74,6.18,8.76,6.20,-6.18,-6.39,-5.78,2.56,2.58,2.56
164.88,8.65,6.12,8.68,6.15,-6.14,-6.37,-5.71,2.52,2.54,2.53
166.53,8.61,6.12,8.57,6.07,-6.10,-6.35,-5.64,2.52,2.48,2.49
168.19,8.49,6.02,8.52,6.05,-6.05,-6.33,-5.57,2.44,2.46,2.48
169.87,8.42,5.99,8.45,6.01,-6.01,-6.30,-5.51,2.42,2.44,2.44
171.57,8.42,6.02,8.37,5.96,-5.96,-6.28,-5.45,2.46,2.40,2.40
173.29,8.28,5.92,8.31,5.95,-5.92,-6.25,-5.40,2.36,2.39,2.37
175.02,8.20,5.87,8.23,5.90,-5.89,-6.23,-5.35,2.31,2.34,2.33
176.77,8.20,5.92,8.13,5.84,-5.87,-6.20,-5.30,2.33,2.26,2.29
178.54,8.02,5.77,8.06,5.81,-5.86,-6.17,-5.26,2.17,2.20,2.25
180.32,7.97,5.78,8.00,5.79,-5.84,-6.14,-5.22,2.14,2.16,2.20
182.13,7.97,5.81,7.98,5.81,-5.82,-6.11,-5.19,2.15,2.15,2.17
183.95,7.97,5.85,7.97,5.84,-5.80,-6.08,-5.15,2.17,2.16,2.12
185.79,7.97,5.89,7.92,5.84,-5.79,-6.05,-5.13,2.19,2.13,2.08
187.65,7.80,5.75,7.85,5.80,-5.77,-6.01,-5.10,2.04,2.08,2.05
189.52,7.74,5.74,7.75,5.74,-5.75,-5.97,-5.09,1.99,2.00,2.00
191.42,7.68,5.71,7.65,5.68,-5.72,-5.94,-5.07,1.96,1.93,1.97
193.33,7.56,5.63,7.60,5.67,-5.68,-5.90,-5.06,1.88,1.92,1.93
195.27,7.51,5.62,7.53,5.64,-5.63,-5.86,-5.05,1.88,1.90,1.89
197.22,7.51,5.66,7.46,5.59,-5.58,-5.82,-5.04,1.93,1.87,1.86
199.19,7.37,5.53,7.40,5.56,-5.54,-5.78,-5.03,1.84,1.86,1.84
201.18,7.28,5.48,7.31,5.50,-5.50,-5.73,-5.03,1.79,1.81,1.80
203.19,7.24,5.47,7.21,5.43,-5.46,-5.69,-5.03,1.79,1.75,1.78
205.23,7.12,5.37,7.15,5.40,-5.41,-5.64,-5.04,1.72,1.74,1.75
207.28,7.06,5.33,7.09,5.36,-5.36,-5.59,-5.04,1.71,1.73,1.74
209.35,7.06,5.36,7.01,5.31,-5.31,-5.54,-5.05,1.76,1.70,1.70
211.44,6.93,5.27,6.96,5.29,-5.26,-5.49,-5.05,1.68,1.70,1.67
213.56,6.84,5.20,6.87,5.22,-5.20,-5.44,-5.06,1.64,1.66,1.64
215.69,6.83,5.21,6.76,5.14,-5.16,-5.39,-5.07,1.68,1.60,1.62
217.85,6.62,5.03,6.69,5.10,-5.11,-5.33,-5.07,1.51,1.58,1.60
220.03,6.60,5.05,6.62,5.06,-5.07,-5.28,-5.08,1.54,1.56,1.56
222.23,6.60,5.07,6.54,5.01,-5.02,-5.22,-5.08,1.58,1.52,1.53
224.45,6.49,4.98,6.49,4.98,-4.99,-5.16,-5.09,1.51,1.50,1.51
226.70,6.38,4.90,6.43,4.94,-4.95,-5.11,-5.09,1.43,1.48,1.48
228.96,6.37,4.90,6.39,4.92,-4.92,-5.05,-5.09,1.45,1.47,1.47
231.25,6.37,4.92,6.35,4.90,-4.89,-4.99,-5.08,1.48,1.46,1.45
233.57,6.34,4.92,6.29,4.87,-4.85,-4.93,-5.08,1.49,1.44,1.42
235.90,6.15,4.75,6.23,4.83,-4.81,-4.86,-5.06,1.34,1.42,1.40
238.26,6.14,4.76,6.15,4.77,-4.77,-4.80,-5.05,1.37,1.38,1.38
240.64,6.14,4.77,6.07,4.70,-4.72,-4.74,-5.03,1.42,1.35,1.37
243.05,5.99,4.64,6.04,4.69,-4.66,-4.67,-5.00,1.33,1.37,1.35
245.48,5.92,4.59,5.95,4.61,-4.61,-4.61,-4.97,1.32,1.34,1.33
247.93,5.92,4.61,5.85,4.52,-4.54,-4.54,-4.94,1.38,1.30,1.32
250.41,5.73,4.41,5.79,4.48,-4.48,-4.47,-4.90,1.26,1.31,1.32
252.92,5.69,4.38,5.72,4.41,-4.41,-4.41,-4.85,1.28,1.31,1.31
255.45,5.69,4.40,5.63,4.33,-4.34,-4.34,-4.80,1.35,1.29,1.29
258.00,5.55,4.27,5.58,4.30,-4.27,-4.27,-4.74,1.28,1.31,1.29
260.58,5.46,4.19,5.49,4.22,-4.20,-4.21,-4.68,1.26,1.29,1.27
263.19,5.44,4.18,5.38,4.12,-4.14,-4.14,-4.61,1.31,1.24,1.26
265.82,5.26,4.01,5.31,4.06,-4.07,-4.07,-4.54,1.19,1.24,1.26
268.48,5.23,3.98,5.26,4.01,-4.01,-4.00,-4.47,1.22,1.25,1.25
271.16,5.23,3.99,5.19,3.94,-3.96,-3.93,-4.38,1.28,1.23,1.25
273.87,5.15,3.91,5.13,3.90,-3.90,-3.86,-4.30,1.25,1.23,1.24
276.61,5.02,3.79,5.07,3.84,-3.84,-3.79,-4.21,1.18,1.23,1.23
279.38,5.00,3.79,5.02,3.80,-3.79,-3.72,-4.12,1.22,1.23,1.22
282.17,5.00,3.78,4.97,3.74,-3.73,-3.65,-4.03,1.27,1.24,1.22
284.99,4.95,3.72,4.93,3.70,-3.67,-3.58,-3.93,1.29,1.26,1.23
287.84,4.79,3.56,4.85,3.62,-3.60,-3.51,-3.83,1.19,1.25,1.23
290.72,4.78,3.55,4.75,3.52,-3.53,-3.45,-3.73,1.25,1.22,1.23
293.63,4.67,3.44,4.66,3.42,-3.46,-3.38,-3.63,1.22,1.20,1.24
296.57,4.56,3.32,4.62,3.38,-3.38,-3.31,-3.53,1.18,1.24,1.24
299.53,4.55,3.32,4.54,3.30,-3.31,-3.24,-3.42,1.25,1.24,1.24
302.53,4.54,3.30,4.47,3.23,-3.23,-3.17,-3.32,1.32,1.25,1.24
305.55,4.35,3.11,4.42,3.18,-3.15,-3.10,-3.21,1.20,1.27,1.24
308.61,4.32,3.08,4.34,3.10,-3.09,-3.03,-3.11,1.24,1.26,1.25
311.69,4.32,3.07,4.26,3.01,-3.03,-2.96,-3.01,1.29,1.23,1.25
314.81,4.18,2.93,4.20,2.94,-2.97,-2.89,-2.90,1.21,1.23,1.26
317.96,4.10,2.85,4.14,2.88,-2.91,-2.82,-2.80,1.19,1.23,1.26
321.14,4.09,2.83,4.10,2.84,-2.85,-2.75,-2.70,1.24,1.25,1.26
324.35,4.09,2.83,4.07,2.81,-2.79,-2.69,-2.60,1.31,1.29,1.26
327.59,4.06,2.80,4.03,2.77,-2.72,-2.62,-2.50,1.34,1.31,1.27
330.87,3.91,2.65,3.95,2.69,-2.65,-2.55,-2.40,1.26,1.30,1.26
334.18,3.86,2.60,3.84,2.57,-2.58,-2.48,-2.30,1.29,1.26,1.26
337.52,3.73,2.46,3.75,2.47,-2.50,-2.42,-2.20,1.24,1.25,1.28
340.90,3.66,2.38,3.69,2.41,-2.42,-2.35,-2.11,1.25,1.27,1.29
344.30,3.64,2.35,3.62,2.32,-2.34,-2.28,-2.01,1.31,1.28,1.29
347.75,3.58,2.27,3.55,2.25,-2.26,-2.21,-1.92,1.32,1.29,1.31
351.23,3.45,2.15,3.48,2.17,-2.19,-2.15,-1.83,1.27,1.30,1.31
354.74,3.41,2.09,3.44,2.12,-2.12,-2.08,-1.74,1.29,1.32,1.33
358.28,3.41,2.09,3.40,2.07,-2.07,-2.01,-1.65,1.35,1.33,1.32
361.87,3.41,2.08,3.35,2.02,-2.01,-1.95,-1.56,1.40,1.34,1.33
365.49,3.24,1.90,3.29,1.95,-1.94,-1.88,-1.48,1.30,1.34,1.34
369.14,3.19,1.85,3.23,1.88,-1.87,-1.82,-1.39,1.32,1.35,1.35
372.83,3.18,1.83,3.15,1.80,-1.80,-1.75,-1.31,1.38,1.35,1.36
376.56,3.13,1.79,3.11,1.76,-1.72,-1.69,-1.23,1.41,1.38,1.34
380.33,2.98,1.63,3.02,1.67,-1.65,-1.62,-1.15,1.34,1.38,1.35
384.13,2.95,1.59,2.91,1.55,-1.57,-1.56,-1.07,1.38,1.34,1.36
387.97,2.80,1.43,2.82,1.45,-1.50,-1.49,-0.99,1.30,1.32,1.37
391.85,2.74,1.38,2.77,1.41,-1.44,-1.43,-0.91,1.31,1.34,1.37
395.77,2.73,1.37,2.73,1.36,-1.37,-1.36,-0.83,1.37,1.36,1.37
399.73,2.73,1.37,2.70,1.33,-1.30,-1.30,-0.76,1.43,1.40,1.37
403.72,2.64,1.26,2.63,1.26,-1.23,-1.23,-0.68,1.41,1.40,1.38
407.76,2.53,1.15,2.58,1.20,-1.17,-1.17,-0.61,1.37,1.41,1.38
411.84,2.50,1.11,2.51,1.11,-1.11,-1.10,-0.54,1.40,1.40,1.39
415.96,2.50,1.09,2.43,1.03,-1.04,-1.04,-0.47,1.46,1.39,1.41
420.12,2.32,0.91,2.36,0.95,-0.98,-0.97,-0.40,1.35,1.39,1.41
424.32,2.27,0.86,2.31,0.89,-0.91,-0.91,-0.33,1.37,1.40,1.42
428.56,2.27,0.84,2.26,0.83,-0.84,-0.84,-0.26,1.44,1.42,1.44
432.85,2.27,0.83,2.23,0.79,-0.77,-0.78,-0.19,1.50,1.46,1.45
437.18,2.16,0.72,2.17,0.72,-0.70,-0.71,-0.13,1.46,1.47,1.44
441.55,2.07,0.61,2.12,0.65,-0.63,-0.65,-0.07,1.44,1.48,1.46
445.96,2.04,0.57,2.04,0.57,-0.56,-0.58,-0.00,1.48,1.48,1.47
450.42,2.04,0.55,1.97,0.49,-0.49,-0.52,0.06,1.55,1.48,1.49
454.93,1.86,0.36,1.90,0.40,-0.42,-0.45,0.12,1.44,1.48,1.50
459.48,1.81,0.30,1.85,0.34,-0.35,-0.39,0.17,1.47,1.50,1.51
464.07,1.81,0.28,1.80,0.27,-0.28,-0.32,0.23,1.54,1.52,1.53
468.71,1.81,0.28,1.76,0.22,-0.21,-0.26,0.28,1.60,1.55,1.54
473.40,1.67,0.12,1.70,0.14,-0.14,-0.19,0.34,1.53,1.56,1.56
478.13,1.60,0.04,1.64,0.07,-0.07,-0.13,0.39,1.53,1.57,1.57
482.91,1.59,0.02,1.59,0.01,-0.01,-0.06,0.44,1.59,1.59,1.58
487.74,1.59,-0.00,1.56,-0.04,0.05,0.01,0.49,1.65,1.61,1.60
492.62,1.50,-0.11,1.49,-0.12,0.12,0.07,0.53,1.62,1.61,1.62
497.55,1.39,-0.24,1.42,-0.21,0.18,0.14,0.58,1.58,1.61,1.63
502.52,1.36,-0.28,1.37,-0.28,0.25,0.21,0.62,1.61,1.62,1.64
507.55,1.36,-0.31,1.37,-0.30,0.31,0.28,0.67,1.67,1.68,1.67
512.62,1.36,-0.33,1.34,-0.35,0.37,0.34,0.71,1.74,1.72,1.69
