frequency,raw,error,smoothed,error_smoothed,equalization,parametric_eq,fixed_band_eq,equalized_raw,equalized_smoothed,target
20.00,-9.80,-8.19,-9.81,-8.20,6.00,5.90,2.58,-3.80,-3.81,-1.61
20.20,-9.71,-8.14,-9.70,-8.13,6.00,5.92,2.66,-3.71,-3.70,-1.57
20.40,-9.61,-8.07,-9.61,-8.07,6.00,5.94,2.73,-3.61,-3.61,-1.54
20.61,-9.52,-8.01,-9.51,-8.00,6.00,5.96,2.81,-3.52,-3.51,-1.51
20.81,-9.42,-7.94,-9.42,-7.94,6.00,5.98,2.89,-3.42,-3.42,-1.48
21.02,-9.34,-7.89,-9.35,-7.89,6.00,6.00,2.98,-3.34,-3.35,-1.45
21.23,-9.28,-7.85,-9.28,-7.84,6.00,6.02,3.06,-3.28,-3.28,-1.43
21.44,-9.23,-7.81,-9.23,-7.81,6.00,6.04,3.15,-3.23,-3.23,-1.42
21.66,-9.18,-7.77,-9.18,-7.77,6.00,6.05,3.24,-3.18,-3.18,-1.41
21.87,-9.13,-7.73,-9.13,-7.73,6.00,6.06,3.34,-3.13,-3.13,-1.40
22.09,-9.08,-7.69,-9.08,-7.68,6.00,6.08,3.43,-3.08,-3.08,-1.39
22.31,-9.02,-7.63,-9.02,-7.63,6.00,6.09,3.53,-3.02,-3.02,-1.38
22.54,-8.96,-7.58,-8.97,-7.59,6.00,6.09,3.63,-2.96,-2.97,-1.38
22.76,-8.90,-7.51,-8.91,-7.52,6.00,6.10,3.74,-2.90,-2.91,-1.38
22.99,-8.84,-7.45,-8.80,-7.42,6.00,6.11,3.84,-2.84,-2.80,-1.39
23.22,-8.65,-7.27,-8.65,-7.27,6.00,6.11,3.95,-2.65,-2.65,-1.38
23.45,-8.45,-7.07,-8.45,-7.07,6.00,6.11,4.06,-2.45,-2.45,-1.38
23.69,-8.25,-6.89,-8.24,-6.87,6.00,6.11,4.18,-2.25,-2.24,-1.37
23.92,-8.05,-6.68,-8.10,-6.74,6.00,6.11,4.29,-2.05,-2.10,-1.37
24.16,-8.03,-6.67,-8.04,-6.68,6.00,6.11,4.41,-2.03,-2.04,-1.36
24.40,-8.08,-6.72,-8.06,-6.70,6.00,6.11,4.53,-2.08,-2.06,-1.36
24.65,-8.13,-6.76,-8.13,-6.77,6.00,6.10,4.66,-2.13,-2.13,-1.37
24.89,-8.19,-6.82,-8.18,-6.81,6.00,6.10,4.78,-2.19,-2.18,-1.37
25.14,-8.20,-6.83,-8.19,-6.82,6.00,6.09,4.91,-2.20,-2.19,-1.37
25.39,-8.17,-6.79,-8.18,-6.81,6.00,6.08,5.03,-2.17,-2.18,-1.38
25.65,-8.15,-6.77,-8.16,-6.77,6.00,6.07,5.16,-2.15,-2.16,-1.38
25.91,-8.13,-6.74,-8.12,-6.73,6.00,6.06,5.29,-2.13,-2.12,-1.39
26.16,-8.07,-6.67,-8.07,-6.67,6.00,6.04,5.42,-2.07,-2.07,-1.40
26.43,-7.99,-6.59,-7.99,-6.58,6.00,6.03,5.54,-1.99,-1.99,-1.40
26.69,-7.90,-6.49,-7.90,-6.49,6.00,6.01,5.67,-1.90,-1.90,-1.41
26.96,-7.82,-6.41,-7.84,-6.42,6.00,5.99,5.79,-1.82,-1.84,-1.41
27.23,-7.80,-6.38,-7.80,-6.37,6.00,5.97,5.91,-1.80,-1.80,-1.42
27.50,-7.78,-6.36,-7.78,-6.35,6.01,5.95,6.03,-1.78,-1.77,-1.42
27.77,-7.76,-6.31,-7.76,-6.32,6.01,5.92,6.15,-1.75,-1.75,-1.45
28.05,-7.74,-6.29,-7.73,-6.28,6.01,5.90,6.26,-1.73,-1.71,-1.45
28.33,-7.67,-6.21,-7.67,-6.22,6.01,5.87,6.36,-1.66,-1.67,-1.46
28.62,-7.61,-6.14,-7.61,-6.15,6.00,5.85,6.46,-1.62,-1.62,-1.47
28.90,-7.54,-6.07,-7.54,-6.07,5.98,5.82,6.55,-1.56,-1.57,-1.47
29.19,-7.48,-6.00,-7.48,-6.00,5.95,5.79,6.63,-1.53,-1.52,-1.48
29.48,-7.41,-5.94,-7.41,-5.93,5.93,5.76,6.70,-1.48,-1.48,-1.47
29.78,-7.34,-5.86,-7.34,-5.86,5.89,5.72,6.77,-1.45,-1.45,-1.48
30.08,-7.28,-5.79,-7.29,-5.80,5.84,5.69,6.82,-1.44,-1.45,-1.49
30.38,-7.26,-5.76,-7.27,-5.77,5.77,5.66,6.86,-1.49,-1.49,-1.50
30.68,-7.24,-5.74,-7.24,-5.73,5.70,5.62,6.90,-1.54,-1.54,-1.50
30.99,-7.22,-5.70,-7.20,-5.68,5.63,5.58,6.92,-1.59,-1.57,-1.52
31.30,-7.11,-5.59,-7.10,-5.59,5.56,5.54,6.93,-1.56,-1.55,-1.52
31.61,-6.99,-5.47,-6.99,-5.47,5.49,5.51,6.92,-1.50,-1.50,-1.52
31.93,-6.87,-5.34,-6.90,-5.36,5.43,5.47,6.91,-1.44,-1.46,-1.53
32.24,-6.84,-5.29,-6.85,-5.31,5.36,5.42,6.88,-1.48,-1.49,-1.55
32.57,-6.85,-5.30,-6.84,-5.30,5.30,5.38,6.84,-1.55,-1.55,-1.55
32.89,-6.86,-5.32,-6.84,-5.29,5.24,5.34,6.80,-1.62,-1.59,-1.54
33.22,-6.80,-5.24,-6.79,-5.24,5.20,5.29,6.74,-1.60,-1.60,-1.56
33.55,-6.72,-5.16,-6.72,-5.16,5.16,5.25,6.67,-1.56,-1.56,-1.56
33.89,-6.64,-5.07,-6.65,-5.09,5.12,5.20,6.59,-1.52,-1.53,-1.57
34.23,-6.61,-5.04,-6.62,-5.05,5.08,5.16,6.51,-1.53,-1.55,-1.57
34.57,-6.61,-5.03,-6.61,-5.03,5.03,5.11,6.42,-1.58,-1.58,-1.58
34.92,-6.61,-5.03,-6.59,-5.01,4.98,5.06,6.33,-1.63,-1.61,-1.58
35.27,-6.55,-4.96,-6.54,-4.95,4.93,5.01,6.22,-1.62,-1.61,-1.59
35.62,-6.47,-4.87,-6.47,-4.88,4.89,4.97,6.12,-1.58,-1.58,-1.60
35.97,-6.39,-4.79,-6.41,-4.81,4.84,4.92,6.01,-1.55,-1.57,-1.60
36.33,-6.38,-4.78,-6.39,-4.78,4.79,4.87,5.90,-1.59,-1.60,-1.60
36.70,-6.38,-4.77,-6.37,-4.76,4.74,4.81,5.78,-1.64,-1.64,-1.61
37.06,-6.37,-4.74,-6.34,-4.72,4.68,4.76,5.67,-1.69,-1.66,-1.63
37.43,-6.28,-4.65,-6.28,-4.64,4.63,4.71,5.55,-1.65,-1.65,-1.63
37.81,-6.19,-4.55,-6.21,-4.57,4.59,4.66,5.44,-1.60,-1.62,-1.64
38.19,-6.15,-4.50,-6.16,-4.51,4.56,4.61,5.32,-1.59,-1.60,-1.65
38.57,-6.15,-4.49,-6.14,-4.48,4.52,4.55,5.21,-1.63,-1.62,-1.66
38.95,-6.15,-4.48,-6.15,-4.47,4.48,4.50,5.09,-1.67,-1.66,-1.67
39.34,-6.14,-4.46,-6.14,-4.46,4.44,4.45,4.98,-1.70,-1.70,-1.68
39.74,-6.13,-4.43,-6.12,-4.43,4.40,4.39,4.87,-1.73,-1.73,-1.70
40.14,-6.09,-4.40,-6.08,-4.39,4.35,4.34,4.76,-1.74,-1.74,-1.69
40.54,-6.02,-4.32,-6.02,-4.32,4.29,4.28,4.65,-1.73,-1.73,-1.70
40.94,-5.94,-4.23,-5.94,-4.24,4.23,4.23,4.55,-1.71,-1.71,-1.71
41.35,-5.87,-4.15,-5.86,-4.15,4.16,4.17,4.45,-1.71,-1.70,-1.72
41.76,-5.79,-4.07,-5.80,-4.07,4.10,4.12,4.35,-1.69,-1.70,-1.72
42.18,-5.74,-4.00,-5.75,-4.01,4.04,4.07,4.25,-1.70,-1.70,-1.74
42.60,-5.72,-3.97,-5.71,-3.97,3.99,4.01,4.16,-1.73,-1.72,-1.75
43.03,-5.70,-3.93,-5.70,-3.93,3.95,3.96,4.06,-1.75,-1.75,-1.77
43.46,-5.70,-3.91,-5.70,-3.91,3.91,3.90,3.98,-1.79,-1.79,-1.79
43.90,-5.70,-3.88,-5.70,-3.88,3.86,3.85,3.89,-1.84,-1.84,-1.82
44.33,-5.70,-3.85,-5.71,-3.86,3.81,3.79,3.81,-1.89,-1.90,-1.85
44.78,-5.70,-3.83,-5.68,-3.81,3.76,3.74,3.73,-1.94,-1.92,-1.87
45.23,-5.65,-3.75,-5.63,-3.73,3.72,3.68,3.66,-1.93,-1.91,-1.90
45.68,-5.54,-3.62,-5.56,-3.63,3.67,3.63,3.58,-1.88,-1.89,-1.92
46.13,-5.47,-3.53,-5.50,-3.56,3.61,3.57,3.51,-1.86,-1.89,-1.94
46.60,-5.47,-3.52,-5.46,-3.51,3.55,3.52,3.44,-1.92,-1.91,-1.95
47.06,-5.47,-3.51,-5.46,-3.50,3.49,3.46,3.38,-1.98,-1.98,-1.96
47.53,-5.45,-3.47,-5.45,-3.48,3.43,3.41,3.32,-2.02,-2.02,-1.98
48.01,-5.43,-3.46,-5.40,-3.43,3.38,3.35,3.26,-2.05,-2.02,-1.97
48.49,-5.34,-3.36,-5.34,-3.35,3.35,3.30,3.20,-1.99,-1.99,-1.98
48.97,-5.25,-3.25,-5.28,-3.28,3.33,3.25,3.15,-1.92,-1.95,-2.00
49.46,-5.24,-3.24,-5.24,-3.24,3.30,3.19,3.09,-1.94,-1.94,-2.00
49.96,-5.24,-3.24,-5.23,-3.23,3.28,3.14,3.04,-1.96,-1.95,-2.00
50.46,-5.24,-3.25,-5.24,-3.25,3.25,3.09,3.00,-1.99,-1.99,-1.99
50.96,-5.24,-3.25,-5.25,-3.26,3.21,3.03,2.95,-2.03,-2.04,-1.99
51.47,-5.24,-3.24,-5.24,-3.25,3.18,2.98,2.91,-2.06,-2.06,-2.00
51.99,-5.24,-3.24,-5.20,-3.20,3.15,2.93,2.87,-2.09,-2.05,-2.00
52.51,-5.12,-3.12,-5.12,-3.11,3.12,2.88,2.83,-2.00,-2.01,-2.00
53.03,-5.01,-2.99,-5.05,-3.03,3.08,2.83,2.79,-1.93,-1.98,-2.02
53.56,-5.01,-2.97,-5.00,-2.96,3.03,2.78,2.75,-1.98,-1.98,-2.04
54.10,-5.01,-2.95,-5.00,-2.94,2.97,2.73,2.71,-2.04,-2.03,-2.06
54.64,-5.01,-2.92,-5.02,-2.92,2.91,2.68,2.68,-2.10,-2.11,-2.09
55.18,-5.01,-2.89,-5.02,-2.90,2.84,2.63,2.65,-2.17,-2.18,-2.12
55.74,-5.01,-2.86,-4.99,-2.84,2.78,2.58,2.61,-2.23,-2.20,-2.15
56.29,-4.95,-2.78,-4.93,-2.75,2.72,2.53,2.58,-2.23,-2.20,-2.17
56.86,-4.82,-2.62,-4.86,-2.65,2.67,2.48,2.55,-2.15,-2.19,-2.21
57.42,-4.79,-2.54,-4.80,-2.56,2.61,2.44,2.52,-2.18,-2.19,-2.25
58.00,-4.79,-2.51,-4.78,-2.50,2.55,2.39,2.49,-2.24,-2.23,-2.28
58.58,-4.79,-2.48,-4.79,-2.48,2.49,2.34,2.46,-2.30,-2.29,-2.31
59.16,-4.79,-2.45,-4.79,-2.45,2.45,2.30,2.43,-2.34,-2.34,-2.34
59.76,-4.79,-2.42,-4.79,-2.42,2.41,2.25,2.40,-2.38,-2.38,-2.37
60.35,-4.79,-2.38,-4.79,-2.38,2.38,2.21,2.37,-2.41,-2.41,-2.41
60.96,-4.79,-2.34,-4.79,-2.34,2.33,2.17,2.34,-2.46,-2.46,-2.45
61.57,-4.79,-2.29,-4.80,-2.30,2.28,2.12,2.30,-2.51,-2.52,-2.50
62.18,-4.79,-2.25,-4.80,-2.26,2.21,2.08,2.27,-2.58,-2.59,-2.54
62.80,-4.79,-2.21,-4.75,-2.17,2.14,2.04,2.24,-2.65,-2.61,-2.57
63.43,-4.69,-2.07,-4.68,-2.06,2.06,2.00,2.21,-2.63,-2.62,-2.62
64.07,-4.56,-1.91,-4.61,-1.96,1.99,1.96,2.18,-2.57,-2.62,-2.65
64.71,-4.56,-1.87,-4.56,-1.87,1.93,1.92,2.14,-2.63,-2.63,-2.69
65.35,-4.56,-1.85,-4.55,-1.83,1.87,1.88,2.11,-2.69,-2.68,-2.71
66.01,-4.56,-1.81,-4.56,-1.81,1.82,1.84,2.08,-2.74,-2.74,-2.75
66.67,-4.56,-1.79,-4.56,-1.79,1.78,1.81,2.04,-2.78,-2.78,-2.77
67.33,-4.56,-1.76,-4.56,-1.76,1.76,1.77,2.01,-2.80,-2.80,-2.80
68.01,-4.56,-1.74,-4.56,-1.74,1.74,1.74,1.97,-2.82,-2.82,-2.82
68.69,-4.56,-1.72,-4.56,-1.72,1.72,1.71,1.94,-2.84,-2.84,-2.84
69.37,-4.56,-1.70,-4.57,-1.71,1.68,1.67,1.90,-2.88,-2.89,-2.86
70.07,-4.56,-1.68,-4.57,-1.69,1.63,1.64,1.87,-2.93,-2.93,-2.88
70.77,-4.56,-1.66,-4.52,-1.62,1.58,1.61,1.83,-2.98,-2.93,-2.90
71.48,-4.45,-1.54,-4.45,-1.53,1.54,1.58,1.80,-2.91,-2.91,-2.91
72.19,-4.33,-1.40,-4.38,-1.44,1.48,1.56,1.76,-2.85,-2.89,-2.93
72.91,-4.33,-1.37,-4.33,-1.37,1.42,1.53,1.73,-2.91,-2.90,-2.96
73.64,-4.33,-1.35,-4.32,-1.34,1.36,1.51,1.70,-2.97,-2.96,-2.98
74.38,-4.33,-1.33,-4.34,-1.34,1.30,1.49,1.66,-3.03,-3.04,-3.00
75.12,-4.33,-1.31,-4.33,-1.31,1.25,1.47,1.63,-3.08,-3.08,-3.02
75.87,-4.33,-1.28,-4.29,-1.24,1.22,1.45,1.60,-3.11,-3.07,-3.05
76.63,-4.22,-1.15,-4.23,-1.16,1.20,1.43,1.56,-3.02,-3.02,-3.07
77.40,-4.16,-1.07,-4.20,-1.12,1.20,1.42,1.53,-2.96,-3.01,-3.09
78.17,-4.20,-1.10,-4.22,-1.12,1.18,1.41,1.50,-3.02,-3.04,-3.10
78.95,-4.32,-1.22,-4.28,-1.17,1.16,1.40,1.47,-3.16,-3.11,-3.10
79.74,-4.33,-1.22,-4.33,-1.22,1.14,1.39,1.44,-3.19,-3.19,-3.11
80.54,-4.33,-1.21,-4.36,-1.24,1.13,1.39,1.41,-3.20,-3.23,-3.12
81.35,-4.33,-1.21,-4.31,-1.18,1.12,1.40,1.39,-3.21,-3.18,-3.12
82.16,-4.28,-1.16,-4.22,-1.10,1.13,1.40,1.36,-3.15,-3.09,-3.12
82.98,-4.10,-0.98,-4.16,-1.04,1.13,1.41,1.33,-2.97,-3.03,-3.12
83.81,-4.10,-0.98,-4.16,-1.04,1.14,1.43,1.31,-2.96,-3.02,-3.12
84.65,-4.25,-1.14,-4.21,-1.10,1.14,1.45,1.28,-3.11,-3.07,-3.11
85.50,-4.33,-1.23,-4.30,-1.20,1.15,1.47,1.26,-3.18,-3.15,-3.09
86.35,-4.33,-1.24,-4.34,-1.25,1.16,1.51,1.24,-3.17,-3.18,-3.09
87.22,-4.33,-1.26,-4.34,-1.26,1.19,1.54,1.22,-3.14,-3.15,-3.07
88.09,-4.33,-1.26,-4.33,-1.26,1.23,1.59,1.19,-3.10,-3.10,-3.07
88.97,-4.33,-1.28,-4.32,-1.26,1.28,1.64,1.17,-3.05,-3.04,-3.05
89.86,-4.33,-1.29,-4.33,-1.28,1.34,1.70,1.16,-2.99,-2.99,-3.04
90.76,-4.35,-1.30,-4.38,-1.34,1.41,1.77,1.14,-2.94,-2.97,-3.05
91.66,-4.49,-1.46,-4.49,-1.45,1.50,1.84,1.12,-2.99,-2.99,-3.03
92.58,-4.64,-1.60,-4.65,-1.61,1.63,1.93,1.10,-3.01,-3.02,-3.04
93.51,-4.84,-1.81,-4.81,-1.79,1.80,2.01,1.09,-3.04,-3.02,-3.03
94.44,-5.00,-1.98,-4.99,-1.96,1.98,2.10,1.07,-3.02,-3.00,-3.02
95.39,-5.13,-2.10,-5.18,-2.15,2.18,2.18,1.06,-2.95,-3.00,-3.03
96.34,-5.39,-2.35,-5.38,-2.34,2.36,2.26,1.04,-3.03,-3.01,-3.04
97.30,-5.61,-2.57,-5.59,-2.55,2.52,2.34,1.03,-3.09,-3.06,-3.04
98.28,-5.75,-2.70,-5.77,-2.73,2.65,2.39,1.02,-3.10,-3.13,-3.05
99.26,-5.89,-2.83,-5.88,-2.82,2.73,2.43,1.01,-3.16,-3.15,-3.06
100.25,-5.92,-2.86,-5.89,-2.82,2.77,2.45,1.00,-3.15,-3.11,-3.06
101.25,-5.85,-2.78,-5.84,-2.77,2.76,2.43,0.99,-3.09,-3.08,-3.07
102.27,-5.70,-2.62,-5.77,-2.68,2.70,2.39,0.97,-3.00,-3.07,-3.08
103.29,-5.70,-2.59,-5.69,-2.59,2.59,2.33,0.96,-3.11,-3.10,-3.11
104.32,-5.65,-2.52,-5.60,-2.47,2.44,2.24,0.95,-3.21,-3.15,-3.13
105.37,-5.47,-2.31,-5.47,-2.31,2.28,2.13,0.95,-3.19,-3.20,-3.16
106.42,-5.28,-2.09,-5.31,-2.11,2.11,2.00,0.94,-3.17,-3.20,-3.19
107.48,-5.14,-1.90,-5.14,-1.90,1.94,1.87,0.93,-3.20,-3.20,-3.24
108.56,-5.02,-1.73,-4.99,-1.71,1.78,1.73,0.92,-3.24,-3.21,-3.29
109.64,-4.87,-1.54,-4.89,-1.56,1.62,1.59,0.91,-3.25,-3.27,-3.33
110.74,-4.79,-1.41,-4.83,-1.45,1.46,1.45,0.90,-3.33,-3.37,-3.38
111.85,-4.79,-1.37,-4.76,-1.34,1.31,1.32,0.89,-3.48,-3.46,-3.42
112.97,-4.76,-1.27,-4.71,-1.23,1.16,1.19,0.88,-3.60,-3.54,-3.49
114.10,-4.56,-1.04,-4.62,-1.09,1.04,1.07,0.87,-3.52,-3.58,-3.52
115.24,-4.53,-0.95,-4.50,-0.92,0.93,0.95,0.86,-3.60,-3.57,-3.58
116.39,-4.40,-0.77,-4.40,-0.77,0.82,0.85,0.85,-3.58,-3.58,-3.63
117.55,-4.33,-0.65,-4.36,-0.68,0.73,0.75,0.83,-3.60,-3.63,-3.68
118.73,-4.33,-0.61,-4.32,-0.61,0.64,0.65,0.82,-3.69,-3.68,-3.72
119.92,-4.33,-0.59,-4.32,-0.58,0.57,0.56,0.81,-3.76,-3.75,-3.74
121.12,-4.33,-0.55,-4.33,-0.55,0.53,0.48,0.79,-3.80,-3.80,-3.78
122.33,-4.33,-0.52,-4.33,-0.53,0.50,0.41,0.78,-3.83,-3.83,-3.81
123.55,-4.33,-0.51,-4.32,-0.50,0.50,0.34,0.76,-3.83,-3.82,-3.82
124.79,-4.33,-0.48,-4.32,-0.48,0.51,0.27,0.75,-3.82,-3.81,-3.85
126.03,-4.33,-0.46,-4.35,-0.49,0.52,0.21,0.73,-3.81,-3.83,-3.87
127.29,-4.40,-0.51,-4.42,-0.52,0.54,0.15,0.71,-3.86,-3.88,-3.89
128.57,-4.51,-0.59,-4.49,-0.57,0.55,0.09,0.69,-3.96,-3.93,-3.92
129.85,-4.56,-0.62,-4.54,-0.60,0.57,0.04,0.67,-3.99,-3.98,-3.94
131.15,-4.56,-0.59,-4.57,-0.60,0.58,-0.01,0.65,-3.98,-3.99,-3.97
132.46,-4.56,-0.57,-4.56,-0.58,0.58,-0.05,0.63,-3.98,-3.98,-3.99
133.79,-4.56,-0.56,-4.56,-0.55,0.56,-0.10,0.61,-4.00,-4.00,-4.00
135.12,-4.56,-0.53,-4.57,-0.55,0.52,-0.14,0.58,-4.04,-4.05,-4.03
136.48,-4.56,-0.52,-4.56,-0.51,0.47,-0.18,0.56,-4.09,-4.09,-4.04
137.84,-4.56,-0.49,-4.52,-0.44,0.42,-0.22,0.53,-4.14,-4.10,-4.07
139.22,-4.44,-0.33,-4.45,-0.35,0.36,-0.25,0.51,-4.08,-4.09,-4.11
140.61,-4.35,-0.22,-4.38,-0.25,0.30,-0.29,0.48,-4.05,-4.07,-4.13
142.02,-4.33,-0.19,-4.33,-0.18,0.24,-0.32,0.45,-4.09,-4.09,-4.14
143.44,-4.33,-0.16,-4.33,-0.16,0.18,-0.35,0.42,-4.15,-4.15,-4.17
144.87,-4.33,-0.13,-4.34,-0.14,0.11,-0.39,0.39,-4.22,-4.23,-4.20
146.32,-4.33,-0.10,-4.31,-0.09,0.04,-0.42,0.37,-4.29,-4.28,-4.23
147.78,-4.28,-0.02,-4.25,0.01,-0.03,-0.45,0.34,-4.31,-4.29,-4.26
149.26,-4.16,0.13,-4.18,0.12,-0.11,-0.47,0.31,-4.27,-4.30,-4.29
150.75,-4.10,0.25,-4.13,0.22,-0.21,-0.50,0.28,-4.31,-4.33,-4.35
152.26,-4.10,0.30,-4.10,0.30,-0.31,-0.53,0.25,-4.41,-4.42,-4.40
153.78,-4.10,0.37,-4.07,0.40,-0.43,-0.56,0.21,-4.53,-4.50,-4.47
155.32,-4.05,0.48,-4.01,0.51,-0.54,-0.59,0.18,-4.59,-4.55,-4.53
156.88,-3.89,0.69,-3.94,0.65,-0.64,-0.61,0.15,-4.53,-4.58,-4.58
158.44,-3.87,0.78,-3.88,0.77,-0.72,-0.64,0.12,-4.59,-4.60,-4.65
160.03,-3.87,0.84,-3.86,0.85,-0.79,-0.66,0.09,-4.66,-4.65,-4.71
161.63,-3.87,0.88,-3.85,0.90,-0.85,-0.69,0.06,-4.72,-4.71,-4.75
163.24,-3.87,0.93,-3.88,0.91,-0.90,-0.72,0.02,-4.77,-4.78,-4.80
164.88,-3.87,0.96,-3.92,0.91,-0.93,-0.74,-0.01,-4.80,-4.85,-4.83
166.53,-4.01,0.85,-3.94,0.92,-0.95,-0.77,-0.04,-4.96,-4.89,-4.86
168.19,-3.94,0.95,-3.93,0.95,-0.97,-0.80,-0.07,-4.91,-4.91,-4.89
169.87,-3.87,1.03,-3.91,0.99,-1.00,-0.83,-0.11,-4.87,-4.91,-4.90
171.57,-3.87,1.04,-3.88,1.02,-1.04,-0.86,-0.14,-4.91,-4.92,-4.91
173.29,-3.87,1.04,-3.86,1.05,-1.08,-0.88,-0.17,-4.95,-4.94,-4.91
175.02,-3.87,1.04,-3.81,1.10,-1.12,-0.92,-0.21,-4.99,-4.93,-4.91
176.77,-3.68,1.23,-3.73,1.18,-1.16,-0.95,-0.24,-4.84,-4.89,-4.91
178.54,-3.65,1.26,-3.67,1.24,-1.20,-0.98,-0.28,-4.85,-4.86,-4.91
180.32,-3.65,1.25,-3.63,1.27,-1.22,-1.02,-0.31,-4.87,-4.86,-4.90
182.13,-3.65,1.25,-3.65,1.25,-1.25,-1.05,-0.35,-4.90,-4.89,-4.90
183.95,-3.65,1.25,-3.65,1.25,-1.26,-1.09,-0.38,-4.91,-4.91,-4.90
185.79,-3.65,1.25,-3.65,1.25,-1.27,-1.13,-0.42,-4.92,-4.92,-4.90
187.65,-3.65,1.27,-3.65,1.27,-1.28,-1.18,-0.45,-4.93,-4.93,-4.92
189.52,-3.65,1.28,-3.65,1.28,-1.28,-1.22,-0.49,-4.93,-4.93,-4.93
191.42,-3.65,1.29,-3.65,1.29,-1.28,-1.27,-0.52,-4.93,-4.93,-4.94
193.33,-3.65,1.31,-3.65,1.30,-1.30,-1.31,-0.56,-4.95,-4.95,-4.96
195.27,-3.65,1.32,-3.65,1.32,-1.32,-1.36,-0.59,-4.97,-4.97,-4.97
197.22,-3.65,1.33,-3.65,1.33,-1.36,-1.41,-0.63,-5.01,-5.01,-4.98
199.19,-3.65,1.36,-3.66,1.34,-1.39,-1.45,-0.66,-5.04,-5.05,-5.01
201.18,-3.65,1.37,-3.63,1.39,-1.42,-1.50,-0.70,-5.07,-5.04,-5.02
203.19,-3.60,1.43,-3.57,1.47,-1.44,-1.53,-0.74,-5.04,-5.01,-5.03
205.23,-3.48,1.57,-3.53,1.51,-1.47,-1.55,-0.77,-4.95,-5.00,-5.05
207.28,-3.50,1.56,-3.54,1.53,-1.49,-1.57,-0.81,-4.99,-5.02,-5.06
209.35,-3.62,1.46,-3.58,1.51,-1.50,-1.57,-0.84,-5.12,-5.08,-5.08
211.44,-3.65,1.46,-3.64,1.46,-1.50,-1.55,-0.88,-5.15,-5.14,-5.11
213.56,-3.65,1.47,-3.65,1.46,-1.50,-1.53,-0.91,-5.15,-5.15,-5.12
215.69,-3.65,1.46,-3.65,1.48,-1.48,-1.49,-0.94,-5.13,-5.13,-5.11
217.85,-3.65,1.48,-3.68,1.45,-1.45,-1.43,-0.98,-5.10,-5.13,-5.13
220.03,-3.74,1.41,-3.74,1.40,-1.40,-1.37,-1.01,-5.14,-5.15,-5.15
222.23,-3.84,1.33,-3.80,1.37,-1.34,-1.30,-1.04,-5.18,-5.14,-5.17
224.45,-3.87,1.30,-3.85,1.32,-1.27,-1.23,-1.07,-5.14,-5.12,-5.17
226.70,-3.87,1.30,-3.94,1.23,-1.20,-1.15,-1.10,-5.07,-5.13,-5.17
228.96,-4.03,1.14,-4.06,1.11,-1.10,-1.07,-1.13,-5.13,-5.16,-5.17
231.25,-4.26,0.91,-4.19,0.98,-1.00,-0.99,-1.16,-5.26,-5.19,-5.17
233.57,-4.33,0.84,-4.31,0.86,-0.90,-0.92,-1.18,-5.23,-5.21,-5.17
235.90,-4.33,0.85,-4.39,0.79,-0.81,-0.84,-1.21,-5.14,-5.20,-5.18
238.26,-4.44,0.73,-4.44,0.73,-0.73,-0.77,-1.23,-5.17,-5.18,-5.17
240.64,-4.54,0.63,-4.51,0.66,-0.67,-0.71,-1.25,-5.21,-5.18,-5.17
243.05,-4.56,0.59,-4.56,0.59,-0.62,-0.65,-1.27,-5.18,-5.18,-5.15
245.48,-4.56,0.58,-4.57,0.57,-0.58,-0.60,-1.29,-5.14,-5.15,-5.14
247.93,-4.56,0.56,-4.56,0.57,-0.55,-0.56,-1.30,-5.11,-5.11,-5.12
250.41,-4.56,0.56,-4.56,0.55,-0.52,-0.53,-1.32,-5.08,-5.08,-5.12
252.92,-4.56,0.53,-4.56,0.53,-0.51,-0.52,-1.33,-5.07,-5.07,-5.09
255.45,-4.56,0.51,-4.56,0.51,-0.51,-0.52,-1.34,-5.07,-5.07,-5.07
258.00,-4.56,0.49,-4.58,0.48,-0.52,-0.53,-1.35,-5.08,-5.09,-5.05
260.58,-4.56,0.49,-4.55,0.49,-0.53,-0.55,-1.35,-5.09,-5.07,-5.05
263.19,-4.54,0.48,-4.48,0.54,-0.54,-0.57,-1.36,-5.08,-5.03,-5.02
265.82,-4.35,0.65,-4.42,0.59,-0.57,-0.61,-1.36,-4.92,-4.98,-5.00
268.48,-4.33,0.66,-4.35,0.63,-0.61,-0.65,-1.37,-4.94,-4.96,-4.99
271.16,-4.33,0.63,-4.28,0.68,-0.66,-0.69,-1.37,-4.99,-4.95,-4.96
273.87,-4.25,0.69,-4.25,0.70,-0.73,-0.73,-1.37,-4.98,-4.98,-4.94
276.61,-4.12,0.80,-4.16,0.76,-0.80,-0.77,-1.37,-4.92,-4.97,-4.92
279.38,-4.10,0.80,-4.06,0.84,-0.87,-0.82,-1.37,-4.97,-4.93,-4.90
282.17,-3.93,0.94,-3.93,0.94,-0.93,-0.86,-1.36,-4.86,-4.86,-4.87
284.99,-3.82,1.03,-3.81,1.04,-1.00,-0.90,-1.36,-4.82,-4.81,-4.85
287.84,-3.66,1.16,-3.70,1.12,-1.06,-0.94,-1.36,-4.72,-4.76,-4.82
290.72,-3.65,1.14,-3.67,1.13,-1.12,-0.97,-1.35,-4.77,-4.79,-4.79
293.63,-3.65,1.12,-3.63,1.13,-1.17,-1.01,-1.35,-4.82,-4.81,-4.77
296.57,-3.65,1.09,-3.59,1.16,-1.20,-1.04,-1.35,-4.85,-4.79,-4.74
299.53,-3.48,1.24,-3.51,1.21,-1.21,-1.07,-1.34,-4.69,-4.72,-4.72
302.53,-3.42,1.29,-3.44,1.26,-1.20,-1.10,-1.34,-4.62,-4.64,-4.71
305.55,-3.42,1.25,-3.45,1.24,-1.18,-1.12,-1.33,-4.60,-4.62,-4.67
308.61,-3.48,1.19,-3.49,1.17,-1.14,-1.15,-1.33,-4.62,-4.63,-4.67
311.69,-3.63,1.01,-3.53,1.11,-1.11,-1.17,-1.33,-4.74,-4.64,-4.64
314.81,-3.51,1.11,-3.57,1.05,-1.08,-1.19,-1.33,-4.59,-4.65,-4.62
317.96,-3.57,1.04,-3.60,1.02,-1.05,-1.22,-1.32,-4.62,-4.65,-4.61
321.14,-3.65,0.96,-3.62,0.99,-1.03,-1.23,-1.32,-4.68,-4.65,-4.61
324.35,-3.65,0.97,-3.64,0.97,-1.02,-1.25,-1.32,-4.67,-4.66,-4.62
327.59,-3.61,0.99,-3.58,1.02,-1.04,-1.27,-1.32,-4.65,-4.62,-4.60
330.87,-3.47,1.12,-3.50,1.09,-1.07,-1.29,-1.32,-4.54,-4.58,-4.59
334.18,-3.42,1.17,-3.46,1.13,-1.12,-1.30,-1.33,-4.54,-4.57,-4.59
337.52,-3.42,1.15,-3.41,1.17,-1.16,-1.32,-1.33,-4.58,-4.57,-4.57
340.90,-3.42,1.13,-3.35,1.20,-1.20,-1.34,-1.33,-4.62,-4.55,-4.55
344.30,-3.24,1.29,-3.28,1.25,-1.23,-1.35,-1.34,-4.47,-4.51,-4.53
347.75,-3.19,1.33,-3.22,1.30,-1.26,-1.36,-1.34,-4.45,-4.47,-4.52
351.23,-3.19,1.31,-3.18,1.32,-1.28,-1.38,-1.35,-4.47,-4.46,-4.50
354.74,-3.19,1.29,-3.20,1.28,-1.30,-1.39,-1.36,-4.49,-4.50,-4.48
358.28,-3.19,1.26,-3.19,1.26,-1.32,-1.41,-1.37,-4.51,-4.51,-4.45
361.87,-3.19,1.24,-3.13,1.29,-1.33,-1.42,-1.38,-4.52,-4.47,-4.43
365.49,-3.03,1.37,-3.06,1.34,-1.34,-1.43,-1.39,-4.37,-4.40,-4.40
369.14,-2.97,1.42,-2.99,1.40,-1.35,-1.44,-1.40,-4.32,-4.34,-4.39
372.83,-2.96,1.41,-2.95,1.42,-1.37,-1.46,-1.41,-4.33,-4.32,-4.37
376.56,-2.96,1.40,-2.97,1.38,-1.39,-1.47,-1.43,-4.35,-4.36,-4.36
380.33,-2.96,1.37,-2.96,1.37,-1.41,-1.48,-1.44,-4.37,-4.37,-4.33
384.13,-2.96,1.35,-2.91,1.41,-1.44,-1.49,-1.46,-4.40,-4.35,-4.31
387.97,-2.81,1.50,-2.84,1.46,-1.47,-1.50,-1.48,-4.28,-4.31,-4.31
391.85,-2.75,1.55,-2.78,1.51,-1.50,-1.51,-1.49,-4.25,-4.28,-4.30
395.77,-2.74,1.54,-2.74,1.55,-1.54,-1.53,-1.51,-4.28,-4.27,-4.28
399.73,-2.74,1.53,-2.70,1.57,-1.57,-1.54,-1.53,-4.31,-4.28,-4.27
403.72,-2.65,1.61,-2.64,1.62,-1.61,-1.55,-1.55,-4.26,-4.26,-4.26
407.76,-2.54,1.71,-2.57,1.68,-1.65,-1.56,-1.57,-4.19,-4.23,-4.25
411.84,-2.51,1.73,-2.52,1.72,-1.70,-1.57,-1.59,-4.21,-4.21,-4.24
415.96,-2.51,1.72,-2.51,1.72,-1.74,-1.58,-1.62,-4.25,-4.25,-4.23
420.12,-2.51,1.71,-2.50,1.73,-1.78,-1.60,-1.64,-4.29,-4.28,-4.22
424.32,-2.49,1.73,-2.44,1.78,-1.81,-1.61,-1.66,-4.30,-4.26,-4.22
428.56,-2.34,1.87,-2.37,1.85,-1.84,-1.62,-1.68,-4.18,-4.21,-4.21
432.85,-2.28,1.93,-2.31,1.91,-1.86,-1.63,-1.71,-4.14,-4.16,-4.22
437.18,-2.28,1.93,-2.27,1.94,-1.88,-1.64,-1.73,-4.16,-4.14,-4.21
