frequency,raw,error,smoothed,error_smoothed,equalization,parametric_eq,fixed_band_eq,equalized_raw,equalized_smoothed,target
20.00,11.52,5.44,11.52,5.43,-5.43,-4.52,-4.08,6.09,6.08,6.08
20.20,11.57,5.49,11.57,5.49,-5.49,-4.61,-4.19,6.08,6.08,6.08
20.40,11.63,5.56,11.63,5.55,-5.55,-4.70,-4.30,6.07,6.07,6.07
20.61,11.69,5.62,11.69,5.62,-5.62,-4.79,-4.42,6.07,6.07,6.07
20.81,11.75,5.69,11.75,5.68,-5.68,-4.89,-4.53,6.06,6.06,6.06
21.02,11.81,5.75,11.81,5.75,-5.75,-4.98,-4.65,6.06,6.06,6.06
21.23,11.87,5.82,11.87,5.82,-5.82,-5.08,-4.78,6.05,6.05,6.05
21.44,11.94,5.89,11.94,5.89,-5.89,-5.18,-4.91,6.05,6.05,6.05
21.66,12.01,5.97,12.01,5.97,-5.97,-5.28,-5.04,6.04,6.04,6.04
21.87,12.08,6.04,12.08,6.04,-6.04,-5.38,-5.17,6.04,6.04,6.04
22.09,12.15,6.12,12.15,6.12,-6.12,-5.49,-5.31,6.03,6.03,6.03
22.31,12.22,6.19,12.22,6.19,-6.19,-5.59,-5.45,6.03,6.03,6.03
22.54,12.30,6.27,12.29,6.27,-6.27,-5.70,-5.60,6.02,6.02,6.03
22.76,12.37,6.35,12.37,6.35,-6.35,-5.81,-5.74,6.02,6.02,6.02
22.99,12.45,6.43,12.45,6.43,-6.43,-5.92,-5.90,6.01,6.02,6.02
23.22,12.53,6.52,12.52,6.51,-6.51,-6.03,-6.05,6.01,6.01,6.01
23.45,12.60,6.59,12.60,6.60,-6.59,-6.14,-6.21,6.00,6.01,6.01
23.69,12.68,6.67,12.68,6.68,-6.68,-6.26,-6.37,6.00,6.00,6.00
23.92,12.76,6.77,12.76,6.76,-6.76,-6.38,-6.54,6.00,6.00,5.99
24.16,12.84,6.85,12.84,6.84,-6.84,-6.49,-6.71,6.00,5.99,5.99
24.40,12.91,6.92,12.92,6.92,-6.93,-6.61,-6.88,5.98,5.99,5.99
24.65,13.00,7.01,13.00,7.01,-7.01,-6.74,-7.06,5.99,5.99,5.99
24.89,13.08,7.10,13.08,7.09,-7.09,-6.86,-7.23,5.99,5.99,5.98
25.14,13.16,7.18,13.16,7.18,-7.18,-6.98,-7.42,5.98,5.98,5.98
25.39,13.25,7.27,13.25,7.27,-7.27,-7.11,-7.60,5.98,5.98,5.98
25.65,13.33,7.35,13.33,7.35,-7.35,-7.24,-7.78,5.97,5.98,5.98
25.91,13.42,7.44,13.42,7.44,-7.44,-7.36,-7.97,5.97,5.98,5.98
26.16,13.51,7.53,13.51,7.53,-7.53,-7.49,-8.15,5.98,5.98,5.98
26.43,13.60,7.62,13.60,7.62,-7.62,-7.62,-8.34,5.97,5.97,5.98
26.69,13.69,7.72,13.69,7.72,-7.71,-7.75,-8.52,5.97,5.97,5.97
26.96,13.77,7.80,13.77,7.81,-7.81,-7.88,-8.71,5.96,5.97,5.96
27.23,13.87,7.90,13.86,7.90,-7.90,-8.01,-8.89,5.97,5.96,5.96
27.50,13.95,7.99,13.95,7.99,-7.99,-8.14,-9.07,5.96,5.96,5.96
27.77,14.04,8.08,14.04,8.08,-8.09,-8.27,-9.24,5.95,5.96,5.96
28.05,14.14,8.19,14.13,8.18,-8.18,-8.40,-9.41,5.96,5.95,5.95
28.33,14.22,8.27,14.22,8.27,-8.27,-8.53,-9.57,5.94,5.95,5.95
28.62,14.32,8.37,14.31,8.37,-8.37,-8.66,-9.72,5.95,5.94,5.95
28.90,14.40,8.46,14.40,8.46,-8.47,-8.79,-9.86,5.93,5.94,5.94
29.19,14.50,8.56,14.49,8.56,-8.56,-8.91,-9.99,5.94,5.93,5.93
29.48,14.58,8.65,14.58,8.65,-8.65,-9.03,-10.11,5.92,5.93,5.93
29.78,14.68,8.76,14.67,8.75,-8.75,-9.15,-10.21,5.93,5.93,5.92
30.08,14.76,8.84,14.76,8.84,-8.84,-9.27,-10.30,5.92,5.92,5.92
30.38,14.85,8.93,14.84,8.93,-8.93,-9.39,-10.38,5.92,5.92,5.92
30.68,14.93,9.01,14.93,9.01,-9.01,-9.50,-10.43,5.92,5.92,5.92
30.99,15.01,9.09,15.01,9.10,-9.10,-9.61,-10.48,5.91,5.92,5.91
31.30,15.10,9.18,15.09,9.18,-9.18,-9.71,-10.50,5.92,5.91,5.91
31.61,15.18,9.26,15.17,9.26,-9.26,-9.81,-10.50,5.92,5.92,5.92
31.93,15.25,9.33,15.25,9.33,-9.34,-9.90,-10.49,5.91,5.92,5.92
32.24,15.33,9.41,15.33,9.41,-9.41,-9.98,-10.46,5.92,5.91,5.92
32.57,15.40,9.48,15.40,9.49,-9.48,-10.06,-10.42,5.91,5.92,5.91
32.89,15.47,9.56,15.47,9.56,-9.56,-10.14,-10.36,5.91,5.91,5.91
33.22,15.54,9.63,15.53,9.62,-9.62,-10.20,-10.29,5.92,5.91,5.91
33.55,15.59,9.68,15.59,9.69,-9.69,-10.26,-10.20,5.90,5.91,5.91
33.89,15.65,9.74,15.65,9.75,-9.75,-10.31,-10.10,5.90,5.90,5.90
34.23,15.70,9.81,15.70,9.80,-9.80,-10.35,-9.99,5.89,5.89,5.89
34.57,15.75,9.86,15.74,9.86,-9.86,-10.39,-9.88,5.89,5.89,5.89
34.92,15.78,9.90,15.78,9.91,-9.90,-10.41,-9.75,5.88,5.88,5.88
35.27,15.81,9.94,15.81,9.95,-9.94,-10.43,-9.62,5.86,5.87,5.86
35.62,15.84,9.99,15.83,9.98,-9.98,-10.43,-9.49,5.86,5.85,5.85
35.97,15.85,10.00,15.85,10.01,-10.01,-10.43,-9.35,5.83,5.84,5.85
36.33,15.87,10.04,15.87,10.04,-10.04,-10.42,-9.21,5.83,5.82,5.83
36.70,15.87,10.06,15.87,10.06,-10.06,-10.40,-9.07,5.81,5.81,5.81
37.06,15.88,10.08,15.88,10.08,-10.08,-10.38,-8.93,5.80,5.80,5.80
37.43,15.87,10.09,15.87,10.09,-10.08,-10.34,-8.78,5.79,5.79,5.78
37.81,15.86,10.09,15.86,10.09,-10.08,-10.30,-8.64,5.78,5.77,5.77
38.19,15.83,10.07,15.83,10.08,-10.08,-10.25,-8.50,5.75,5.76,5.75
38.57,15.81,10.06,15.80,10.06,-10.06,-10.19,-8.37,5.75,5.75,5.75
38.95,15.77,10.03,15.77,10.03,-10.04,-10.13,-8.23,5.73,5.73,5.74
39.34,15.73,10.01,15.73,10.00,-10.00,-10.06,-8.10,5.72,5.73,5.72
39.74,15.68,9.96,15.68,9.96,-9.96,-9.98,-7.97,5.72,5.71,5.72
40.14,15.62,9.92,15.62,9.91,-9.91,-9.90,-7.85,5.70,5.70,5.70
40.54,15.55,9.85,15.55,9.86,-9.86,-9.82,-7.73,5.69,5.69,5.70
40.94,15.49,9.80,15.49,9.80,-9.80,-9.73,-7.62,5.69,5.69,5.69
41.35,15.42,9.73,15.42,9.73,-9.73,-9.64,-7.50,5.69,5.69,5.68
41.76,15.34,9.66,15.34,9.66,-9.66,-9.54,-7.40,5.68,5.68,5.68
42.18,15.25,9.58,15.25,9.57,-9.58,-9.45,-7.30,5.67,5.67,5.67
42.60,15.15,9.48,15.15,9.49,-9.49,-9.35,-7.20,5.66,5.66,5.67
43.03,15.06,9.40,15.06,9.40,-9.40,-9.25,-7.11,5.66,5.66,5.66
43.46,14.96,9.31,14.96,9.30,-9.30,-9.15,-7.02,5.66,5.66,5.65
43.90,14.86,9.21,14.85,9.20,-9.20,-9.05,-6.94,5.66,5.65,5.65
44.33,14.74,9.09,14.74,9.10,-9.10,-8.94,-6.86,5.64,5.65,5.65
44.78,14.63,8.99,14.63,8.99,-8.99,-8.84,-6.79,5.64,5.64,5.64
45.23,14.51,8.88,14.51,8.87,-8.87,-8.74,-6.72,5.63,5.63,5.63
45.68,14.39,8.75,14.39,8.76,-8.76,-8.64,-6.65,5.63,5.63,5.63
46.13,14.27,8.64,14.27,8.64,-8.64,-8.54,-6.60,5.62,5.62,5.63
46.60,14.14,8.52,14.14,8.52,-8.52,-8.43,-6.54,5.61,5.62,5.62
47.06,14.02,8.41,14.02,8.41,-8.41,-8.33,-6.49,5.61,5.61,5.61
47.53,13.89,8.29,13.88,8.29,-8.29,-8.23,-6.45,5.60,5.60,5.60
48.01,13.75,8.16,13.75,8.17,-8.17,-8.13,-6.40,5.58,5.59,5.59
48.49,13.62,8.05,13.62,8.05,-8.05,-8.03,-6.37,5.57,5.57,5.57
48.97,13.49,7.93,13.49,7.93,-7.93,-7.93,-6.33,5.56,5.56,5.56
49.46,13.35,7.80,13.35,7.81,-7.81,-7.83,-6.30,5.54,5.55,5.55
49.96,13.22,7.69,13.21,7.68,-7.68,-7.73,-6.28,5.54,5.53,5.53
50.46,13.07,7.56,13.07,7.56,-7.56,-7.62,-6.25,5.51,5.51,5.51
50.96,12.93,7.44,12.93,7.44,-7.44,-7.51,-6.23,5.49,5.49,5.49
51.47,12.80,7.32,12.79,7.32,-7.32,-7.41,-6.21,5.48,5.47,5.48
51.99,12.66,7.20,12.66,7.20,-7.20,-7.29,-6.20,5.46,5.46,5.46
52.51,12.52,7.08,12.52,7.08,-7.08,-7.18,-6.18,5.44,5.44,5.44
53.03,12.38,6.95,12.38,6.96,-6.96,-7.06,-6.17,5.42,5.42,5.43
53.56,12.24,6.83,12.24,6.83,-6.83,-6.94,-6.16,5.40,5.41,5.40
54.10,12.11,6.72,12.10,6.71,-6.71,-6.81,-6.15,5.40,5.39,5.39
54.64,11.96,6.59,11.96,6.59,-6.59,-6.69,-6.14,5.37,5.38,5.37
55.18,11.83,6.47,11.83,6.47,-6.46,-6.56,-6.12,5.36,5.36,5.36
55.74,11.69,6.34,11.69,6.34,-6.34,-6.43,-6.11,5.35,5.34,5.35
56.29,11.55,6.21,11.55,6.22,-6.22,-6.30,-6.10,5.33,5.33,5.33
56.86,11.41,6.09,11.41,6.09,-6.10,-6.17,-6.09,5.31,5.31,5.32
57.42,11.28,5.98,11.28,5.98,-5.98,-6.04,-6.07,5.30,5.30,5.30
58.00,11.14,5.86,11.14,5.86,-5.86,-5.92,-6.05,5.28,5.28,5.28
58.58,11.01,5.75,11.01,5.75,-5.74,-5.79,-6.03,5.26,5.26,5.26
59.16,10.87,5.63,10.87,5.63,-5.63,-5.66,-6.00,5.24,5.24,5.24
59.76,10.74,5.52,10.74,5.52,-5.52,-5.54,-5.98,5.22,5.22,5.22
60.35,10.60,5.40,10.60,5.41,-5.41,-5.42,-5.94,5.19,5.19,5.20
60.96,10.47,5.31,10.47,5.30,-5.30,-5.30,-5.91,5.17,5.17,5.16
61.57,10.34,5.20,10.34,5.20,-5.20,-5.18,-5.86,5.14,5.14,5.14
62.18,10.21,5.09,10.21,5.09,-5.10,-5.07,-5.82,5.11,5.11,5.12
62.80,10.08,4.99,10.08,4.99,-4.99,-4.96,-5.77,5.08,5.08,5.08
63.43,9.95,4.89,9.95,4.90,-4.89,-4.85,-5.71,5.05,5.06,5.06
64.07,9.83,4.81,9.83,4.80,-4.80,-4.74,-5.65,5.03,5.03,5.02
64.71,9.70,4.70,9.70,4.70,-4.70,-4.64,-5.59,5.00,5.00,5.00
65.35,9.57,4.60,9.57,4.60,-4.60,-4.54,-5.52,4.97,4.97,4.97
66.01,9.44,4.50,9.44,4.50,-4.50,-4.44,-5.44,4.94,4.94,4.94
66.67,9.32,4.41,9.31,4.40,-4.41,-4.34,-5.37,4.91,4.91,4.91
67.33,9.19,4.31,9.19,4.31,-4.31,-4.24,-5.28,4.88,4.88,4.88
68.01,9.07,4.22,9.07,4.22,-4.22,-4.15,-5.20,4.85,4.85,4.85
68.69,8.95,4.13,8.94,4.12,-4.13,-4.06,-5.11,4.82,4.82,4.82
69.37,8.82,4.03,8.82,4.03,-4.03,-3.97,-5.02,4.78,4.79,4.79
70.07,8.70,3.94,8.70,3.95,-3.95,-3.89,-4.93,4.75,4.75,4.75
70.77,8.58,3.86,8.57,3.86,-3.86,-3.80,-4.83,4.72,4.72,4.72
71.48,8.45,3.77,8.45,3.77,-3.77,-3.72,-4.73,4.68,4.68,4.68
72.19,8.32,3.68,8.32,3.69,-3.68,-3.64,-4.63,4.64,4.64,4.64
72.91,8.21,3.60,8.20,3.60,-3.60,-3.56,-4.53,4.61,4.61,4.60
73.64,8.08,3.51,8.08,3.51,-3.51,-3.48,-4.43,4.57,4.57,4.57
74.38,7.96,3.42,7.96,3.42,-3.42,-3.40,-4.33,4.53,4.53,4.54
75.12,7.84,3.34,7.84,3.34,-3.34,-3.33,-4.23,4.50,4.50,4.50
75.87,7.72,3.26,7.72,3.26,-3.26,-3.25,-4.13,4.46,4.46,4.46
76.63,7.60,3.18,7.60,3.18,-3.18,-3.18,-4.03,4.42,4.42,4.42
77.40,7.48,3.10,7.48,3.10,-3.10,-3.11,-3.93,4.38,4.38,4.38
78.17,7.36,3.02,7.36,3.02,-3.02,-3.04,-3.83,4.33,4.33,4.33
78.95,7.24,2.95,7.24,2.95,-2.95,-2.97,-3.73,4.29,4.29,4.29
79.74,7.13,2.88,7.12,2.88,-2.88,-2.90,-3.63,4.25,4.25,4.25
80.54,7.01,2.81,7.01,2.80,-2.80,-2.83,-3.54,4.21,4.21,4.20
81.35,6.90,2.73,6.89,2.73,-2.73,-2.77,-3.44,4.17,4.17,4.17
82.16,6.78,2.66,6.78,2.66,-2.66,-2.70,-3.35,4.12,4.12,4.12
82.98,6.66,2.58,6.66,2.58,-2.58,-2.64,-3.26,4.07,4.08,4.07
83.81,6.55,2.51,6.54,2.51,-2.51,-2.57,-3.17,4.04,4.03,4.04
84.65,6.43,2.44,6.43,2.44,-2.44,-2.51,-3.08,3.99,3.99,3.99
85.50,6.31,2.37,6.31,2.37,-2.37,-2.45,-2.99,3.94,3.94,3.94
86.35,6.20,2.30,6.19,2.30,-2.30,-2.39,-2.91,3.89,3.89,3.90
87.22,6.08,2.23,6.08,2.23,-2.24,-2.33,-2.83,3.84,3.84,3.85
88.09,5.97,2.17,5.97,2.17,-2.17,-2.27,-2.75,3.80,3.80,3.79
88.97,5.86,2.11,5.86,2.11,-2.11,-2.21,-2.67,3.75,3.75,3.75
89.86,5.76,2.06,5.75,2.05,-2.05,-2.16,-2.59,3.71,3.70,3.70
90.76,5.64,1.98,5.64,1.99,-1.99,-2.10,-2.51,3.65,3.65,3.66
91.66,5.53,1.93,5.53,1.93,-1.93,-2.04,-2.44,3.60,3.60,3.60
92.58,5.43,1.88,5.42,1.87,-1.87,-1.99,-2.37,3.55,3.55,3.55
93.51,5.32,1.82,5.32,1.82,-1.82,-1.94,-2.30,3.50,3.50,3.50
94.44,5.22,1.77,5.22,1.77,-1.77,-1.88,-2.23,3.45,3.45,3.45
95.39,5.12,1.73,5.11,1.72,-1.72,-1.83,-2.16,3.40,3.39,3.39
96.34,5.01,1.67,5.01,1.68,-1.68,-1.78,-2.10,3.33,3.33,3.34
97.30,4.91,1.63,4.91,1.63,-1.64,-1.74,-2.04,3.27,3.28,3.28
98.28,4.82,1.60,4.81,1.60,-1.60,-1.69,-1.98,3.22,3.22,3.22
99.26,4.72,1.56,4.72,1.56,-1.56,-1.65,-1.92,3.16,3.16,3.15
100.25,4.63,1.53,4.63,1.53,-1.53,-1.60,-1.86,3.10,3.10,3.10
101.25,4.54,1.50,4.54,1.50,-1.50,-1.56,-1.80,3.04,3.04,3.04
102.27,4.45,1.48,4.45,1.47,-1.47,-1.52,-1.75,2.98,2.98,2.97
103.29,4.36,1.44,4.36,1.45,-1.44,-1.49,-1.70,2.91,2.91,2.91
104.32,4.27,1.42,4.27,1.42,-1.42,-1.45,-1.65,2.85,2.85,2.85
105.37,4.18,1.39,4.18,1.39,-1.39,-1.42,-1.60,2.79,2.79,2.79
106.42,4.10,1.37,4.10,1.37,-1.36,-1.39,-1.56,2.73,2.73,2.73
107.48,4.01,1.34,4.01,1.34,-1.34,-1.36,-1.51,2.67,2.67,2.67
108.56,3.93,1.32,3.92,1.31,-1.31,-1.34,-1.47,2.61,2.61,2.61
109.64,3.84,1.29,3.84,1.29,-1.29,-1.32,-1.43,2.54,2.55,2.55
110.74,3.76,1.27,3.76,1.27,-1.27,-1.30,-1.39,2.48,2.49,2.49
111.85,3.69,1.27,3.68,1.26,-1.26,-1.29,-1.36,2.43,2.42,2.42
112.97,3.61,1.24,3.61,1.25,-1.25,-1.28,-1.33,2.36,2.36,2.37
114.10,3.55,1.25,3.55,1.24,-1.25,-1.27,-1.30,2.30,2.30,2.30
115.24,3.48,1.24,3.48,1.24,-1.25,-1.26,-1.27,2.23,2.23,2.24
116.39,3.42,1.25,3.42,1.25,-1.25,-1.26,-1.24,2.17,2.17,2.17
117.55,3.36,1.26,3.36,1.26,-1.26,-1.26,-1.22,2.10,2.10,2.10
118.73,3.31,1.27,3.31,1.27,-1.27,-1.27,-1.20,2.04,2.04,2.04
119.92,3.25,1.29,3.25,1.28,-1.28,-1.27,-1.19,1.97,1.97,1.96
121.12,3.19,1.30,3.19,1.30,-1.30,-1.28,-1.17,1.89,1.89,1.89
122.33,3.13,1.31,3.13,1.32,-1.31,-1.30,-1.16,1.81,1.82,1.81
123.55,3.08,1.34,3.07,1.33,-1.33,-1.31,-1.15,1.75,1.74,1.74
124.79,3.02,1.35,3.02,1.35,-1.35,-1.33,-1.15,1.67,1.66,1.67
126.03,2.96,1.37,2.96,1.37,-1.37,-1.35,-1.15,1.59,1.59,1.59
127.29,2.91,1.39,2.91,1.39,-1.39,-1.37,-1.15,1.51,1.51,1.52
128.57,2.87,1.42,2.86,1.42,-1.42,-1.40,-1.15,1.45,1.44,1.45
129.85,2.82,1.44,2.82,1.44,-1.44,-1.43,-1.16,1.37,1.38,1.38
131.15,2.79,1.47,2.79,1.47,-1.47,-1.45,-1.17,1.32,1.32,1.32
132.46,2.76,1.50,2.76,1.50,-1.50,-1.48,-1.18,1.26,1.26,1.26
133.79,2.73,1.53,2.73,1.53,-1.53,-1.52,-1.19,1.20,1.20,1.20
135.12,2.71,1.56,2.71,1.56,-1.56,-1.55,-1.21,1.15,1.15,1.14
136.48,2.69,1.59,2.69,1.60,-1.59,-1.58,-1.23,1.10,1.10,1.10
137.84,2.68,1.63,2.67,1.63,-1.62,-1.62,-1.25,1.05,1.05,1.04
139.22,2.66,1.66,2.66,1.66,-1.66,-1.66,-1.28,1.00,1.00,1.00
140.61,2.64,1.68,2.65,1.69,-1.69,-1.70,-1.31,0.95,0.96,0.96
142.02,2.64,1.73,2.63,1.72,-1.72,-1.74,-1.34,0.92,0.91,0.91
143.44,2.63,1.76,2.63,1.76,-1.76,-1.78,-1.37,0.87,0.87,0.87
144.87,2.62,1.79,2.62,1.79,-1.79,-1.82,-1.41,0.83,0.83,0.83
146.32,2.62,1.83,2.62,1.83,-1.83,-1.86,-1.44,0.79,0.79,0.79
147.78,2.63,1.87,2.62,1.87,-1.86,-1.90,-1.48,0.76,0.76,0.76
149.26,2.63,1.91,2.63,1.91,-1.90,-1.95,-1.52,0.72,0.72,0.72
150.75,2.63,1.94,2.63,1.95,-1.95,-1.99,-1.56,0.68,0.68,0.69
152.26,2.64,1.99,2.64,1.99,-1.99,-2.04,-1.61,0.65,0.65,0.65
153.78,2.65,2.04,2.65,2.04,-2.04,-2.09,-1.66,0.61,0.61,0.61
155.32,2.67,2.09,2.66,2.09,-2.09,-2.13,-1.70,0.58,0.58,0.58
156.88,2.68,2.13,2.68,2.14,-2.14,-2.18,-1.75,0.54,0.54,0.54
158.44,2.70,2.19,2.70,2.19,-2.19,-2.23,-1.81,0.51,0.51,0.51
160.03,2.73,2.25,2.72,2.25,-2.25,-2.29,-1.86,0.48,0.48,0.48
161.63,2.75,2.30,2.75,2.31,-2.30,-2.34,-1.92,0.45,0.45,0.45
163.24,2.78,2.36,2.78,2.36,-2.36,-2.39,-1.97,0.42,0.42,0.42
164.88,2.81,2.42,2.81,2.42,-2.42,-2.45,-2.03,0.39,0.39,0.39
166.53,2.84,2.47,2.84,2.48,-2.47,-2.50,-2.09,0.36,0.36,0.37
168.19,2.87,2.53,2.87,2.53,-2.53,-2.56,-2.16,0.34,0.34,0.34
169.87,2.91,2.60,2.90,2.59,-2.59,-2.62,-2.22,0.32,0.31,0.31
171.57,2.94,2.64,2.94,2.65,-2.65,-2.68,-2.29,0.29,0.29,0.29
173.29,2.98,2.71,2.98,2.71,-2.71,-2.75,-2.36,0.27,0.27,0.27
175.02,3.02,2.78,3.02,2.77,-2.77,-2.81,-2.43,0.25,0.24,0.24
176.77,3.06,2.83,3.06,2.84,-2.84,-2.88,-2.50,0.22,0.23,0.23
178.54,3.11,2.90,3.11,2.90,-2.90,-2.94,-2.57,0.20,0.21,0.20
180.32,3.17,2.98,3.16,2.97,-2.97,-3.01,-2.65,0.19,0.18,0.19
182.13,3.21,3.04,3.21,3.05,-3.05,-3.09,-2.72,0.16,0.17,0.17
183.95,3.27,3.12,3.27,3.12,-3.12,-3.16,-2.80,0.15,0.15,0.15
185.79,3.34,3.20,3.33,3.20,-3.20,-3.23,-2.88,0.14,0.13,0.14
187.65,3.40,3.28,3.40,3.28,-3.28,-3.31,-2.96,0.11,0.11,0.12
189.52,3.46,3.36,3.46,3.36,-3.37,-3.39,-3.05,0.09,0.10,0.10
191.42,3.53,3.44,3.53,3.45,-3.45,-3.46,-3.13,0.08,0.08,0.09
193.33,3.61,3.54,3.60,3.54,-3.53,-3.54,-3.22,0.07,0.07,0.07
195.27,3.67,3.62,3.67,3.62,-3.62,-3.62,-3.31,0.05,0.05,0.05
197.22,3.74,3.71,3.74,3.70,-3.70,-3.70,-3.40,0.04,0.04,0.03
199.19,3.80,3.77,3.80,3.78,-3.78,-3.78,-3.49,0.02,0.02,0.03
201.18,3.87,3.86,3.87,3.86,-3.86,-3.86,-3.58,0.01,0.01,0.01
203.19,3.93,3.93,3.93,3.93,-3.93,-3.93,-3.67,-0.00,-0.01,-0.01
205.23,3.98,4.00,3.98,4.00,-4.00,-4.01,-3.76,-0.03,-0.02,-0.02
207.28,4.04,4.07,4.03,4.07,-4.07,-4.08,-3.85,-0.03,-0.04,-0.04
209.35,4.08,4.13,4.08,4.13,-4.13,-4.15,-3.94,-0.06,-0.05,-0.05
211.44,4.13,4.19,4.13,4.19,-4.19,-4.21,-4.03,-0.06,-0.06,-0.06
213.56,4.18,4.26,4.17,4.25,-4.25,-4.27,-4.12,-0.07,-0.08,-0.08
215.69,4.21,4.30,4.21,4.30,-4.30,-4.32,-4.21,-0.09,-0.09,-0.09
217.85,4.24,4.34,4.24,4.34,-4.34,-4.37,-4.30,-0.10,-0.10,-0.10
220.03,4.27,4.38,4.27,4.38,-4.38,-4.41,-4.38,-0.11,-0.11,-0.11
222.23,4.29,4.41,4.29,4.41,-4.41,-4.45,-4.47,-0.13,-0.13,-0.13
224.45,4.31,4.45,4.31,4.44,-4.45,-4.48,-4.55,-0.14,-0.14,-0.14
226.70,4.32,4.47,4.32,4.47,-4.47,-4.51,-4.62,-0.15,-0.15,-0.15
228.96,4.34,4.50,4.34,4.50,-4.50,-4.53,-4.69,-0.16,-0.16,-0.16
231.25,4.35,4.52,4.35,4.52,-4.52,-4.55,-4.76,-0.17,-0.17,-0.17
233.57,4.36,4.55,4.36,4.54,-4.54,-4.56,-4.82,-0.18,-0.18,-0.19
235.90,4.36,4.56,4.36,4.55,-4.56,-4.57,-4.88,-0.20,-0.20,-0.20
238.26,4.36,4.56,4.36,4.57,-4.57,-4.58,-4.93,-0.21,-0.21,-0.21
240.64,4.36,4.58,4.36,4.58,-4.58,-4.59,-4.98,-0.22,-0.22,-0.22
243.05,4.37,4.60,4.36,4.59,-4.59,-4.59,-5.02,-0.23,-0.23,-0.23
245.48,4.36,4.60,4.36,4.60,-4.60,-4.60,-5.05,-0.24,-0.24,-0.24
247.93,4.36,4.61,4.36,4.61,-4.61,-4.60,-5.08,-0.25,-0.25,-0.25
250.41,4.36,4.61,4.35,4.61,-4.61,-4.61,-5.10,-0.26,-0.26,-0.26
252.92,4.35,4.62,4.35,4.62,-4.62,-4.61,-5.12,-0.27,-0.27,-0.27
255.45,4.34,4.62,4.34,4.62,-4.62,-4.61,-5.12,-0.28,-0.28,-0.28
258.00,4.33,4.61,4.33,4.62,-4.62,-4.62,-5.13,-0.30,-0.29,-0.29
260.58,4.33,4.63,4.33,4.63,-4.63,-4.62,-5.12,-0.30,-0.30,-0.30
263.19,4.32,4.63,4.32,4.63,-4.63,-4.63,-5.11,-0.31,-0.31,-0.31
265.82,4.31,4.63,4.31,4.63,-4.63,-4.64,-5.09,-0.32,-0.32,-0.32
268.48,4.29,4.62,4.29,4.62,-4.63,-4.64,-5.07,-0.34,-0.33,-0.33
271.16,4.28,4.62,4.28,4.62,-4.62,-4.65,-5.05,-0.35,-0.34,-0.35
273.87,4.27,4.62,4.27,4.62,-4.62,-4.66,-5.02,-0.35,-0.35,-0.35
276.61,4.26,4.62,4.26,4.62,-4.62,-4.66,-4.98,-0.36,-0.36,-0.37
279.38,4.24,4.61,4.24,4.62,-4.62,-4.67,-4.94,-0.38,-0.37,-0.37
282.17,4.23,4.61,4.22,4.61,-4.61,-4.68,-4.90,-0.39,-0.39,-0.39
284.99,4.21,4.61,4.21,4.61,-4.61,-4.68,-4.86,-0.40,-0.40,-0.40
287.84,4.19,4.60,4.19,4.61,-4.61,-4.69,-4.82,-0.42,-0.41,-0.41
290.72,4.19,4.62,4.18,4.61,-4.61,-4.69,-4.77,-0.42,-0.42,-0.43
293.63,4.17,4.60,4.17,4.61,-4.60,-4.70,-4.73,-0.44,-0.43,-0.43
296.57,4.16,4.61,4.16,4.60,-4.60,-4.70,-4.68,-0.44,-0.44,-0.45
299.53,4.14,4.60,4.14,4.59,-4.60,-4.70,-4.63,-0.46,-0.46,-0.46
302.53,4.12,4.58,4.12,4.59,-4.59,-4.69,-4.59,-0.47,-0.47,-0.46
305.55,4.11,4.59,4.11,4.58,-4.59,-4.68,-4.54,-0.48,-0.48,-0.48
308.61,4.10,4.58,4.10,4.58,-4.58,-4.67,-4.50,-0.48,-0.48,-0.48
311.69,4.09,4.57,4.09,4.58,-4.57,-4.66,-4.46,-0.48,-0.48,-0.48
314.81,4.08,4.58,4.08,4.57,-4.57,-4.64,-4.42,-0.49,-0.49,-0.50
317.96,4.06,4.56,4.06,4.56,-4.56,-4.63,-4.38,-0.50,-0.50,-0.50
321.14,4.05,4.55,4.05,4.55,-4.55,-4.60,-4.34,-0.51,-0.51,-0.50
324.35,4.03,4.54,4.03,4.54,-4.55,-4.58,-4.31,-0.52,-0.52,-0.52
327.59,4.02,4.54,4.02,4.54,-4.54,-4.55,-4.27,-0.52,-0.52,-0.52
330.87,4.01,4.54,4.01,4.54,-4.54,-4.53,-4.25,-0.53,-0.53,-0.53
334.18,4.01,4.54,4.00,4.54,-4.53,-4.50,-4.22,-0.53,-0.53,-0.53
337.52,3.99,4.52,3.99,4.53,-4.53,-4.48,-4.20,-0.54,-0.54,-0.54
340.90,3.99,4.54,3.99,4.53,-4.53,-4.47,-4.18,-0.54,-0.55,-0.55
344.30,3.98,4.53,3.98,4.53,-4.53,-4.46,-4.16,-0.55,-0.56,-0.55
347.75,3.97,4.53,3.97,4.54,-4.53,-4.46,-4.15,-0.57,-0.56,-0.56
351.23,3.97,4.54,3.96,4.54,-4.54,-4.47,-4.14,-0.57,-0.57,-0.57
354.74,3.96,4.54,3.96,4.54,-4.54,-4.49,-4.13,-0.58,-0.58,-0.59
358.28,3.95,4.54,3.95,4.54,-4.54,-4.52,-4.12,-0.59,-0.59,-0.59
361.87,3.95,4.55,3.94,4.54,-4.55,-4.55,-4.12,-0.60,-0.60,-0.60
365.49,3.94,4.55,3.94,4.55,-4.55,-4.58,-4.13,-0.62,-0.61,-0.61
369.14,3.94,4.56,3.94,4.56,-4.56,-4.62,-4.13,-0.62,-0.62,-0.62
372.83,3.94,4.57,3.93,4.57,-4.57,-4.66,-4.14,-0.63,-0.63,-0.63
376.56,3.93,4.57,3.93,4.58,-4.58,-4.69,-4.15,-0.65,-0.64,-0.65
380.33,3.93,4.59,3.93,4.59,-4.58,-4.72,-4.17,-0.66,-0.66,-0.66
384.13,3.93,4.60,3.92,4.59,-4.59,-4.74,-4.18,-0.66,-0.67,-0.67
387.97,3.92,4.60,3.92,4.60,-4.60,-4.76,-4.20,-0.68,-0.68,-0.68
391.85,3.92,4.61,3.92,4.61,-4.61,-4.78,-4.22,-0.69,-0.69,-0.69
395.77,3.91,4.61,3.91,4.61,-4.61,-4.79,-4.25,-0.71,-0.70,-0.70
399.73,3.91,4.62,3.91,4.62,-4.62,-4.80,-4.27,-0.71,-0.71,-0.71
403.72,3.91,4.62,3.90,4.62,-4.62,-4.80,-4.30,-0.72,-0.72,-0.71
407.76,3.90,4.62,3.90,4.63,-4.63,-4.79,-4.33,-0.73,-0.73,-0.73
411.84,3.90,4.64,3.89,4.63,-4.63,-4.78,-4.36,-0.73,-0.74,-0.74
415.96,3.89,4.64,3.88,4.63,-4.63,-4.77,-4.39,-0.75,-0.75,-0.75
420.12,3.87,4.63,3.88,4.63,-4.64,-4.76,-4.43,-0.77,-0.76,-0.76
424.32,3.87,4.64,3.87,4.64,-4.64,-4.74,-4.46,-0.77,-0.77,-0.77
428.56,3.86,4.64,3.86,4.64,-4.64,-4.71,-4.49,-0.78,-0.78,-0.78
432.85,3.85,4.64,3.84,4.63,-4.63,-4.68,-4.52,-0.79,-0.79,-0.79
437.18,3.82,4.62,3.83,4.63,-4.63,-4.65,-4.55,-0.81,-0.80,-0.80
441.55,3.81,4.62,3.81,4.62,-4.62,-4.62,-4.58,-0.82,-0.82,-0.81
445.96,3.79,4.62,3.79,4.62,-4.62,-4.58,-4.61,-0.83,-0.83,-0.83
450.42,3.77,4.61,3.77,4.61,-4.61,-4.54,-4.63,-0.84,-0.84,-0.84
454.93,3.74,4.59,3.74,4.60,-4.60,-4.50,-4.65,-0.86,-0.86,-0.86
459.48,3.71,4.58,3.71,4.58,-4.58,-4.46,-4.67,-0.87,-0.87,-0.88
464.07,3.68,4.56,3.68,4.56,-4.57,-4.41,-4.68,-0.89,-0.89,-0.89
468.71,3.65,4.55,3.65,4.55,-4.55,-4.36,-4.69,-0.90,-0.90,-0.90
473.40,3.62,4.53,3.62,4.53,-4.53,-4.31,-4.69,-0.91,-0.91,-0.91
478.13,3.58,4.51,3.58,4.50,-4.50,-4.25,-4.69,-0.92,-0.92,-0.93
482.91,3.54,4.48,3.54,4.48,-4.47,-4.20,-4.68,-0.94,-0.93,-0.94
487.74,3.50,4.45,3.50,4.45,-4.44,-4.14,-4.67,-0.94,-0.95,-0.95
492.62,3.45,4.41,3.45,4.41,-4.41,-4.08,-4.65,-0.96,-0.96,-0.96
497.55,3.40,4.37,3.40,4.37,-4.37,-4.02,-4.62,-0.97,-0.97,-0.97
