frequency,raw,error,smoothed,error_smoothed,equalization,parametric_eq,fixed_band_eq,equalized_raw,equalized_smoothed,target
20.00,-4.03,-6.71,-4.03,-6.71,5.97,5.86,2.05,1.94,1.94,2.68
20.20,-3.97,-6.64,-3.98,-6.65,5.99,5.89,2.11,2.02,2.01,2.67
20.40,-3.93,-6.60,-3.92,-6.59,6.01,5.91,2.17,2.08,2.08,2.67
20.61,-3.87,-6.53,-3.87,-6.53,6.02,5.93,2.23,2.15,2.15,2.66
20.81,-3.81,-6.47,-3.81,-6.48,6.03,5.94,2.30,2.22,2.21,2.66
21.02,-3.76,-6.42,-3.76,-6.41,6.03,5.95,2.36,2.27,2.27,2.66
21.23,-3.70,-6.34,-3.70,-6.35,6.02,5.95,2.43,2.32,2.32,2.64
21.44,-3.66,-6.28,-3.66,-6.28,6.01,5.94,2.50,2.36,2.36,2.62
21.66,-3.61,-6.21,-3.61,-6.20,6.01,5.93,2.58,2.40,2.40,2.60
21.87,-3.56,-6.13,-3.56,-6.13,6.00,5.92,2.65,2.44,2.44,2.57
22.09,-3.50,-6.05,-3.51,-6.06,5.97,5.90,2.73,2.47,2.47,2.55
22.31,-3.46,-5.99,-3.46,-5.98,5.94,5.87,2.81,2.48,2.48,2.53
22.54,-3.42,-5.92,-3.41,-5.91,5.89,5.84,2.89,2.47,2.48,2.50
22.76,-3.36,-5.83,-3.37,-5.84,5.84,5.81,2.97,2.48,2.47,2.47
22.99,-3.32,-5.76,-3.32,-5.76,5.77,5.77,3.06,2.45,2.45,2.44
23.22,-3.28,-5.69,-3.27,-5.68,5.70,5.73,3.14,2.42,2.43,2.41
23.45,-3.23,-5.62,-3.23,-5.62,5.63,5.68,3.23,2.40,2.40,2.39
23.69,-3.18,-5.55,-3.18,-5.55,5.56,5.63,3.32,2.38,2.38,2.37
23.92,-3.14,-5.49,-3.14,-5.49,5.49,5.58,3.41,2.35,2.35,2.35
24.16,-3.09,-5.43,-3.10,-5.43,5.43,5.52,3.51,2.34,2.33,2.34
24.40,-3.06,-5.37,-3.06,-5.37,5.37,5.46,3.60,2.31,2.31,2.32
24.65,-3.02,-5.32,-3.01,-5.31,5.31,5.40,3.70,2.29,2.29,2.30
24.89,-2.97,-5.24,-2.97,-5.25,5.24,5.34,3.80,2.28,2.27,2.27
25.14,-2.93,-5.18,-2.93,-5.18,5.18,5.27,3.90,2.25,2.25,2.25
25.39,-2.89,-5.12,-2.88,-5.12,5.12,5.20,3.99,2.23,2.24,2.23
25.65,-2.84,-5.06,-2.84,-5.06,5.06,5.13,4.09,2.22,2.22,2.22
25.91,-2.80,-4.99,-2.80,-5.00,5.00,5.06,4.19,2.20,2.20,2.19
26.16,-2.76,-4.94,-2.76,-4.94,4.94,4.99,4.29,2.18,2.18,2.18
26.43,-2.72,-4.88,-2.72,-4.88,4.89,4.92,4.39,2.17,2.17,2.16
26.69,-2.68,-4.83,-2.68,-4.83,4.83,4.85,4.48,2.15,2.15,2.15
26.96,-2.64,-4.77,-2.64,-4.77,4.77,4.78,4.58,2.13,2.13,2.13
27.23,-2.60,-4.72,-2.60,-4.72,4.72,4.71,4.67,2.12,2.11,2.12
27.50,-2.57,-4.67,-2.57,-4.67,4.66,4.64,4.76,2.09,2.09,2.10
27.77,-2.53,-4.61,-2.53,-4.61,4.61,4.57,4.85,2.08,2.08,2.08
28.05,-2.49,-4.56,-2.49,-4.55,4.55,4.50,4.93,2.06,2.06,2.07
28.33,-2.45,-4.49,-2.45,-4.49,4.50,4.43,5.00,2.05,2.05,2.04
28.62,-2.41,-4.44,-2.41,-4.44,4.45,4.36,5.08,2.04,2.03,2.03
28.90,-2.38,-4.40,-2.38,-4.39,4.40,4.29,5.14,2.02,2.02,2.03
29.19,-2.34,-4.34,-2.34,-4.35,4.34,4.23,5.20,2.01,2.01,2.00
29.48,-2.30,-4.30,-2.30,-4.30,4.29,4.16,5.25,1.99,2.00,2.00
29.78,-2.26,-4.24,-2.26,-4.25,4.24,4.10,5.30,1.98,1.98,1.98
30.08,-2.22,-4.19,-2.23,-4.20,4.19,4.04,5.33,1.97,1.97,1.97
30.38,-2.20,-4.15,-2.19,-4.14,4.14,3.98,5.36,1.94,1.95,1.95
30.68,-2.16,-4.09,-2.16,-4.09,4.09,3.92,5.38,1.93,1.93,1.93
30.99,-2.12,-4.03,-2.12,-4.04,4.04,3.86,5.39,1.92,1.91,1.91
31.30,-2.09,-3.99,-2.09,-3.98,3.98,3.81,5.39,1.89,1.90,1.90
31.61,-2.05,-3.94,-2.05,-3.93,3.93,3.76,5.39,1.88,1.88,1.89
31.93,-2.02,-3.87,-2.02,-3.88,3.87,3.70,5.37,1.86,1.86,1.85
32.24,-1.99,-3.82,-1.99,-3.82,3.82,3.65,5.34,1.83,1.84,1.83
32.57,-1.95,-3.76,-1.95,-3.76,3.77,3.61,5.31,1.82,1.82,1.81
32.89,-1.92,-3.72,-1.92,-3.71,3.71,3.56,5.27,1.79,1.80,1.80
33.22,-1.88,-3.65,-1.88,-3.66,3.66,3.51,5.22,1.78,1.77,1.77
33.55,-1.86,-3.62,-1.86,-3.61,3.61,3.47,5.16,1.75,1.75,1.76
33.89,-1.83,-3.55,-1.83,-3.56,3.55,3.43,5.10,1.73,1.73,1.73
34.23,-1.80,-3.51,-1.80,-3.50,3.50,3.39,5.03,1.70,1.71,1.71
34.57,-1.76,-3.44,-1.77,-3.45,3.45,3.35,4.96,1.69,1.69,1.68
34.92,-1.74,-3.40,-1.74,-3.40,3.40,3.32,4.88,1.67,1.67,1.66
35.27,-1.71,-3.36,-1.71,-3.35,3.36,3.28,4.79,1.65,1.65,1.65
35.62,-1.69,-3.32,-1.69,-3.31,3.31,3.25,4.71,1.62,1.62,1.63
35.97,-1.66,-3.25,-1.66,-3.27,3.26,3.21,4.62,1.60,1.60,1.59
36.33,-1.64,-3.22,-1.64,-3.22,3.21,3.18,4.52,1.58,1.58,1.58
36.70,-1.62,-3.18,-1.61,-3.17,3.17,3.15,4.43,1.55,1.56,1.56
37.06,-1.59,-3.12,-1.59,-3.13,3.13,3.12,4.33,1.54,1.54,1.53
37.43,-1.57,-3.08,-1.57,-3.08,3.09,3.09,4.24,1.52,1.52,1.51
37.81,-1.55,-3.04,-1.55,-3.04,3.04,3.06,4.14,1.49,1.49,1.49
38.19,-1.53,-3.00,-1.53,-3.01,3.00,3.04,4.04,1.47,1.47,1.47
38.57,-1.52,-2.98,-1.51,-2.97,2.96,3.01,3.94,1.44,1.45,1.46
38.95,-1.49,-2.92,-1.49,-2.93,2.92,2.98,3.84,1.43,1.43,1.43
39.34,-1.48,-2.89,-1.48,-2.89,2.88,2.95,3.75,1.41,1.41,1.41
39.74,-1.46,-2.84,-1.46,-2.84,2.85,2.92,3.65,1.39,1.38,1.38
40.14,-1.45,-2.81,-1.45,-2.81,2.81,2.89,3.56,1.36,1.36,1.36
40.54,-1.43,-2.77,-1.43,-2.77,2.77,2.86,3.47,1.34,1.34,1.34
40.94,-1.41,-2.74,-1.41,-2.74,2.74,2.82,3.37,1.33,1.33,1.33
41.35,-1.40,-2.70,-1.40,-2.70,2.71,2.79,3.28,1.31,1.31,1.30
41.76,-1.38,-2.67,-1.38,-2.67,2.68,2.75,3.20,1.30,1.29,1.29
42.18,-1.37,-2.65,-1.37,-2.64,2.64,2.72,3.11,1.27,1.27,1.28
42.60,-1.36,-2.61,-1.36,-2.62,2.61,2.68,3.03,1.25,1.25,1.25
43.03,-1.35,-2.60,-1.35,-2.59,2.58,2.64,2.95,1.23,1.23,1.25
43.46,-1.33,-2.55,-1.33,-2.55,2.54,2.60,2.87,1.21,1.21,1.22
43.90,-1.31,-2.50,-1.31,-2.51,2.50,2.56,2.79,1.20,1.19,1.19
44.33,-1.29,-2.45,-1.29,-2.46,2.47,2.51,2.71,1.18,1.18,1.16
44.78,-1.28,-2.43,-1.28,-2.42,2.43,2.47,2.64,1.15,1.15,1.15
45.23,-1.26,-2.38,-1.26,-2.39,2.39,2.42,2.57,1.13,1.13,1.12
45.68,-1.25,-2.36,-1.24,-2.35,2.35,2.38,2.50,1.10,1.11,1.11
46.13,-1.22,-2.30,-1.22,-2.31,2.31,2.33,2.43,1.10,1.09,1.08
46.60,-1.20,-2.28,-1.20,-2.28,2.28,2.28,2.37,1.08,1.08,1.08
47.06,-1.18,-2.24,-1.18,-2.24,2.24,2.23,2.31,1.06,1.06,1.06
47.53,-1.16,-2.21,-1.16,-2.21,2.20,2.18,2.25,1.04,1.04,1.05
48.01,-1.14,-2.17,-1.14,-2.17,2.16,2.13,2.19,1.02,1.02,1.03
48.49,-1.12,-2.12,-1.12,-2.12,2.12,2.08,2.13,1.00,1.00,1.00
48.97,-1.10,-2.08,-1.10,-2.08,2.07,2.03,2.08,0.97,0.97,0.98
49.46,-1.08,-2.03,-1.08,-2.03,2.03,1.98,2.02,0.95,0.95,0.95
49.96,-1.06,-1.98,-1.06,-1.98,1.98,1.93,1.97,0.92,0.93,0.92
50.46,-1.03,-1.93,-1.03,-1.94,1.94,1.88,1.92,0.91,0.91,0.90
50.96,-1.01,-1.90,-1.01,-1.89,1.90,1.83,1.87,0.89,0.89,0.89
51.47,-0.99,-1.85,-0.99,-1.85,1.85,1.78,1.82,0.87,0.87,0.86
51.99,-0.97,-1.81,-0.97,-1.81,1.81,1.74,1.78,0.84,0.84,0.84
52.51,-0.95,-1.78,-0.95,-1.78,1.78,1.69,1.74,0.83,0.82,0.83
53.03,-0.94,-1.75,-0.93,-1.74,1.74,1.64,1.69,0.80,0.80,0.81
53.56,-0.92,-1.70,-0.92,-1.70,1.70,1.60,1.65,0.78,0.78,0.78
54.10,-0.89,-1.65,-0.90,-1.66,1.66,1.55,1.61,0.77,0.76,0.76
54.64,-0.89,-1.63,-0.88,-1.62,1.63,1.51,1.57,0.74,0.74,0.74
55.18,-0.87,-1.59,-0.87,-1.59,1.59,1.47,1.53,0.72,0.72,0.72
55.74,-0.85,-1.55,-0.86,-1.56,1.55,1.43,1.50,0.70,0.70,0.70
56.29,-0.84,-1.52,-0.84,-1.52,1.52,1.39,1.46,0.68,0.68,0.68
56.86,-0.83,-1.49,-0.83,-1.48,1.49,1.35,1.43,0.66,0.66,0.66
57.42,-0.81,-1.45,-0.82,-1.46,1.46,1.31,1.39,0.65,0.64,0.64
58.00,-0.81,-1.43,-0.81,-1.43,1.43,1.27,1.36,0.62,0.63,0.62
58.58,-0.80,-1.41,-0.80,-1.41,1.41,1.24,1.33,0.61,0.61,0.61
59.16,-0.79,-1.39,-0.79,-1.38,1.38,1.20,1.29,0.59,0.59,0.60
59.76,-0.78,-1.35,-0.78,-1.36,1.35,1.17,1.26,0.57,0.57,0.57
60.35,-0.77,-1.32,-0.77,-1.33,1.32,1.13,1.23,0.55,0.55,0.55
60.96,-0.77,-1.31,-0.77,-1.29,1.29,1.10,1.20,0.52,0.53,0.54
61.57,-0.76,-1.26,-0.76,-1.26,1.26,1.07,1.17,0.50,0.50,0.50
62.18,-0.75,-1.22,-0.75,-1.23,1.24,1.04,1.14,0.49,0.48,0.48
62.80,-0.75,-1.21,-0.75,-1.20,1.21,1.01,1.11,0.46,0.46,0.46
63.43,-0.74,-1.17,-0.74,-1.18,1.18,0.98,1.08,0.44,0.44,0.43
64.07,-0.74,-1.16,-0.74,-1.15,1.15,0.95,1.05,0.42,0.42,0.42
64.71,-0.73,-1.13,-0.73,-1.13,1.13,0.92,1.02,0.40,0.40,0.40
65.35,-0.73,-1.11,-0.73,-1.11,1.11,0.90,1.00,0.38,0.38,0.38
66.01,-0.73,-1.09,-0.72,-1.09,1.08,0.87,0.97,0.35,0.36,0.36
66.67,-0.72,-1.06,-0.72,-1.06,1.06,0.84,0.94,0.34,0.34,0.34
67.33,-0.71,-1.03,-0.72,-1.04,1.04,0.82,0.91,0.33,0.32,0.32
68.01,-0.72,-1.02,-0.71,-1.02,1.02,0.80,0.89,0.30,0.31,0.30
68.69,-0.71,-0.99,-0.71,-0.99,1.00,0.77,0.86,0.29,0.28,0.28
69.37,-0.71,-0.97,-0.71,-0.97,0.97,0.75,0.83,0.26,0.26,0.26
70.07,-0.71,-0.95,-0.71,-0.95,0.95,0.73,0.80,0.24,0.24,0.24
70.77,-0.71,-0.94,-0.71,-0.93,0.93,0.70,0.78,0.22,0.22,0.23
71.48,-0.70,-0.90,-0.71,-0.91,0.91,0.68,0.75,0.21,0.20,0.20
72.19,-0.71,-0.89,-0.71,-0.88,0.88,0.66,0.73,0.17,0.18,0.18
72.91,-0.71,-0.86,-0.71,-0.86,0.86,0.64,0.70,0.15,0.15,0.15
73.64,-0.71,-0.83,-0.71,-0.84,0.84,0.62,0.67,0.13,0.13,0.12
74.38,-0.72,-0.83,-0.71,-0.81,0.82,0.60,0.65,0.10,0.11,0.11
75.12,-0.71,-0.79,-0.72,-0.80,0.80,0.58,0.62,0.09,0.08,0.08
75.87,-0.72,-0.77,-0.72,-0.78,0.78,0.56,0.60,0.06,0.06,0.05
76.63,-0.73,-0.77,-0.73,-0.76,0.76,0.55,0.57,0.03,0.03,0.04
77.40,-0.73,-0.74,-0.73,-0.74,0.74,0.53,0.55,0.01,0.00,0.01
78.17,-0.74,-0.71,-0.74,-0.71,0.72,0.51,0.52,-0.02,-0.02,-0.03
78.95,-0.74,-0.69,-0.74,-0.69,0.70,0.49,0.50,-0.04,-0.05,-0.05
79.74,-0.75,-0.68,-0.75,-0.68,0.68,0.48,0.48,-0.07,-0.07,-0.07
80.54,-0.76,-0.66,-0.76,-0.66,0.65,0.46,0.45,-0.11,-0.10,-0.10
81.35,-0.76,-0.63,-0.76,-0.64,0.63,0.44,0.43,-0.13,-0.13,-0.13
82.16,-0.77,-0.61,-0.77,-0.61,0.61,0.43,0.41,-0.16,-0.16,-0.16
82.98,-0.78,-0.60,-0.78,-0.59,0.59,0.41,0.38,-0.19,-0.19,-0.18
83.81,-0.78,-0.55,-0.79,-0.56,0.57,0.39,0.36,-0.21,-0.22,-0.22
84.65,-0.80,-0.54,-0.80,-0.54,0.55,0.38,0.34,-0.25,-0.25,-0.26
85.50,-0.81,-0.53,-0.81,-0.52,0.52,0.36,0.31,-0.28,-0.28,-0.28
86.35,-0.82,-0.50,-0.82,-0.51,0.50,0.35,0.29,-0.31,-0.32,-0.31
87.22,-0.84,-0.49,-0.83,-0.48,0.48,0.33,0.27,-0.35,-0.35,-0.35
88.09,-0.84,-0.46,-0.85,-0.47,0.47,0.32,0.24,-0.37,-0.38,-0.38
88.97,-0.86,-0.45,-0.86,-0.45,0.45,0.31,0.22,-0.41,-0.41,-0.41
89.86,-0.87,-0.43,-0.87,-0.43,0.43,0.29,0.20,-0.44,-0.44,-0.44
90.76,-0.88,-0.40,-0.88,-0.41,0.41,0.28,0.18,-0.47,-0.48,-0.48
91.66,-0.90,-0.39,-0.90,-0.39,0.39,0.26,0.16,-0.51,-0.51,-0.51
92.58,-0.91,-0.35,-0.91,-0.36,0.37,0.25,0.13,-0.54,-0.55,-0.55
93.51,-0.93,-0.36,-0.92,-0.35,0.34,0.24,0.11,-0.59,-0.58,-0.57
94.44,-0.93,-0.32,-0.93,-0.32,0.32,0.22,0.09,-0.61,-0.61,-0.61
95.39,-0.95,-0.30,-0.95,-0.30,0.30,0.21,0.07,-0.65,-0.65,-0.65
96.34,-0.97,-0.27,-0.97,-0.27,0.28,0.20,0.05,-0.69,-0.69,-0.70
97.30,-0.99,-0.26,-0.99,-0.25,0.25,0.18,0.03,-0.74,-0.73,-0.73
98.28,-1.00,-0.23,-1.00,-0.23,0.23,0.17,0.00,-0.77,-0.77,-0.77
99.26,-1.02,-0.21,-1.02,-0.20,0.21,0.16,-0.02,-0.81,-0.81,-0.81
100.25,-1.03,-0.18,-1.03,-0.18,0.18,0.14,-0.04,-0.85,-0.85,-0.85
101.25,-1.05,-0.16,-1.05,-0.16,0.16,0.13,-0.06,-0.89,-0.89,-0.89
102.27,-1.07,-0.14,-1.07,-0.13,0.13,0.12,-0.08,-0.94,-0.93,-0.93
103.29,-1.09,-0.10,-1.09,-0.11,0.11,0.10,-0.10,-0.98,-0.98,-0.99
104.32,-1.10,-0.08,-1.10,-0.08,0.08,0.09,-0.12,-1.01,-1.02,-1.02
105.37,-1.12,-0.05,-1.12,-0.06,0.06,0.08,-0.14,-1.06,-1.06,-1.07
106.42,-1.15,-0.04,-1.14,-0.04,0.03,0.06,-0.16,-1.11,-1.11,-1.11
107.48,-1.17,-0.02,-1.17,-0.01,0.01,0.05,-0.18,-1.16,-1.16,-1.15
108.56,-1.18,0.03,-1.18,0.02,-0.02,0.04,-0.20,-1.20,-1.20,-1.21
109.64,-1.20,0.05,-1.20,0.04,-0.05,0.02,-0.21,-1.25,-1.25,-1.24
110.74,-1.22,0.07,-1.22,0.08,-0.07,0.01,-0.23,-1.29,-1.29,-1.29
111.85,-1.24,0.09,-1.24,0.10,-0.10,-0.00,-0.25,-1.34,-1.34,-1.33
112.97,-1.26,0.14,-1.26,0.13,-0.13,-0.02,-0.27,-1.39,-1.39,-1.40
114.10,-1.29,0.15,-1.28,0.16,-0.16,-0.03,-0.28,-1.45,-1.44,-1.44
115.24,-1.30,0.19,-1.30,0.19,-0.18,-0.04,-0.30,-1.48,-1.49,-1.49
116.39,-1.33,0.21,-1.33,0.21,-0.21,-0.06,-0.31,-1.54,-1.54,-1.54
117.55,-1.35,0.23,-1.35,0.23,-0.23,-0.07,-0.32,-1.58,-1.58,-1.58
118.73,-1.38,0.25,-1.38,0.25,-0.25,-0.08,-0.34,-1.63,-1.63,-1.63
119.92,-1.40,0.27,-1.40,0.27,-0.27,-0.10,-0.35,-1.67,-1.67,-1.67
121.12,-1.42,0.30,-1.42,0.29,-0.29,-0.11,-0.36,-1.71,-1.71,-1.71
122.33,-1.45,0.31,-1.45,0.31,-0.31,-0.12,-0.37,-1.76,-1.76,-1.76
123.55,-1.47,0.33,-1.47,0.33,-0.33,-0.14,-0.38,-1.80,-1.80,-1.80
124.79,-1.50,0.33,-1.50,0.34,-0.35,-0.15,-0.38,-1.84,-1.84,-1.83
126.03,-1.52,0.36,-1.52,0.36,-0.36,-0.17,-0.39,-1.88,-1.88,-1.88
127.29,-1.54,0.38,-1.54,0.38,-0.38,-0.18,-0.39,-1.92,-1.92,-1.92
128.57,-1.57,0.40,-1.57,0.40,-0.40,-0.20,-0.40,-1.97,-1.96,-1.97
129.85,-1.59,0.42,-1.59,0.42,-0.41,-0.21,-0.40,-2.00,-2.00,-2.01
131.15,-1.61,0.43,-1.61,0.43,-0.43,-0.22,-0.40,-2.04,-2.04,-2.04
132.46,-1.64,0.44,-1.64,0.44,-0.44,-0.24,-0.41,-2.08,-2.08,-2.08
133.79,-1.66,0.45,-1.66,0.45,-0.45,-0.25,-0.41,-2.11,-2.11,-2.11
135.12,-1.68,0.47,-1.68,0.46,-0.46,-0.27,-0.41,-2.14,-2.14,-2.15
136.48,-1.71,0.46,-1.70,0.47,-0.47,-0.28,-0.41,-2.18,-2.17,-2.17
137.84,-1.73,0.47,-1.73,0.47,-0.47,-0.30,-0.41,-2.20,-2.20,-2.20
139.22,-1.75,0.48,-1.75,0.48,-0.48,-0.31,-0.40,-2.22,-2.23,-2.23
140.61,-1.78,0.48,-1.77,0.48,-0.48,-0.33,-0.40,-2.26,-2.25,-2.26
142.02,-1.79,0.48,-1.80,0.48,-0.48,-0.34,-0.40,-2.27,-2.27,-2.27
143.44,-1.82,0.48,-1.82,0.48,-0.48,-0.36,-0.39,-2.30,-2.29,-2.30
144.87,-1.84,0.47,-1.84,0.48,-0.48,-0.37,-0.39,-2.32,-2.31,-2.31
146.32,-1.85,0.48,-1.86,0.47,-0.47,-0.39,-0.39,-2.32,-2.33,-2.33
147.78,-1.88,0.47,-1.88,0.47,-0.47,-0.40,-0.38,-2.35,-2.35,-2.35
149.26,-1.90,0.46,-1.90,0.47,-0.47,-0.42,-0.38,-2.37,-2.37,-2.36
150.75,-1.92,0.48,-1.92,0.47,-0.47,-0.43,-0.37,-2.39,-2.39,-2.40
152.26,-1.94,0.47,-1.94,0.47,-0.47,-0.45,-0.37,-2.41,-2.40,-2.41
153.78,-1.96,0.46,-1.96,0.47,-0.46,-0.46,-0.36,-2.42,-2.42,-2.42
155.32,-1.98,0.47,-1.98,0.46,-0.46,-0.47,-0.36,-2.44,-2.44,-2.45
156.88,-2.01,0.45,-2.01,0.46,-0.46,-0.49,-0.35,-2.47,-2.47,-2.46
158.44,-2.03,0.45,-2.03,0.45,-0.46,-0.50,-0.35,-2.49,-2.49,-2.48
160.03,-2.05,0.45,-2.05,0.45,-0.45,-0.51,-0.34,-2.50,-2.51,-2.50
161.63,-2.08,0.46,-2.08,0.45,-0.45,-0.53,-0.34,-2.53,-2.53,-2.53
163.24,-2.10,0.46,-2.10,0.45,-0.45,-0.54,-0.34,-2.55,-2.55,-2.55
164.88,-2.12,0.45,-2.12,0.45,-0.44,-0.55,-0.33,-2.56,-2.56,-2.56
166.53,-2.14,0.44,-2.14,0.44,-0.44,-0.56,-0.33,-2.58,-2.59,-2.58
168.19,-2.17,0.44,-2.17,0.44,-0.44,-0.57,-0.33,-2.61,-2.61,-2.61
169.87,-2.20,0.43,-2.19,0.44,-0.44,-0.58,-0.32,-2.64,-2.63,-2.63
171.57,-2.21,0.45,-2.22,0.44,-0.44,-0.59,-0.32,-2.65,-2.66,-2.66
173.29,-2.24,0.44,-2.24,0.44,-0.45,-0.59,-0.32,-2.68,-2.68,-2.68
175.02,-2.26,0.44,-2.26,0.45,-0.45,-0.60,-0.31,-2.71,-2.71,-2.70
176.77,-2.28,0.46,-2.28,0.46,-0.46,-0.61,-0.31,-2.74,-2.74,-2.74
178.54,-2.30,0.47,-2.30,0.47,-0.47,-0.61,-0.31,-2.77,-2.76,-2.77
180.32,-2.32,0.48,-2.32,0.48,-0.48,-0.61,-0.31,-2.80,-2.80,-2.80
182.13,-2.34,0.48,-2.34,0.49,-0.49,-0.62,-0.31,-2.83,-2.83,-2.82
183.95,-2.37,0.50,-2.36,0.50,-0.50,-0.62,-0.31,-2.87,-2.86,-2.87
185.79,-2.38,0.51,-2.38,0.51,-0.51,-0.62,-0.31,-2.89,-2.89,-2.89
187.65,-2.40,0.53,-2.40,0.52,-0.52,-0.62,-0.31,-2.92,-2.92,-2.92
189.52,-2.42,0.53,-2.42,0.53,-0.53,-0.62,-0.31,-2.95,-2.95,-2.95
191.42,-2.43,0.55,-2.43,0.55,-0.55,-0.62,-0.31,-2.97,-2.98,-2.98
193.33,-2.45,0.55,-2.45,0.55,-0.55,-0.61,-0.31,-3.00,-3.00,-3.00
195.27,-2.47,0.56,-2.47,0.56,-0.56,-0.61,-0.31,-3.03,-3.03,-3.03
197.22,-2.49,0.57,-2.49,0.57,-0.57,-0.60,-0.31,-3.06,-3.06,-3.06
199.19,-2.51,0.59,-2.51,0.58,-0.58,-0.60,-0.31,-3.09,-3.08,-3.10
201.18,-2.52,0.59,-2.53,0.58,-0.58,-0.59,-0.31,-3.10,-3.11,-3.11
203.19,-2.55,0.58,-2.55,0.58,-0.59,-0.58,-0.31,-3.13,-3.13,-3.13
205.23,-2.57,0.59,-2.57,0.58,-0.59,-0.57,-0.31,-3.16,-3.15,-3.16
207.28,-2.58,0.58,-2.58,0.58,-0.59,-0.56,-0.31,-3.17,-3.17,-3.16
209.35,-2.60,0.59,-2.60,0.59,-0.59,-0.55,-0.31,-3.19,-3.19,-3.19
211.44,-2.61,0.60,-2.61,0.59,-0.59,-0.54,-0.32,-3.20,-3.20,-3.21
213.56,-2.64,0.58,-2.63,0.59,-0.58,-0.53,-0.32,-3.22,-3.22,-3.22
215.69,-2.65,0.57,-2.65,0.58,-0.58,-0.51,-0.32,-3.23,-3.23,-3.22
217.85,-2.67,0.57,-2.67,0.57,-0.57,-0.50,-0.32,-3.24,-3.24,-3.24
220.03,-2.68,0.57,-2.68,0.56,-0.56,-0.48,-0.32,-3.24,-3.24,-3.25
222.23,-2.70,0.55,-2.70,0.55,-0.55,-0.47,-0.32,-3.25,-3.25,-3.25
224.45,-2.71,0.53,-2.71,0.54,-0.53,-0.45,-0.32,-3.24,-3.24,-3.24
226.70,-2.73,0.51,-2.72,0.52,-0.52,-0.44,-0.32,-3.25,-3.24,-3.24
228.96,-2.73,0.51,-2.74,0.50,-0.50,-0.42,-0.32,-3.23,-3.23,-3.23
231.25,-2.75,0.47,-2.75,0.48,-0.48,-0.40,-0.32,-3.23,-3.23,-3.22
233.57,-2.76,0.46,-2.76,0.46,-0.46,-0.38,-0.32,-3.22,-3.22,-3.22
235.90,-2.77,0.43,-2.77,0.43,-0.44,-0.37,-0.31,-3.20,-3.21,-3.20
238.26,-2.78,0.42,-2.78,0.42,-0.41,-0.35,-0.31,-3.19,-3.19,-3.20
240.64,-2.79,0.39,-2.79,0.39,-0.39,-0.33,-0.31,-3.18,-3.18,-3.17
243.05,-2.79,0.37,-2.80,0.36,-0.36,-0.31,-0.30,-3.15,-3.16,-3.16
245.48,-2.81,0.33,-2.80,0.33,-0.34,-0.29,-0.30,-3.14,-3.14,-3.14
247.93,-2.81,0.30,-2.81,0.31,-0.31,-0.27,-0.29,-3.12,-3.12,-3.11
250.41,-2.81,0.30,-2.82,0.28,-0.28,-0.25,-0.29,-3.09,-3.10,-3.10
252.92,-2.82,0.25,-2.82,0.25,-0.25,-0.23,-0.28,-3.07,-3.07,-3.07
255.45,-2.83,0.21,-2.82,0.23,-0.22,-0.21,-0.27,-3.05,-3.05,-3.04
258.00,-2.83,0.20,-2.83,0.19,-0.20,-0.19,-0.27,-3.03,-3.03,-3.03
260.58,-2.83,0.17,-2.83,0.17,-0.17,-0.17,-0.26,-3.00,-3.00,-3.00
263.19,-2.84,0.14,-2.83,0.15,-0.14,-0.15,-0.25,-2.98,-2.98,-2.98
265.82,-2.83,0.13,-2.83,0.12,-0.12,-0.13,-0.24,-2.95,-2.95,-2.96
268.48,-2.83,0.09,-2.83,0.10,-0.10,-0.11,-0.23,-2.93,-2.93,-2.92
271.16,-2.83,0.07,-2.83,0.07,-0.08,-0.08,-0.21,-2.91,-2.91,-2.90
273.87,-2.83,0.05,-2.83,0.05,-0.06,-0.06,-0.20,-2.89,-2.88,-2.88
276.61,-2.82,0.03,-2.82,0.04,-0.04,-0.04,-0.19,-2.86,-2.86,-2.85
279.38,-2.81,0.03,-2.81,0.02,-0.02,-0.02,-0.17,-2.83,-2.83,-2.84
282.17,-2.81,0.00,-2.81,0.00,0.00,0.00,-0.16,-2.81,-2.81,-2.81
284.99,-2.81,-0.03,-2.81,-0.02,0.02,0.03,-0.15,-2.79,-2.78,-2.78
287.84,-2.80,-0.04,-2.80,-0.04,0.04,0.05,-0.13,-2.76,-2.76,-2.76
290.72,-2.79,-0.06,-2.79,-0.06,0.06,0.07,-0.12,-2.73,-2.73,-2.73
293.63,-2.78,-0.08,-2.78,-0.08,0.08,0.10,-0.10,-2.70,-2.70,-2.70
296.57,-2.78,-0.11,-2.78,-0.10,0.11,0.12,-0.08,-2.67,-2.67,-2.67
299.53,-2.78,-0.13,-2.78,-0.13,0.13,0.14,-0.07,-2.65,-2.64,-2.65
302.53,-2.77,-0.14,-2.77,-0.15,0.16,0.17,-0.05,-2.61,-2.61,-2.63
305.55,-2.77,-0.19,-2.77,-0.18,0.19,0.19,-0.03,-2.58,-2.58,-2.58
308.61,-2.77,-0.22,-2.77,-0.22,0.22,0.21,-0.01,-2.55,-2.55,-2.55
311.69,-2.77,-0.25,-2.77,-0.26,0.25,0.24,0.00,-2.52,-2.52,-2.51
314.81,-2.76,-0.29,-2.76,-0.29,0.28,0.26,0.02,-2.47,-2.48,-2.47
317.96,-2.77,-0.32,-2.76,-0.32,0.32,0.29,0.04,-2.45,-2.45,-2.45
321.14,-2.76,-0.34,-2.76,-0.35,0.35,0.31,0.06,-2.41,-2.42,-2.42
324.35,-2.77,-0.38,-2.77,-0.38,0.38,0.33,0.08,-2.39,-2.39,-2.39
327.59,-2.77,-0.41,-2.77,-0.41,0.40,0.35,0.10,-2.37,-2.36,-2.36
330.87,-2.77,-0.43,-2.77,-0.43,0.43,0.38,0.12,-2.34,-2.34,-2.34
334.18,-2.77,-0.45,-2.77,-0.45,0.45,0.40,0.13,-2.32,-2.32,-2.32
337.52,-2.76,-0.46,-2.76,-0.47,0.47,0.42,0.15,-2.29,-2.29,-2.30
340.90,-2.76,-0.49,-2.76,-0.49,0.49,0.44,0.17,-2.27,-2.27,-2.27
344.30,-2.76,-0.51,-2.75,-0.50,0.50,0.46,0.19,-2.26,-2.25,-2.25
347.75,-2.75,-0.52,-2.75,-0.52,0.52,0.48,0.21,-2.23,-2.23,-2.23
351.23,-2.73,-0.52,-2.74,-0.52,0.53,0.50,0.23,-2.20,-2.21,-2.21
354.74,-2.73,-0.53,-2.73,-0.53,0.53,0.51,0.26,-2.19,-2.19,-2.19
358.28,-2.72,-0.54,-2.72,-0.54,0.54,0.53,0.28,-2.18,-2.18,-2.18
361.87,-2.71,-0.55,-2.71,-0.55,0.54,0.54,0.30,-2.16,-2.16,-2.16
365.49,-2.69,-0.55,-2.69,-0.55,0.55,0.55,0.32,-2.14,-2.15,-2.14
369.14,-2.68,-0.55,-2.68,-0.55,0.55,0.56,0.34,-2.13,-2.13,-2.13
372.83,-2.66,-0.55,-2.66,-0.55,0.55,0.57,0.36,-2.11,-2.11,-2.11
376.56,-2.64,-0.54,-2.64,-0.55,0.55,0.58,0.38,-2.09,-2.09,-2.10
380.33,-2.63,-0.56,-2.62,-0.55,0.55,0.58,0.41,-2.08,-2.07,-2.07
384.13,-2.60,-0.55,-2.61,-0.55,0.55,0.59,0.43,-2.05,-2.06,-2.05
387.97,-2.59,-0.56,-2.59,-0.55,0.55,0.59,0.45,-2.04,-2.04,-2.03
391.85,-2.57,-0.54,-2.57,-0.55,0.55,0.59,0.47,-2.02,-2.02,-2.02
395.77,-2.55,-0.55,-2.55,-0.55,0.55,0.59,0.49,-2.00,-2.00,-2.00
399.73,-2.52,-0.54,-2.53,-0.55,0.55,0.59,0.52,-1.97,-1.97,-1.98
403.72,-2.51,-0.55,-2.51,-0.55,0.55,0.59,0.54,-1.96,-1.96,-1.96
407.76,-2.49,-0.55,-2.49,-0.55,0.55,0.58,0.56,-1.94,-1.94,-1.94
411.84,-2.47,-0.56,-2.47,-0.56,0.55,0.58,0.58,-1.92,-1.92,-1.91
415.96,-2.44,-0.55,-2.44,-0.55,0.55,0.57,0.60,-1.89,-1.89,-1.89
420.12,-2.42,-0.55,-2.42,-0.55,0.55,0.57,0.62,-1.87,-1.87,-1.87
424.32,-2.40,-0.55,-2.40,-0.55,0.55,0.56,0.64,-1.85,-1.85,-1.85
428.56,-2.38,-0.55,-2.38,-0.55,0.55,0.56,0.66,-1.83,-1.83,-1.83
432.85,-2.35,-0.54,-2.35,-0.54,0.55,0.55,0.68,-1.80,-1.80,-1.81
437.18,-2.33,-0.55,-2.33,-0.55,0.55,0.54,0.70,-1.78,-1.78,-1.78
441.55,-2.30,-0.55,-2.30,-0.55,0.55,0.53,0.72,-1.75,-1.75,-1.75
445.96,-2.29,-0.56,-2.28,-0.55,0.55,0.53,0.74,-1.74,-1.73,-1.73
450.42,-2.26,-0.55,-2.26,-0.56,0.56,0.52,0.75,-1.70,-1.71,-1.71
454.93,-2.25,-0.58,-2.25,-0.56,0.56,0.51,0.77,-1.69,-1.68,-1.67
459.48,-2.22,-0.57,-2.22,-0.57,0.57,0.51,0.78,-1.65,-1.65,-1.65
464.07,-2.20,-0.57,-2.20,-0.57,0.57,0.50,0.79,-1.63,-1.63,-1.62
