frequency,raw
20.00,9.36
20.20,9.38
20.40,9.42
20.61,9.44
20.81,9.47
21.02,9.50
21.23,9.52
21.44,9.54
21.66,9.58
21.87,9.60
22.09,9.63
22.31,9.65
22.54,9.67
22.76,9.69
22.99,9.71
23.22,9.73
23.45,9.75
23.69,9.76
23.92,9.79
24.16,9.80
24.40,9.80
24.65,9.82
24.89,9.84
25.14,9.85
25.39,9.86
25.65,9.87
25.91,9.88
26.16,9.89
26.43,9.89
26.69,9.91
26.96,9.91
27.23,9.92
27.50,9.92
27.77,9.92
28.05,9.94
28.33,9.93
28.62,9.94
28.90,9.95
29.19,9.95
29.48,9.95
29.78,9.96
30.08,9.96
30.38,9.95
30.68,9.95
30.99,9.95
31.30,9.95
31.61,9.93
31.93,9.93
32.24,9.93
32.57,9.92
32.89,9.92
33.22,9.91
33.55,9.89
33.89,9.89
34.23,9.89
34.57,9.88
34.92,9.88
35.27,9.87
35.62,9.87
35.97,9.85
36.33,9.85
36.70,9.85
37.06,9.85
37.43,9.84
37.81,9.84
38.19,9.83
38.57,9.81
38.95,9.80
39.34,9.80
39.74,9.78
40.14,9.77
40.54,9.74
40.94,9.72
41.35,9.70
41.76,9.68
42.18,9.66
42.60,9.63
43.03,9.61
43.46,9.58
43.90,9.55
44.33,9.51
44.78,9.48
45.23,9.46
45.68,9.42
46.13,9.39
46.60,9.36
47.06,9.33
47.53,9.30
48.01,9.27
48.49,9.24
48.97,9.21
49.46,9.17
49.96,9.15
50.46,9.11
50.96,9.08
51.47,9.05
51.99,9.02
52.51,8.99
53.03,8.95
53.56,8.92
54.10,8.89
54.64,8.84
55.18,8.81
55.74,8.76
56.29,8.72
56.86,8.68
57.42,8.64
58.00,8.60
58.58,8.56
59.16,8.51
59.76,8.47
60.35,8.43
60.96,8.40
61.57,8.35
62.18,8.30
62.80,8.27
63.43,8.22
64.07,8.19
64.71,8.14
65.35,8.09
66.01,8.05
66.67,8.00
67.33,7.95
68.01,7.90
68.69,7.86
69.37,7.81
70.07,7.76
70.77,7.71
71.48,7.67
72.19,7.62
72.91,7.57
73.64,7.52
74.38,7.45
75.12,7.41
75.87,7.36
76.63,7.30
77.40,7.25
78.17,7.20
78.95,7.14
79.74,7.09
80.54,7.04
81.35,6.98
82.16,6.92
82.98,6.87
83.81,6.81
84.65,6.76
85.50,6.70
86.35,6.64
87.22,6.58
88.09,6.53
88.97,6.46
89.86,6.41
90.76,6.35
91.66,6.29
92.58,6.23
93.51,6.17
94.44,6.12
95.39,6.06
96.34,6.01
97.30,5.95
98.28,5.90
99.26,5.84
100.25,5.80
101.25,5.73
102.27,5.68
103.29,5.63
104.32,5.58
105.37,5.52
106.42,5.46
107.48,5.40
108.56,5.36
109.64,5.30
110.74,5.24
111.85,5.20
112.97,5.15
114.10,5.10
115.24,5.03
116.39,4.99
117.55,4.95
118.73,4.90
119.92,4.85
121.12,4.82
122.33,4.78
123.55,4.75
124.79,4.71
126.03,4.68
127.29,4.64
128.57,4.61
129.85,4.56
131.15,4.52
132.46,4.46
133.79,4.42
135.12,4.38
136.48,4.34
137.84,4.31
139.22,4.27
140.61,4.23
142.02,4.21
143.44,4.19
144.87,4.16
146.32,4.15
147.78,4.13
149.26,4.11
150.75,4.10
152.26,4.09
153.78,4.07
155.32,4.06
156.88,4.04
158.44,4.03
160.03,4.02
161.63,4.00
163.24,3.98
164.88,3.97
166.53,3.95
168.19,3.93
169.87,3.92
171.57,3.89
173.29,3.89
175.02,3.87
176.77,3.85
178.54,3.83
180.32,3.82
182.13,3.79
183.95,3.78
185.79,3.76
187.65,3.74
189.52,3.71
191.42,3.68
193.33,3.66
195.27,3.62
197.22,3.60
199.19,3.55
201.18,3.52
203.19,3.49
205.23,3.45
207.28,3.41
209.35,3.37
211.44,3.34
213.56,3.31
215.69,3.27
217.85,3.23
220.03,3.19
222.23,3.16
224.45,3.12
226.70,3.08
228.96,3.05
231.25,3.01
233.57,2.98
235.90,2.95
238.26,2.91
240.64,2.89
243.05,2.86
245.48,2.83
247.93,2.79
250.41,2.77
252.92,2.74
255.45,2.71
258.00,2.68
260.58,2.66
263.19,2.64
265.82,2.62
268.48,2.59
271.16,2.58
273.87,2.54
276.61,2.53
279.38,2.50
282.17,2.49
284.99,2.47
287.84,2.46
290.72,2.45
293.63,2.43
296.57,2.41
299.53,2.40
302.53,2.37
305.55,2.37
308.61,2.34
311.69,2.32
314.81,2.31
317.96,2.29
321.14,2.27
324.35,2.25
327.59,2.23
330.87,2.22
334.18,2.20
337.52,2.18
340.90,2.17
344.30,2.14
347.75,2.13
351.23,2.13
354.74,2.11
358.28,2.08
361.87,2.08
365.49,2.06
369.14,2.04
372.83,2.03
376.56,2.01
380.33,2.00
384.13,1.98
387.97,1.96
391.85,1.94
395.77,1.92
399.73,1.90
403.72,1.87
407.76,1.85
411.84,1.83
415.96,1.81
420.12,1.78
424.32,1.75
428.56,1.73
432.85,1.71
437.18,1.68
441.55,1.65
445.96,1.63
450.42,1.60
454.93,1.57
459.48,1.55
464.07,1.52
468.71,1.48
473.40,1.45
478.13,1.43
482.91,1.40
487.74,1.36
492.62,1.32
497.55,1.29
502.52,1.24
507.55,1.21
512.62,1.18
517.75,1.14
522.93,1.09
528.16,1.06
533.44,1.01
538.77,0.97
544.16,0.92
549.60,0.87
555.10,0.83
560.65,0.78
566.25,0.73
571.92,0.68
577.64,0.63
583.41,0.57
589.25,0.53
595.14,0.47
601.09,0.43
607.10,0.37
613.17,0.31
619.30,0.27
625.50,0.22
631.75,0.18
638.07,0.13
644.45,0.08
650.89,0.04
657.40,-0.01
663.98,-0.07
670.62,-0.12
677.32,-0.17
684.10,-0.22
690.94,-0.26
697.85,-0.32
704.83,-0.38
711.87,-0.43
718.99,-0.48
726.18,-0.54
733.44,-0.59
740.78,-0.63
748.19,-0.68
755.67,-0.73
763.23,-0.77
770.86,-0.81
778.57,-0.84
786.35,-0.88
794.22,-0.91
802.16,-0.93
810.18,-0.95
818.28,-0.97
826.46,-0.97
834.73,-0.96
843.08,-0.96
851.51,-0.94
860.02,-0.90
868.62,-0.87
877.31,-0.84
886.08,-0.79
894.94,-0.74
903.89,-0.69
912.93,-0.64
922.06,-0.58
931.28,-0.53
940.59,-0.47
950.00,-0.41
959.50,-0.36
969.09,-0.31
978.78,-0.27
988.57,-0.23
998.46,-0.17
1008.44,-0.12
1018.53,-0.06
1028.71,-0.01
1039.00,0.03
1049.39,0.08
1059.88,0.15
1070.48,0.19
1081.19,0.24
1092.00,0.30
1102.92,0.34
1113.95,0.41
1125.09,0.45
1136.34,0.51
1147.70,0.56
1159.18,0.61
1170.77,0.66
1182.48,0.71
1194.30,0.74
1206.25,0.79
1218.31,0.83
1230.49,0.87
1242.80,0.92
1255.22,0.97
1267.78,1.00
1280.45,1.05
1293.26,1.10
1306.19,1.13
1319.25,1.18
1332.45,1.22
1345.77,1.27
1359.23,1.33
1372.82,1.38
1386.55,1.44
1400.41,1.51
1414.42,1.56
1428.56,1.62
1442.85,1.68
1457.28,1.75
1471.85,1.81
1486.57,1.87
1501.43,1.93
1516.45,2.00
1531.61,2.06
1546.93,2.13
1562.40,2.19
1578.02,2.25
1593.80,2.31
1609.74,2.37
1625.84,2.44
1642.10,2.51
1658.52,2.57
1675.10,2.62
1691.85,2.70
1708.77,2.76
1725.86,2.83
1743.12,2.90
1760.55,2.96
1778.15,3.04
1795.94,3.10
1813.90,3.18
1832.03,3.24
1850.36,3.31
1868.86,3.39
1887.55,3.45
1906.42,3.53
1925.49,3.59
1944.74,3.65
1964.19,3.71
1983.83,3.78
2003.67,3.84
2023.71,3.89
2043.94,3.94
2064.38,3.97
2085.03,4.01
2105.88,4.05
2126.94,4.08
2148.20,4.10
2169.69,4.13
2191.38,4.14
2213.30,4.16
2235.43,4.18
2257.78,4.20
2280.36,4.21
2303.17,4.21
2326.20,4.21
2349.46,4.22
2372.95,4.21
2396.68,4.22
2420.65,4.20
2444.86,4.21
2469.31,4.20
2494.00,4.20
2518.94,4.18
2544.13,4.18
2569.57,4.17
2595.27,4.14
2621.22,4.13
2647.43,4.12
2673.90,4.10
2700.64,4.08
2727.65,4.05
2754.93,4.03
2782.48,4.00
2810.30,3.95
2838.40,3.91
2866.79,3.87
2895.46,3.82
2924.41,3.76
2953.65,3.70
2983.19,3.64
3013.02,3.56
3043.15,3.50
3073.58,3.42
3104.32,3.35
3135.36,3.25
3166.72,3.17
3198.38,3.08
3230.37,2.99
3262.67,2.90
3295.30,2.81
3328.25,2.73
3361.53,2.63
3395.15,2.55
3429.10,2.47
3463.39,2.38
3498.03,2.30
3533.01,2.22
3568.34,2.16
3604.02,2.08
3640.06,2.01
3676.46,1.95
3713.22,1.88
3750.36,1.83
3787.86,1.78
3825.74,1.74
3864.00,1.70
3902.64,1.66
3941.66,1.63
3981.08,1.60
4020.89,1.58
4061.10,1.57
4101.71,1.55
4142.73,1.56
4184.15,1.56
4226.00,1.56
4268.26,1.58
4310.94,1.60
4354.05,1.63
4397.59,1.65
4441.56,1.68
4485.98,1.72
4530.84,1.74
4576.15,1.77
4621.91,1.80
4668.13,1.82
4714.81,1.85
4761.96,1.86
4809.58,1.87
4857.67,1.88
4906.25,1.89
4955.31,1.88
5004.87,1.88
5054.91,1.86
5105.46,1.85
5156.52,1.82
5208.08,1.79
5260.16,1.75
5312.77,1.70
5365.89,1.65
5419.55,1.61
5473.75,1.56
5528.49,1.51
5583.77,1.47
5639.61,1.41
5696.00,1.38
5752.96,1.36
5810.49,1.31
5868.60,1.31
5927.28,1.28
5986.56,1.28
6046.42,1.29
6106.89,1.29
6167.96,1.30
6229.64,1.33
6291.93,1.35
6354.85,1.38
6418.40,1.42
6482.58,1.46
6547.41,1.52
6612.88,1.55
6679.01,1.60
6745.80,1.64
6813.26,1.66
6881.39,1.66
6950.21,1.66
7019.71,1.62
7089.91,1.58
7160.81,1.53
7232.41,1.47
7304.74,1.48
7377.79,1.51
7451.56,1.55
7526.08,1.69
7601.34,1.83
7677.35,1.97
7754.13,2.09
7831.67,2.12
7909.98,2.10
7989.08,1.93
8068.98,1.63
8149.67,1.24
8231.16,0.72
8313.47,0.08
8396.61,-0.60
8480.57,-1.35
8565.38,-2.10
8651.03,-2.86
8737.54,-3.61
8824.92,-4.33
8913.17,-5.01
9002.30,-5.66
9092.32,-6.26
9183.25,-6.81
9275.08,-7.31
9367.83,-7.77
9461.51,-8.17
9556.12,-8.53
9651.68,-8.84
9748.20,-9.10
9845.68,-9.31
9944.14,-9.47
10043.58,-9.59
10144.02,-9.67
10245.46,-9.71
10347.91,-9.72
10451.39,-9.70
10555.91,-9.68
10661.46,-9.62
10768.08,-9.57
10875.76,-9.50
10984.52,-9.43
11094.36,-9.37
11205.31,-9.29
11317.36,-9.23
11430.53,-9.16
11544.84,-9.11
11660.29,-9.06
11776.89,-9.00
11894.66,-8.94
12013.60,-8.86
12133.74,-8.78
12255.08,-8.69
12377.63,-8.60
12501.41,-8.52
12626.42,-8.43
12752.68,-8.37
12880.21,-8.31
13009.01,-8.29
13139.10,-8.29
13270.49,-8.32
13403.20,-8.41
13537.23,-8.52
13672.60,-8.66
13809.33,-8.83
13947.42,-9.02
14086.90,-9.23
14227.77,-9.47
14370.04,-9.72
14513.74,-10.00
14658.88,-10.28
14805.47,-10.54
14953.52,-10.80
15103.06,-11.05
15254.09,-11.26
15406.63,-11.44
15560.70,-11.60
15716.30,-11.70
15873.47,-11.76
16032.20,-11.80
16192.52,-11.81
16354.45,-11.83
16517.99,-11.88
16683.17,-11.96
16850.01,-12.09
17018.51,-12.27
17188.69,-12.54
17360.58,-12.97
17534.18,-13.55
17709.53,-14.31
17886.62,-15.28
18065.49,-16.25
18246.14,-17.32
18428.60,-18.53
18612.89,-19.79
18799.02,-21.08
18987.01,-22.41
19176.88,-23.76
19368.65,-25.12
19562.33,-26.47
19757.96,-27.87
19955.54,-29.33
