frequency,raw,error,smoothed,error_smoothed,equalization,parametric_eq,fixed_band_eq,equalized_raw,equalized_smoothed,target
20.00,-4.90,-5.83,-4.90,-5.83,5.84,5.73,2.46,0.94,0.94,0.93
20.20,-4.87,-5.81,-4.87,-5.81,5.81,5.75,2.53,0.94,0.94,0.94
20.40,-4.84,-5.79,-4.84,-5.79,5.79,5.76,2.60,0.95,0.95,0.95
20.61,-4.81,-5.76,-4.81,-5.77,5.76,5.77,2.68,0.95,0.95,0.95
20.81,-4.79,-5.75,-4.79,-5.74,5.74,5.79,2.76,0.95,0.95,0.96
21.02,-4.76,-5.72,-4.76,-5.73,5.72,5.80,2.83,0.96,0.96,0.96
21.23,-4.74,-5.71,-4.74,-5.71,5.70,5.80,2.92,0.96,0.96,0.97
21.44,-4.72,-5.69,-4.72,-5.68,5.68,5.81,3.00,0.96,0.97,0.97
21.66,-4.69,-5.66,-4.69,-5.66,5.67,5.82,3.09,0.98,0.98,0.97
21.87,-4.67,-5.64,-4.67,-5.65,5.65,5.82,3.18,0.98,0.98,0.97
22.09,-4.66,-5.64,-4.66,-5.64,5.64,5.83,3.27,0.98,0.98,0.98
22.31,-4.66,-5.64,-4.66,-5.63,5.63,5.83,3.36,0.97,0.97,0.98
22.54,-4.66,-5.63,-4.66,-5.63,5.63,5.83,3.46,0.97,0.97,0.97
22.76,-4.66,-5.62,-4.66,-5.62,5.62,5.83,3.56,0.96,0.96,0.96
22.99,-4.66,-5.62,-4.66,-5.62,5.62,5.83,3.66,0.96,0.96,0.96
23.22,-4.66,-5.62,-4.66,-5.61,5.62,5.83,3.76,0.96,0.96,0.96
23.45,-4.66,-5.61,-4.66,-5.61,5.61,5.82,3.87,0.95,0.95,0.95
23.69,-4.66,-5.61,-4.66,-5.61,5.60,5.82,3.98,0.94,0.94,0.95
23.92,-4.66,-5.61,-4.66,-5.60,5.59,5.81,4.09,0.93,0.93,0.95
24.16,-4.64,-5.59,-4.64,-5.59,5.57,5.81,4.20,0.93,0.93,0.95
24.40,-4.62,-5.57,-4.62,-5.56,5.56,5.80,4.31,0.94,0.94,0.94
24.65,-4.59,-5.54,-4.59,-5.54,5.55,5.79,4.43,0.96,0.95,0.94
24.89,-4.57,-5.51,-4.57,-5.52,5.53,5.78,4.55,0.96,0.96,0.94
25.14,-4.56,-5.50,-4.56,-5.50,5.52,5.77,4.66,0.96,0.96,0.94
25.39,-4.56,-5.49,-4.56,-5.50,5.50,5.76,4.78,0.94,0.94,0.93
25.65,-4.56,-5.49,-4.56,-5.49,5.49,5.75,4.90,0.93,0.93,0.93
25.91,-4.56,-5.49,-4.56,-5.49,5.47,5.74,5.02,0.91,0.91,0.93
26.16,-4.54,-5.47,-4.54,-5.47,5.46,5.73,5.14,0.92,0.91,0.93
26.43,-4.52,-5.45,-4.52,-5.45,5.44,5.71,5.26,0.92,0.92,0.93
26.69,-4.49,-5.42,-4.49,-5.42,5.43,5.70,5.38,0.94,0.94,0.93
26.96,-4.46,-5.39,-4.47,-5.40,5.41,5.69,5.49,0.95,0.94,0.93
27.23,-4.46,-5.39,-4.46,-5.39,5.40,5.67,5.61,0.94,0.94,0.93
27.50,-4.46,-5.39,-4.46,-5.39,5.39,5.66,5.72,0.93,0.93,0.93
27.77,-4.46,-5.39,-4.46,-5.39,5.38,5.64,5.82,0.92,0.92,0.93
28.05,-4.46,-5.39,-4.46,-5.39,5.38,5.63,5.93,0.92,0.92,0.93
28.33,-4.46,-5.39,-4.46,-5.39,5.38,5.61,6.02,0.92,0.92,0.93
28.62,-4.46,-5.39,-4.46,-5.39,5.39,5.59,6.11,0.93,0.93,0.92
28.90,-4.46,-5.39,-4.46,-5.39,5.39,5.58,6.20,0.93,0.93,0.93
29.19,-4.46,-5.39,-4.46,-5.39,5.39,5.56,6.28,0.93,0.93,0.93
29.48,-4.46,-5.39,-4.46,-5.40,5.40,5.54,6.35,0.94,0.94,0.93
29.78,-4.46,-5.40,-4.46,-5.40,5.40,5.53,6.41,0.94,0.94,0.94
30.08,-4.46,-5.40,-4.46,-5.40,5.40,5.51,6.46,0.94,0.94,0.94
30.38,-4.46,-5.40,-4.46,-5.40,5.41,5.49,6.50,0.95,0.94,0.94
30.68,-4.46,-5.40,-4.46,-5.40,5.40,5.48,6.53,0.94,0.94,0.94
30.99,-4.46,-5.40,-4.46,-5.39,5.39,5.46,6.56,0.93,0.94,0.94
31.30,-4.45,-5.39,-4.45,-5.39,5.38,5.44,6.57,0.93,0.92,0.94
31.61,-4.44,-5.37,-4.44,-5.38,5.35,5.42,6.57,0.91,0.91,0.93
31.93,-4.43,-5.36,-4.42,-5.35,5.33,5.41,6.56,0.90,0.91,0.93
32.24,-4.39,-5.31,-4.38,-5.31,5.30,5.39,6.54,0.91,0.92,0.92
32.57,-4.33,-5.25,-4.33,-5.25,5.27,5.37,6.52,0.94,0.94,0.92
32.89,-4.28,-5.20,-4.29,-5.21,5.24,5.35,6.48,0.96,0.95,0.92
33.22,-4.27,-5.18,-4.28,-5.19,5.21,5.33,6.43,0.94,0.93,0.91
33.55,-4.28,-5.19,-4.28,-5.19,5.17,5.32,6.38,0.89,0.89,0.91
33.89,-4.30,-5.19,-4.29,-5.18,5.15,5.30,6.32,0.85,0.86,0.89
34.23,-4.27,-5.16,-4.26,-5.15,5.13,5.28,6.25,0.86,0.87,0.89
34.57,-4.22,-5.11,-4.22,-5.11,5.12,5.26,6.18,0.90,0.90,0.89
34.92,-4.17,-5.06,-4.19,-5.08,5.12,5.24,6.10,0.95,0.93,0.89
35.27,-4.19,-5.08,-4.19,-5.08,5.12,5.22,6.02,0.93,0.92,0.89
35.62,-4.22,-5.11,-4.22,-5.10,5.12,5.20,5.93,0.90,0.90,0.88
35.97,-4.26,-5.14,-4.25,-5.13,5.12,5.19,5.84,0.86,0.87,0.88
36.33,-4.26,-5.14,-4.26,-5.14,5.12,5.17,5.75,0.86,0.86,0.88
36.70,-4.26,-5.14,-4.27,-5.14,5.12,5.15,5.66,0.86,0.86,0.88
37.06,-4.26,-5.14,-4.25,-5.13,5.11,5.13,5.56,0.85,0.86,0.88
37.43,-4.23,-5.10,-4.24,-5.11,5.10,5.11,5.47,0.87,0.86,0.87
37.81,-4.20,-5.08,-4.20,-5.08,5.07,5.09,5.37,0.87,0.87,0.88
38.19,-4.16,-5.04,-4.15,-5.03,5.04,5.07,5.28,0.88,0.89,0.88
38.57,-4.09,-4.97,-4.09,-4.97,5.00,5.05,5.18,0.90,0.90,0.88
38.95,-4.03,-4.91,-4.04,-4.92,4.94,5.03,5.09,0.91,0.89,0.88
39.34,-4.00,-4.88,-4.01,-4.89,4.88,5.00,5.00,0.88,0.87,0.88
39.74,-3.98,-4.86,-3.97,-4.85,4.81,4.98,4.91,0.83,0.84,0.88
40.14,-3.92,-4.79,-3.89,-4.77,4.74,4.96,4.83,0.81,0.84,0.87
40.54,-3.79,-4.66,-3.79,-4.66,4.66,4.94,4.74,0.87,0.87,0.87
40.94,-3.66,-4.53,-3.70,-4.56,4.58,4.91,4.66,0.92,0.88,0.87
41.35,-3.62,-4.48,-3.62,-4.48,4.50,4.89,4.58,0.88,0.88,0.86
41.76,-3.59,-4.44,-3.57,-4.42,4.43,4.86,4.51,0.84,0.85,0.85
42.18,-3.53,-4.38,-3.51,-4.36,4.36,4.84,4.43,0.83,0.85,0.85
42.60,-3.45,-4.29,-3.45,-4.29,4.31,4.81,4.36,0.86,0.86,0.84
43.03,-3.38,-4.22,-3.41,-4.25,4.28,4.78,4.30,0.90,0.87,0.84
43.46,-3.41,-4.24,-3.41,-4.24,4.26,4.76,4.23,0.85,0.85,0.83
43.90,-3.44,-4.26,-3.43,-4.25,4.25,4.73,4.17,0.81,0.82,0.82
44.33,-3.45,-4.26,-3.45,-4.26,4.24,4.70,4.12,0.79,0.79,0.81
44.78,-3.45,-4.26,-3.45,-4.26,4.24,4.67,4.06,0.79,0.79,0.81
45.23,-3.45,-4.25,-3.45,-4.26,4.24,4.64,4.01,0.79,0.79,0.80
45.68,-3.45,-4.25,-3.45,-4.25,4.25,4.61,3.96,0.80,0.80,0.80
46.13,-3.45,-4.25,-3.45,-4.25,4.25,4.57,3.92,0.80,0.80,0.80
46.60,-3.45,-4.25,-3.45,-4.25,4.25,4.54,3.88,0.80,0.80,0.80
47.06,-3.45,-4.25,-3.45,-4.25,4.26,4.51,3.84,0.80,0.80,0.80
47.53,-3.45,-4.26,-3.45,-4.25,4.27,4.47,3.80,0.82,0.82,0.80
48.01,-3.45,-4.26,-3.44,-4.25,4.28,4.44,3.77,0.83,0.83,0.81
48.49,-3.45,-4.26,-3.45,-4.26,4.28,4.40,3.74,0.83,0.84,0.81
48.97,-3.45,-4.27,-3.48,-4.30,4.29,4.36,3.71,0.84,0.80,0.81
49.46,-3.51,-4.33,-3.51,-4.33,4.29,4.33,3.68,0.78,0.77,0.82
49.96,-3.56,-4.39,-3.51,-4.33,4.29,4.29,3.66,0.73,0.79,0.83
50.46,-3.47,-4.30,-3.47,-4.30,4.29,4.25,3.64,0.82,0.83,0.83
50.96,-3.36,-4.21,-3.41,-4.25,4.29,4.21,3.62,0.93,0.88,0.84
51.47,-3.37,-4.22,-3.38,-4.22,4.28,4.16,3.60,0.91,0.91,0.85
51.99,-3.40,-4.25,-3.39,-4.24,4.26,4.12,3.59,0.86,0.87,0.85
52.51,-3.42,-4.27,-3.42,-4.27,4.23,4.08,3.57,0.81,0.81,0.85
53.03,-3.42,-4.27,-3.39,-4.24,4.19,4.04,3.56,0.77,0.80,0.85
53.56,-3.33,-4.18,-3.34,-4.19,4.15,3.99,3.55,0.82,0.82,0.85
54.10,-3.24,-4.10,-3.26,-4.12,4.12,3.95,3.54,0.88,0.86,0.86
54.64,-3.19,-4.05,-3.18,-4.04,4.09,3.90,3.52,0.90,0.91,0.86
55.18,-3.13,-3.99,-3.12,-3.98,4.05,3.86,3.51,0.92,0.93,0.86
55.74,-3.08,-3.93,-3.10,-3.96,3.99,3.81,3.50,0.91,0.89,0.85
56.29,-3.07,-3.92,-3.10,-3.94,3.92,3.77,3.49,0.85,0.83,0.85
56.86,-3.12,-3.97,-3.08,-3.92,3.85,3.72,3.48,0.73,0.77,0.85
57.42,-3.03,-3.86,-3.02,-3.85,3.78,3.67,3.47,0.75,0.76,0.84
58.00,-2.90,-3.72,-2.90,-3.72,3.70,3.62,3.45,0.80,0.80,0.82
58.58,-2.74,-3.55,-2.76,-3.57,3.61,3.58,3.44,0.87,0.85,0.81
59.16,-2.63,-3.43,-2.66,-3.46,3.51,3.53,3.42,0.88,0.84,0.80
59.76,-2.61,-3.39,-2.59,-3.37,3.40,3.48,3.40,0.79,0.81,0.78
60.35,-2.55,-3.31,-2.53,-3.29,3.29,3.43,3.38,0.74,0.75,0.76
60.96,-2.46,-3.20,-2.47,-3.21,3.19,3.38,3.36,0.72,0.71,0.73
61.57,-2.39,-3.10,-2.39,-3.10,3.10,3.33,3.33,0.71,0.70,0.71
62.18,-2.33,-3.00,-2.32,-3.00,3.02,3.29,3.31,0.68,0.69,0.67
62.80,-2.27,-2.91,-2.28,-2.92,2.94,3.24,3.28,0.66,0.66,0.64
63.43,-2.25,-2.84,-2.26,-2.85,2.85,3.19,3.25,0.60,0.59,0.59
64.07,-2.25,-2.81,-2.25,-2.80,2.78,3.14,3.21,0.53,0.52,0.55
64.71,-2.25,-2.76,-2.22,-2.73,2.71,3.09,3.18,0.46,0.49,0.51
65.35,-2.19,-2.66,-2.18,-2.65,2.65,3.04,3.14,0.46,0.47,0.47
66.01,-2.09,-2.52,-2.14,-2.57,2.59,3.00,3.10,0.50,0.46,0.43
66.67,-2.12,-2.51,-2.12,-2.51,2.54,2.95,3.05,0.42,0.43,0.39
67.33,-2.14,-2.50,-2.13,-2.48,2.50,2.90,3.01,0.35,0.37,0.36
68.01,-2.15,-2.47,-2.15,-2.47,2.45,2.85,2.96,0.30,0.30,0.32
68.69,-2.15,-2.44,-2.15,-2.44,2.42,2.81,2.91,0.27,0.27,0.29
69.37,-2.15,-2.41,-2.15,-2.41,2.40,2.76,2.86,0.25,0.25,0.26
70.07,-2.15,-2.38,-2.15,-2.38,2.39,2.71,2.81,0.24,0.24,0.23
70.77,-2.15,-2.35,-2.14,-2.34,2.38,2.67,2.76,0.23,0.24,0.20
71.48,-2.15,-2.32,-2.17,-2.34,2.36,2.62,2.71,0.21,0.19,0.17
72.19,-2.18,-2.32,-2.22,-2.35,2.34,2.57,2.66,0.16,0.12,0.14
72.91,-2.31,-2.42,-2.26,-2.36,2.31,2.53,2.60,-0.00,0.05,0.10
73.64,-2.28,-2.35,-2.28,-2.35,2.29,2.48,2.55,0.01,0.01,0.07
74.38,-2.25,-2.29,-2.26,-2.29,2.27,2.44,2.50,0.02,0.01,0.03
75.12,-2.24,-2.24,-2.22,-2.21,2.27,2.40,2.44,0.03,0.05,-0.00
75.87,-2.18,-2.13,-2.22,-2.18,2.26,2.35,2.39,0.08,0.04,-0.05
76.63,-2.26,-2.18,-2.27,-2.19,2.25,2.31,2.33,-0.01,-0.03,-0.09
77.40,-2.37,-2.24,-2.36,-2.23,2.23,2.27,2.28,-0.14,-0.13,-0.13
78.17,-2.46,-2.29,-2.45,-2.28,2.22,2.23,2.23,-0.25,-0.23,-0.17
78.95,-2.51,-2.29,-2.49,-2.27,2.20,2.18,2.18,-0.31,-0.29,-0.22
79.74,-2.47,-2.21,-2.48,-2.22,2.18,2.14,2.13,-0.29,-0.30,-0.26
80.54,-2.45,-2.14,-2.46,-2.16,2.15,2.10,2.08,-0.30,-0.31,-0.31
81.35,-2.45,-2.10,-2.45,-2.10,2.12,2.06,2.03,-0.33,-0.33,-0.35
82.16,-2.45,-2.06,-2.45,-2.06,2.08,2.02,1.98,-0.37,-0.37,-0.39
82.98,-2.45,-2.02,-2.45,-2.02,2.04,1.99,1.94,-0.41,-0.41,-0.43
83.81,-2.45,-1.97,-2.44,-1.97,2.00,1.95,1.89,-0.45,-0.44,-0.48
84.65,-2.45,-1.94,-2.44,-1.93,1.97,1.91,1.85,-0.48,-0.48,-0.51
85.50,-2.45,-1.90,-2.48,-1.93,1.94,1.87,1.81,-0.51,-0.55,-0.55
86.35,-2.52,-1.92,-2.54,-1.94,1.91,1.84,1.76,-0.61,-0.63,-0.60
87.22,-2.63,-1.99,-2.58,-1.94,1.88,1.80,1.72,-0.75,-0.70,-0.64
88.09,-2.59,-1.91,-2.57,-1.89,1.85,1.76,1.69,-0.74,-0.72,-0.69
88.97,-2.53,-1.81,-2.53,-1.81,1.83,1.73,1.65,-0.70,-0.71,-0.72
89.86,-2.45,-1.68,-2.52,-1.75,1.81,1.69,1.61,-0.64,-0.71,-0.77
90.76,-2.56,-1.75,-2.55,-1.74,1.79,1.66,1.58,-0.77,-0.76,-0.81
91.66,-2.63,-1.78,-2.59,-1.74,1.77,1.63,1.54,-0.86,-0.83,-0.85
92.58,-2.64,-1.75,-2.64,-1.75,1.74,1.59,1.51,-0.91,-0.91,-0.89
93.51,-2.64,-1.71,-2.67,-1.74,1.70,1.56,1.48,-0.94,-0.97,-0.93
94.44,-2.68,-1.71,-2.69,-1.72,1.67,1.53,1.45,-1.01,-1.02,-0.97
95.39,-2.72,-1.71,-2.68,-1.67,1.63,1.50,1.42,-1.09,-1.05,-1.01
96.34,-2.67,-1.62,-2.65,-1.60,1.59,1.47,1.39,-1.08,-1.06,-1.05
97.30,-2.55,-1.47,-2.60,-1.51,1.54,1.43,1.36,-1.01,-1.06,-1.09
98.28,-2.56,-1.43,-2.56,-1.43,1.48,1.40,1.34,-1.08,-1.08,-1.13
99.26,-2.58,-1.41,-2.57,-1.39,1.43,1.37,1.31,-1.15,-1.14,-1.17
100.25,-2.59,-1.38,-2.59,-1.38,1.38,1.35,1.29,-1.21,-1.21,-1.21
101.25,-2.61,-1.36,-2.61,-1.35,1.34,1.32,1.26,-1.27,-1.27,-1.25
102.27,-2.62,-1.32,-2.62,-1.32,1.31,1.29,1.24,-1.31,-1.31,-1.30
103.29,-2.64,-1.29,-2.64,-1.29,1.29,1.26,1.22,-1.36,-1.36,-1.35
104.32,-2.66,-1.26,-2.66,-1.26,1.26,1.23,1.20,-1.40,-1.39,-1.40
105.37,-2.68,-1.24,-2.68,-1.24,1.24,1.21,1.18,-1.44,-1.44,-1.44
106.42,-2.70,-1.21,-2.70,-1.22,1.21,1.18,1.16,-1.49,-1.49,-1.49
107.48,-2.73,-1.19,-2.73,-1.19,1.18,1.15,1.14,-1.55,-1.54,-1.54
108.56,-2.75,-1.16,-2.75,-1.16,1.16,1.13,1.12,-1.59,-1.59,-1.59
109.64,-2.77,-1.13,-2.77,-1.14,1.14,1.10,1.10,-1.63,-1.64,-1.64
110.74,-2.79,-1.12,-2.79,-1.12,1.12,1.08,1.08,-1.67,-1.67,-1.68
111.85,-2.81,-1.10,-2.80,-1.08,1.11,1.05,1.06,-1.70,-1.69,-1.71
112.97,-2.82,-1.07,-2.83,-1.08,1.10,1.03,1.05,-1.73,-1.73,-1.75
114.10,-2.83,-1.04,-2.87,-1.08,1.08,1.01,1.03,-1.75,-1.79,-1.79
115.24,-2.95,-1.13,-2.91,-1.09,1.07,0.98,1.01,-1.88,-1.84,-1.82
116.39,-2.94,-1.08,-2.94,-1.08,1.06,0.96,0.99,-1.88,-1.88,-1.86
117.55,-2.93,-1.06,-2.94,-1.06,1.04,0.94,0.98,-1.89,-1.90,-1.88
118.73,-2.92,-1.02,-2.92,-1.02,1.02,0.92,0.96,-1.90,-1.90,-1.90
119.92,-2.91,-0.99,-2.91,-0.99,1.00,0.89,0.94,-1.91,-1.91,-1.92
121.12,-2.90,-0.96,-2.90,-0.97,0.98,0.87,0.92,-1.92,-1.93,-1.94
122.33,-2.90,-0.95,-2.90,-0.94,0.95,0.85,0.91,-1.95,-1.95,-1.95
123.55,-2.89,-0.92,-2.89,-0.92,0.92,0.83,0.89,-1.97,-1.97,-1.97
124.79,-2.88,-0.90,-2.88,-0.90,0.90,0.81,0.87,-1.98,-1.99,-1.98
126.03,-2.87,-0.87,-2.87,-0.88,0.87,0.79,0.85,-2.00,-2.00,-2.00
127.29,-2.87,-0.86,-2.87,-0.85,0.85,0.77,0.83,-2.02,-2.01,-2.01
128.57,-2.86,-0.83,-2.86,-0.83,0.83,0.75,0.81,-2.03,-2.03,-2.03
129.85,-2.85,-0.81,-2.85,-0.81,0.81,0.73,0.80,-2.04,-2.04,-2.04
131.15,-2.85,-0.80,-2.85,-0.79,0.79,0.71,0.78,-2.06,-2.06,-2.05
132.46,-2.84,-0.76,-2.84,-0.77,0.77,0.69,0.76,-2.07,-2.07,-2.08
133.79,-2.84,-0.75,-2.84,-0.75,0.75,0.67,0.74,-2.09,-2.09,-2.09
135.12,-2.84,-0.73,-2.84,-0.73,0.73,0.66,0.72,-2.11,-2.11,-2.11
136.48,-2.83,-0.71,-2.83,-0.71,0.71,0.64,0.69,-2.12,-2.12,-2.12
137.84,-2.83,-0.69,-2.83,-0.69,0.69,0.62,0.67,-2.14,-2.14,-2.14
139.22,-2.83,-0.67,-2.83,-0.67,0.67,0.60,0.65,-2.16,-2.16,-2.16
140.61,-2.83,-0.65,-2.83,-0.65,0.65,0.59,0.63,-2.18,-2.18,-2.18
142.02,-2.83,-0.63,-2.83,-0.63,0.63,0.57,0.61,-2.20,-2.20,-2.20
143.44,-2.83,-0.60,-2.83,-0.61,0.61,0.55,0.59,-2.22,-2.22,-2.23
144.87,-2.83,-0.58,-2.83,-0.58,0.58,0.54,0.57,-2.25,-2.25,-2.25
146.32,-2.83,-0.55,-2.83,-0.55,0.55,0.52,0.55,-2.28,-2.28,-2.28
147.78,-2.83,-0.51,-2.83,-0.52,0.51,0.50,0.52,-2.32,-2.32,-2.32
149.26,-2.83,-0.48,-2.83,-0.48,0.46,0.49,0.50,-2.37,-2.37,-2.35
150.75,-2.83,-0.43,-2.84,-0.44,0.41,0.47,0.48,-2.42,-2.43,-2.40
152.26,-2.83,-0.38,-2.83,-0.38,0.36,0.46,0.46,-2.47,-2.47,-2.45
153.78,-2.83,-0.32,-2.80,-0.29,0.31,0.44,0.44,-2.52,-2.49,-2.51
155.32,-2.78,-0.21,-2.79,-0.22,0.27,0.43,0.41,-2.51,-2.52,-2.57
156.88,-2.74,-0.12,-2.81,-0.18,0.23,0.41,0.39,-2.51,-2.58,-2.62
158.44,-2.88,-0.20,-2.85,-0.17,0.19,0.40,0.37,-2.69,-2.66,-2.68
160.03,-2.93,-0.20,-2.90,-0.17,0.15,0.38,0.35,-2.78,-2.75,-2.73
161.63,-2.93,-0.15,-2.95,-0.17,0.12,0.37,0.33,-2.81,-2.83,-2.78
163.24,-2.93,-0.10,-2.94,-0.11,0.08,0.35,0.31,-2.85,-2.85,-2.83
164.88,-2.93,-0.07,-2.91,-0.05,0.05,0.34,0.29,-2.88,-2.86,-2.86
166.53,-2.88,0.00,-2.90,-0.01,0.01,0.32,0.27,-2.87,-2.89,-2.88
168.19,-2.85,0.05,-2.87,0.03,-0.03,0.31,0.24,-2.88,-2.90,-2.90
169.87,-2.88,0.03,-2.83,0.08,-0.07,0.30,0.22,-2.95,-2.90,-2.91
171.57,-2.79,0.13,-2.81,0.11,-0.09,0.28,0.20,-2.89,-2.90,-2.92
173.29,-2.76,0.16,-2.78,0.13,-0.11,0.27,0.18,-2.87,-2.89,-2.92
175.02,-2.77,0.13,-2.76,0.15,-0.12,0.26,0.16,-2.89,-2.88,-2.90
176.77,-2.77,0.12,-2.77,0.12,-0.12,0.24,0.14,-2.89,-2.88,-2.89
178.54,-2.77,0.10,-2.77,0.10,-0.11,0.23,0.12,-2.88,-2.88,-2.87
180.32,-2.77,0.08,-2.77,0.08,-0.10,0.22,0.10,-2.87,-2.86,-2.85
182.13,-2.76,0.07,-2.76,0.07,-0.08,0.20,0.08,-2.84,-2.84,-2.83
183.95,-2.75,0.06,-2.75,0.06,-0.07,0.19,0.06,-2.82,-2.83,-2.81
185.79,-2.74,0.06,-2.74,0.06,-0.07,0.18,0.04,-2.81,-2.81,-2.80
187.65,-2.73,0.07,-2.73,0.07,-0.07,0.16,0.02,-2.80,-2.80,-2.80
189.52,-2.71,0.08,-2.71,0.08,-0.08,0.15,0.00,-2.79,-2.79,-2.79
191.42,-2.70,0.09,-2.70,0.09,-0.09,0.14,-0.02,-2.79,-2.79,-2.79
193.33,-2.68,0.10,-2.68,0.10,-0.10,0.13,-0.04,-2.78,-2.79,-2.78
195.27,-2.67,0.11,-2.67,0.12,-0.12,0.11,-0.06,-2.79,-2.79,-2.79
197.22,-2.65,0.15,-2.65,0.14,-0.14,0.10,-0.08,-2.79,-2.79,-2.80
199.19,-2.64,0.16,-2.64,0.16,-0.15,0.09,-0.10,-2.79,-2.80,-2.80
201.18,-2.64,0.17,-2.64,0.17,-0.17,0.08,-0.12,-2.81,-2.80,-2.81
203.19,-2.63,0.19,-2.63,0.18,-0.18,0.06,-0.14,-2.81,-2.82,-2.82
205.23,-2.63,0.20,-2.63,0.20,-0.20,0.05,-0.16,-2.83,-2.83,-2.83
207.28,-2.63,0.21,-2.63,0.21,-0.21,0.04,-0.18,-2.84,-2.84,-2.84
209.35,-2.63,0.22,-2.63,0.22,-0.22,0.03,-0.19,-2.85,-2.85,-2.85
211.44,-2.63,0.23,-2.63,0.23,-0.23,0.02,-0.21,-2.86,-2.86,-2.87
213.56,-2.64,0.23,-2.64,0.24,-0.24,0.00,-0.23,-2.88,-2.88,-2.87
215.69,-2.64,0.25,-2.64,0.25,-0.25,-0.01,-0.25,-2.89,-2.89,-2.89
217.85,-2.64,0.26,-2.64,0.26,-0.26,-0.02,-0.27,-2.90,-2.90,-2.90
220.03,-2.65,0.27,-2.65,0.27,-0.27,-0.03,-0.29,-2.92,-2.91,-2.92
222.23,-2.65,0.27,-2.65,0.27,-0.27,-0.05,-0.30,-2.92,-2.92,-2.93
224.45,-2.65,0.28,-2.65,0.28,-0.28,-0.06,-0.32,-2.93,-2.93,-2.93
226.70,-2.65,0.29,-2.65,0.29,-0.29,-0.07,-0.34,-2.94,-2.94,-2.94
228.96,-2.65,0.30,-2.65,0.30,-0.30,-0.08,-0.35,-2.95,-2.95,-2.95
231.25,-2.64,0.30,-2.64,0.30,-0.31,-0.09,-0.37,-2.95,-2.95,-2.94
233.57,-2.63,0.32,-2.63,0.32,-0.32,-0.11,-0.39,-2.95,-2.95,-2.95
235.90,-2.62,0.32,-2.62,0.33,-0.32,-0.12,-0.40,-2.94,-2.94,-2.94
238.26,-2.60,0.34,-2.60,0.34,-0.33,-0.13,-0.42,-2.93,-2.93,-2.94
240.64,-2.58,0.35,-2.59,0.34,-0.33,-0.14,-0.43,-2.92,-2.92,-2.93
243.05,-2.57,0.35,-2.56,0.36,-0.34,-0.16,-0.44,-2.91,-2.91,-2.92
245.48,-2.55,0.37,-2.55,0.37,-0.36,-0.17,-0.46,-2.91,-2.91,-2.92
247.93,-2.52,0.39,-2.55,0.36,-0.38,-0.18,-0.47,-2.90,-2.94,-2.91
250.41,-2.55,0.36,-2.54,0.37,-0.41,-0.19,-0.48,-2.96,-2.94,-2.91
252.92,-2.55,0.35,-2.50,0.41,-0.44,-0.21,-0.49,-2.99,-2.93,-2.90
255.45,-2.40,0.50,-2.44,0.46,-0.47,-0.22,-0.50,-2.87,-2.91,-2.91
258.00,-2.37,0.54,-2.38,0.52,-0.49,-0.23,-0.51,-2.86,-2.88,-2.91
260.58,-2.36,0.55,-2.35,0.56,-0.52,-0.24,-0.52,-2.88,-2.87,-2.91
263.19,-2.36,0.56,-2.36,0.56,-0.54,-0.26,-0.53,-2.90,-2.90,-2.92
265.82,-2.36,0.56,-2.36,0.56,-0.56,-0.27,-0.54,-2.92,-2.92,-2.92
268.48,-2.36,0.56,-2.36,0.56,-0.57,-0.28,-0.55,-2.93,-2.93,-2.93
271.16,-2.37,0.56,-2.37,0.56,-0.57,-0.30,-0.56,-2.94,-2.94,-2.93
273.87,-2.37,0.56,-2.37,0.56,-0.57,-0.31,-0.57,-2.94,-2.94,-2.93
276.61,-2.37,0.56,-2.37,0.56,-0.56,-0.32,-0.58,-2.93,-2.94,-2.94
279.38,-2.37,0.57,-2.37,0.56,-0.56,-0.34,-0.58,-2.93,-2.93,-2.94
282.17,-2.37,0.56,-2.37,0.56,-0.57,-0.35,-0.59,-2.94,-2.94,-2.93
284.99,-2.36,0.56,-2.36,0.56,-0.57,-0.36,-0.60,-2.93,-2.93,-2.92
287.84,-2.36,0.57,-2.35,0.57,-0.57,-0.38,-0.61,-2.93,-2.92,-2.93
290.72,-2.34,0.58,-2.34,0.57,-0.57,-0.39,-0.61,-2.91,-2.91,-2.92
293.63,-2.33,0.58,-2.33,0.58,-0.57,-0.41,-0.62,-2.90,-2.90,-2.91
296.57,-2.32,0.58,-2.32,0.59,-0.57,-0.42,-0.63,-2.89,-2.89,-2.90
299.53,-2.31,0.60,-2.31,0.59,-0.59,-0.43,-0.64,-2.90,-2.90,-2.91
302.53,-2.30,0.60,-2.33,0.58,-0.60,-0.45,-0.65,-2.91,-2.93,-2.90
305.55,-2.33,0.57,-2.31,0.59,-0.63,-0.46,-0.65,-2.96,-2.94,-2.90
308.61,-2.32,0.58,-2.28,0.63,-0.65,-0.48,-0.66,-2.97,-2.93,-2.90
311.69,-2.19,0.72,-2.23,0.68,-0.68,-0.49,-0.67,-2.87,-2.91,-2.91
314.81,-2.17,0.75,-2.18,0.74,-0.71,-0.51,-0.68,-2.88,-2.88,-2.92
317.96,-2.16,0.76,-2.15,0.77,-0.73,-0.52,-0.69,-2.89,-2.88,-2.92
321.14,-2.16,0.77,-2.16,0.77,-0.75,-0.54,-0.70,-2.91,-2.91,-2.93
324.35,-2.16,0.77,-2.16,0.78,-0.77,-0.55,-0.71,-2.93,-2.93,-2.93
327.59,-2.16,0.78,-2.16,0.78,-0.78,-0.57,-0.72,-2.94,-2.94,-2.95
330.87,-2.17,0.79,-2.17,0.79,-0.78,-0.58,-0.74,-2.95,-2.95,-2.96
334.18,-2.17,0.80,-2.17,0.80,-0.80,-0.60,-0.75,-2.97,-2.96,-2.97
337.52,-2.17,0.81,-2.18,0.79,-0.82,-0.62,-0.76,-2.99,-3.00,-2.98
340.90,-2.17,0.81,-2.18,0.80,-0.85,-0.63,-0.78,-3.03,-3.04,-2.98
344.30,-2.19,0.80,-2.15,0.85,-0.90,-0.65,-0.79,-3.09,-3.05,-2.99
347.75,-2.10,0.91,-2.09,0.92,-0.94,-0.67,-0.80,-3.04,-3.03,-3.01
351.23,-1.98,1.04,-2.02,1.00,-0.98,-0.68,-0.82,-2.96,-3.00,-3.03
354.74,-1.96,1.08,-1.95,1.08,-1.01,-0.70,-0.84,-2.97,-2.97,-3.04
358.28,-1.95,1.10,-1.94,1.10,-1.04,-0.72,-0.85,-2.99,-2.99,-3.05
361.87,-1.95,1.11,-1.97,1.09,-1.07,-0.74,-0.87,-3.02,-3.04,-3.06
365.49,-2.02,1.06,-2.00,1.07,-1.09,-0.75,-0.89,-3.11,-3.09,-3.08
369.14,-2.04,1.05,-2.03,1.06,-1.09,-0.77,-0.91,-3.13,-3.12,-3.09
372.83,-2.04,1.06,-2.04,1.06,-1.09,-0.79,-0.93,-3.13,-3.14,-3.10
376.56,-2.03,1.08,-2.03,1.08,-1.09,-0.81,-0.95,-3.12,-3.12,-3.11
380.33,-2.02,1.10,-2.02,1.10,-1.09,-0.83,-0.97,-3.11,-3.11,-3.12
384.13,-2.01,1.12,-2.01,1.12,-1.11,-0.85,-0.99,-3.12,-3.12,-3.13
387.97,-2.01,1.13,-2.01,1.14,-1.13,-0.86,-1.01,-3.14,-3.14,-3.15
391.85,-2.01,1.15,-2.01,1.14,-1.15,-0.88,-1.03,-3.17,-3.17,-3.16
395.77,-2.00,1.17,-2.01,1.16,-1.18,-0.90,-1.06,-3.18,-3.19,-3.17
399.73,-2.01,1.17,-1.98,1.19,-1.21,-0.92,-1.08,-3.22,-3.19,-3.18
403.72,-1.94,1.25,-1.95,1.24,-1.24,-0.94,-1.10,-3.18,-3.19,-3.19
407.76,-1.91,1.30,-1.93,1.28,-1.26,-0.96,-1.13,-3.17,-3.19,-3.21
411.84,-1.91,1.31,-1.91,1.31,-1.28,-0.98,-1.15,-3.19,-3.19,-3.22
415.96,-1.92,1.31,-1.91,1.32,-1.30,-1.00,-1.18,-3.22,-3.22,-3.23
420.12,-1.91,1.32,-1.91,1.32,-1.32,-1.03,-1.20,-3.23,-3.24,-3.23
424.32,-1.91,1.33,-1.91,1.33,-1.34,-1.05,-1.23,-3.25,-3.25,-3.24
428.56,-1.90,1.34,-1.90,1.34,-1.35,-1.07,-1.25,-3.25,-3.25,-3.24
432.85,-1.89,1.34,-1.89,1.35,-1.35,-1.09,-1.28,-3.24,-3.24,-3.23
437.18,-1.86,1.36,-1.86,1.36,-1.36,-1.11,-1.30,-3.22,-3.22,-3.22
441.55,-1.82,1.38,-1.82,1.38,-1.38,-1.14,-1.32,-3.20,-3.20,-3.20
445.96,-1.78,1.40,-1.78,1.40,-1.40,-1.16,-1.35,-3.18,-3.18,-3.18
450.42,-1.73,1.42,-1.73,1.42,-1.43,-1.18,-1.37,-3.16,-3.16,-3.15
454.93,-1.67,1.44,-1.68,1.44,-1.46,-1.20,-1.40,-3.13,-3.14,-3.11
459.48,-1.61,1.46,-1.61,1.47,-1.50,-1.23,-1.42,-3.11,-3.11,-3.08
464.07,-1.54,1.51,-1.53,1.52,-1.53,-1.25,-1.44,-3.08,-3.06,-3.05
468.71,-1.43,1.58,-1.43,1.57,-1.56,-1.28,-1.46,-2.99,-3.00,-3.01
