frequency,raw,error,smoothed,error_smoothed,equalization,parametric_eq,fixed_band_eq,equalized_raw,equalized_smoothed,target
20.00,0.36,2.82,0.36,2.81,-2.81,-2.37,-1.92,-2.45,-2.45,-2.46
20.20,0.38,2.83,0.38,2.83,-2.83,-2.41,-1.97,-2.45,-2.45,-2.46
20.40,0.39,2.84,0.40,2.86,-2.86,-2.46,-2.03,-2.47,-2.46,-2.45
20.61,0.44,2.89,0.43,2.89,-2.89,-2.50,-2.09,-2.45,-2.46,-2.45
20.81,0.47,2.92,0.46,2.92,-2.92,-2.54,-2.16,-2.45,-2.46,-2.45
21.02,0.50,2.95,0.50,2.95,-2.95,-2.59,-2.22,-2.45,-2.45,-2.45
21.23,0.53,2.98,0.54,2.98,-2.98,-2.63,-2.29,-2.45,-2.45,-2.45
21.44,0.58,3.03,0.57,3.02,-3.02,-2.68,-2.35,-2.44,-2.45,-2.45
21.66,0.61,3.05,0.61,3.05,-3.05,-2.72,-2.43,-2.44,-2.45,-2.45
21.87,0.64,3.08,0.65,3.09,-3.09,-2.77,-2.50,-2.45,-2.44,-2.44
22.09,0.68,3.12,0.68,3.12,-3.13,-2.81,-2.57,-2.45,-2.45,-2.44
22.31,0.73,3.17,0.72,3.17,-3.17,-2.86,-2.65,-2.44,-2.44,-2.44
22.54,0.76,3.20,0.77,3.21,-3.20,-2.91,-2.73,-2.44,-2.44,-2.44
22.76,0.81,3.25,0.80,3.24,-3.24,-2.95,-2.81,-2.43,-2.44,-2.44
22.99,0.84,3.28,0.84,3.28,-3.28,-3.00,-2.89,-2.44,-2.44,-2.44
23.22,0.88,3.32,0.88,3.32,-3.32,-3.05,-2.97,-2.44,-2.44,-2.44
23.45,0.92,3.35,0.92,3.35,-3.35,-3.10,-3.06,-2.43,-2.44,-2.43
23.69,0.95,3.38,0.96,3.39,-3.39,-3.14,-3.15,-2.44,-2.43,-2.43
23.92,1.00,3.43,0.99,3.42,-3.42,-3.19,-3.24,-2.43,-2.43,-2.43
24.16,1.03,3.46,1.03,3.46,-3.46,-3.24,-3.33,-2.43,-2.43,-2.43
24.40,1.06,3.49,1.07,3.50,-3.50,-3.28,-3.42,-2.44,-2.43,-2.43
24.65,1.11,3.54,1.10,3.53,-3.53,-3.33,-3.52,-2.42,-2.43,-2.43
24.89,1.14,3.57,1.14,3.56,-3.57,-3.38,-3.61,-2.43,-2.43,-2.43
25.14,1.17,3.59,1.17,3.60,-3.60,-3.43,-3.71,-2.43,-2.43,-2.43
25.39,1.20,3.62,1.21,3.63,-3.63,-3.47,-3.80,-2.43,-2.43,-2.42
25.65,1.25,3.67,1.24,3.67,-3.66,-3.52,-3.90,-2.42,-2.42,-2.42
25.91,1.28,3.70,1.28,3.70,-3.70,-3.56,-4.00,-2.42,-2.42,-2.42
26.16,1.31,3.73,1.31,3.73,-3.73,-3.61,-4.09,-2.42,-2.42,-2.42
26.43,1.33,3.75,1.34,3.76,-3.76,-3.65,-4.19,-2.43,-2.42,-2.42
26.69,1.37,3.79,1.36,3.78,-3.78,-3.70,-4.28,-2.42,-2.42,-2.42
26.96,1.40,3.81,1.40,3.81,-3.81,-3.74,-4.38,-2.41,-2.42,-2.42
27.23,1.42,3.83,1.42,3.84,-3.84,-3.78,-4.47,-2.42,-2.41,-2.41
27.50,1.46,3.87,1.45,3.86,-3.86,-3.83,-4.55,-2.41,-2.41,-2.41
27.77,1.47,3.88,1.48,3.89,-3.89,-3.87,-4.64,-2.42,-2.41,-2.41
28.05,1.51,3.92,1.51,3.92,-3.91,-3.91,-4.72,-2.40,-2.41,-2.41
28.33,1.53,3.94,1.53,3.94,-3.93,-3.94,-4.79,-2.41,-2.41,-2.41
28.62,1.55,3.96,1.55,3.96,-3.96,-3.98,-4.86,-2.41,-2.40,-2.41
28.90,1.57,3.98,1.57,3.97,-3.97,-4.02,-4.93,-2.41,-2.41,-2.41
29.19,1.59,3.99,1.59,3.99,-3.99,-4.05,-4.98,-2.40,-2.41,-2.40
29.48,1.59,3.99,1.61,4.01,-4.01,-4.09,-5.03,-2.42,-2.40,-2.40
29.78,1.64,4.04,1.62,4.02,-4.02,-4.12,-5.08,-2.39,-2.40,-2.40
30.08,1.64,4.04,1.64,4.04,-4.04,-4.15,-5.11,-2.40,-2.40,-2.40
30.38,1.64,4.04,1.66,4.06,-4.05,-4.18,-5.14,-2.41,-2.40,-2.40
30.68,1.68,4.08,1.66,4.06,-4.07,-4.20,-5.16,-2.39,-2.40,-2.40
30.99,1.68,4.08,1.68,4.07,-4.08,-4.23,-5.16,-2.40,-2.40,-2.40
31.30,1.68,4.07,1.69,4.09,-4.09,-4.25,-5.16,-2.41,-2.39,-2.39
31.61,1.71,4.10,1.70,4.10,-4.10,-4.27,-5.16,-2.39,-2.39,-2.39
31.93,1.72,4.11,1.71,4.11,-4.10,-4.29,-5.14,-2.38,-2.39,-2.39
32.24,1.72,4.11,1.72,4.11,-4.11,-4.31,-5.11,-2.39,-2.38,-2.39
32.57,1.72,4.11,1.72,4.11,-4.11,-4.32,-5.07,-2.39,-2.39,-2.39
32.89,1.72,4.11,1.72,4.11,-4.11,-4.33,-5.03,-2.39,-2.39,-2.39
33.22,1.72,4.11,1.72,4.11,-4.11,-4.34,-4.98,-2.39,-2.39,-2.39
33.55,1.72,4.10,1.72,4.10,-4.11,-4.35,-4.92,-2.39,-2.39,-2.39
33.89,1.72,4.10,1.72,4.10,-4.10,-4.36,-4.86,-2.38,-2.38,-2.38
34.23,1.72,4.10,1.72,4.10,-4.10,-4.36,-4.78,-2.38,-2.38,-2.38
34.57,1.72,4.10,1.72,4.10,-4.10,-4.36,-4.71,-2.38,-2.38,-2.38
34.92,1.72,4.10,1.72,4.10,-4.10,-4.36,-4.63,-2.38,-2.38,-2.38
35.27,1.72,4.10,1.72,4.10,-4.10,-4.35,-4.54,-2.38,-2.38,-2.38
35.62,1.72,4.10,1.72,4.10,-4.10,-4.35,-4.45,-2.38,-2.38,-2.38
35.97,1.72,4.09,1.72,4.09,-4.09,-4.34,-4.36,-2.37,-2.37,-2.38
36.33,1.72,4.09,1.72,4.10,-4.09,-4.33,-4.26,-2.37,-2.37,-2.37
36.70,1.72,4.09,1.72,4.09,-4.08,-4.31,-4.16,-2.36,-2.37,-2.37
37.06,1.72,4.09,1.71,4.08,-4.08,-4.30,-4.06,-2.36,-2.37,-2.37
37.43,1.68,4.05,1.69,4.06,-4.07,-4.28,-3.96,-2.39,-2.37,-2.37
37.81,1.68,4.05,1.68,4.05,-4.06,-4.26,-3.86,-2.38,-2.37,-2.37
38.19,1.68,4.05,1.68,4.04,-4.05,-4.23,-3.76,-2.37,-2.37,-2.37
38.57,1.68,4.05,1.67,4.03,-4.03,-4.21,-3.66,-2.35,-2.37,-2.37
38.95,1.65,4.01,1.66,4.02,-4.02,-4.18,-3.56,-2.37,-2.36,-2.36
39.34,1.64,4.00,1.65,4.01,-4.01,-4.15,-3.45,-2.37,-2.36,-2.36
39.74,1.64,4.00,1.63,3.99,-3.99,-4.12,-3.36,-2.35,-2.36,-2.36
40.14,1.62,3.98,1.62,3.98,-3.98,-4.08,-3.26,-2.36,-2.36,-2.36
40.54,1.59,3.95,1.60,3.96,-3.96,-4.05,-3.16,-2.37,-2.36,-2.36
40.94,1.59,3.95,1.58,3.94,-3.94,-4.01,-3.06,-2.35,-2.36,-2.36
41.35,1.55,3.91,1.56,3.91,-3.92,-3.97,-2.97,-2.37,-2.36,-2.36
41.76,1.55,3.90,1.54,3.90,-3.90,-3.93,-2.88,-2.35,-2.35,-2.35
42.18,1.51,3.86,1.52,3.87,-3.87,-3.89,-2.78,-2.36,-2.36,-2.35
42.60,1.51,3.86,1.50,3.85,-3.85,-3.84,-2.70,-2.34,-2.35,-2.35
43.03,1.46,3.81,1.47,3.82,-3.82,-3.79,-2.61,-2.36,-2.35,-2.35
43.46,1.46,3.81,1.45,3.80,-3.80,-3.75,-2.52,-2.34,-2.35,-2.35
43.90,1.42,3.77,1.42,3.77,-3.77,-3.70,-2.44,-2.35,-2.35,-2.35
44.33,1.39,3.74,1.39,3.74,-3.74,-3.65,-2.36,-2.35,-2.35,-2.35
44.78,1.36,3.70,1.36,3.70,-3.71,-3.59,-2.28,-2.35,-2.35,-2.35
45.23,1.33,3.67,1.33,3.67,-3.68,-3.54,-2.20,-2.35,-2.35,-2.34
45.68,1.30,3.64,1.30,3.64,-3.64,-3.49,-2.12,-2.34,-2.34,-2.34
46.13,1.27,3.61,1.27,3.61,-3.61,-3.43,-2.05,-2.34,-2.34,-2.34
46.60,1.23,3.57,1.23,3.57,-3.57,-3.37,-1.98,-2.34,-2.34,-2.34
47.06,1.19,3.53,1.19,3.53,-3.53,-3.32,-1.91,-2.34,-2.34,-2.34
47.53,1.16,3.50,1.15,3.49,-3.49,-3.26,-1.84,-2.33,-2.34,-2.34
48.01,1.11,3.45,1.11,3.44,-3.45,-3.20,-1.77,-2.34,-2.34,-2.34
48.49,1.06,3.39,1.06,3.40,-3.40,-3.14,-1.70,-2.34,-2.34,-2.33
48.97,1.01,3.34,1.01,3.35,-3.35,-3.08,-1.64,-2.34,-2.34,-2.33
49.46,0.97,3.30,0.97,3.30,-3.30,-3.02,-1.58,-2.33,-2.33,-2.33
49.96,0.92,3.25,0.92,3.25,-3.25,-2.95,-1.52,-2.33,-2.33,-2.33
50.46,0.87,3.20,0.86,3.19,-3.19,-2.89,-1.46,-2.32,-2.32,-2.33
50.96,0.80,3.13,0.80,3.13,-3.12,-2.82,-1.40,-2.32,-2.32,-2.33
51.47,0.73,3.06,0.73,3.06,-3.06,-2.76,-1.35,-2.33,-2.33,-2.33
51.99,0.66,2.98,0.66,2.98,-2.98,-2.69,-1.29,-2.32,-2.33,-2.32
52.51,0.58,2.90,0.58,2.90,-2.91,-2.62,-1.24,-2.33,-2.33,-2.32
53.03,0.51,2.83,0.50,2.83,-2.83,-2.56,-1.19,-2.32,-2.32,-2.32
53.56,0.41,2.73,0.42,2.74,-2.74,-2.49,-1.14,-2.33,-2.32,-2.32
54.10,0.35,2.67,0.33,2.65,-2.66,-2.42,-1.09,-2.31,-2.32,-2.32
54.64,0.24,2.56,0.24,2.56,-2.56,-2.35,-1.04,-2.32,-2.32,-2.32
55.18,0.14,2.46,0.15,2.47,-2.47,-2.27,-1.00,-2.33,-2.32,-2.32
55.74,0.06,2.37,0.05,2.37,-2.37,-2.20,-0.95,-2.31,-2.31,-2.31
56.29,-0.04,2.27,-0.04,2.27,-2.26,-2.12,-0.91,-2.30,-2.31,-2.31
56.86,-0.15,2.16,-0.15,2.16,-2.15,-2.05,-0.87,-2.30,-2.30,-2.31
57.42,-0.27,2.04,-0.27,2.04,-2.04,-1.97,-0.83,-2.31,-2.31,-2.31
58.00,-0.40,1.91,-0.39,1.92,-1.92,-1.89,-0.79,-2.32,-2.31,-2.31
58.58,-0.52,1.79,-0.52,1.79,-1.79,-1.81,-0.75,-2.31,-2.31,-2.31
59.16,-0.63,1.67,-0.64,1.66,-1.66,-1.72,-0.72,-2.29,-2.30,-2.31
59.76,-0.77,1.54,-0.78,1.53,-1.53,-1.63,-0.68,-2.30,-2.30,-2.31
60.35,-0.92,1.38,-0.91,1.39,-1.40,-1.54,-0.65,-2.32,-2.31,-2.30
60.96,-1.05,1.25,-1.05,1.26,-1.26,-1.45,-0.61,-2.31,-2.31,-2.30
61.57,-1.17,1.13,-1.18,1.12,-1.13,-1.36,-0.58,-2.30,-2.31,-2.30
62.18,-1.31,0.99,-1.31,0.99,-0.99,-1.26,-0.55,-2.31,-2.30,-2.30
62.80,-1.44,0.86,-1.44,0.86,-0.86,-1.15,-0.52,-2.30,-2.30,-2.30
63.43,-1.56,0.74,-1.57,0.72,-0.73,-1.04,-0.50,-2.29,-2.30,-2.30
64.07,-1.71,0.59,-1.71,0.59,-0.59,-0.93,-0.47,-2.30,-2.29,-2.30
64.71,-1.85,0.44,-1.85,0.45,-0.45,-0.81,-0.44,-2.30,-2.29,-2.29
65.35,-1.98,0.31,-1.99,0.31,-0.31,-0.68,-0.42,-2.29,-2.29,-2.29
66.01,-2.13,0.16,-2.13,0.17,-0.16,-0.55,-0.39,-2.29,-2.28,-2.29
66.67,-2.27,0.02,-2.28,0.01,-0.01,-0.41,-0.37,-2.28,-2.28,-2.29
67.33,-2.43,-0.14,-2.43,-0.14,0.15,-0.26,-0.35,-2.29,-2.29,-2.29
68.01,-2.60,-0.31,-2.59,-0.31,0.30,-0.10,-0.33,-2.30,-2.29,-2.29
68.69,-2.75,-0.46,-2.75,-0.47,0.46,0.07,-0.31,-2.29,-2.29,-2.29
69.37,-2.91,-0.63,-2.91,-0.63,0.63,0.25,-0.29,-2.29,-2.29,-2.28
70.07,-3.06,-0.78,-3.07,-0.79,0.79,0.44,-0.27,-2.27,-2.28,-2.28
70.77,-3.24,-0.96,-3.23,-0.95,0.95,0.64,-0.25,-2.29,-2.28,-2.28
71.48,-3.39,-1.11,-3.39,-1.11,1.11,0.86,-0.23,-2.28,-2.28,-2.28
72.19,-3.55,-1.27,-3.55,-1.27,1.27,1.08,-0.22,-2.28,-2.28,-2.28
72.91,-3.70,-1.42,-3.70,-1.43,1.42,1.32,-0.20,-2.28,-2.28,-2.28
73.64,-3.86,-1.58,-3.86,-1.58,1.58,1.56,-0.18,-2.28,-2.28,-2.28
74.38,-4.01,-1.74,-4.01,-1.74,1.74,1.81,-0.17,-2.27,-2.27,-2.27
75.12,-4.16,-1.89,-4.16,-1.89,1.90,2.06,-0.15,-2.27,-2.27,-2.27
75.87,-4.31,-2.04,-4.31,-2.04,2.05,2.30,-0.14,-2.26,-2.26,-2.27
76.63,-4.46,-2.19,-4.46,-2.19,2.21,2.52,-0.12,-2.25,-2.26,-2.27
77.40,-4.62,-2.35,-4.62,-2.35,2.36,2.72,-0.11,-2.26,-2.26,-2.27
78.17,-4.77,-2.50,-4.77,-2.50,2.51,2.89,-0.09,-2.26,-2.26,-2.27
78.95,-4.92,-2.65,-4.91,-2.65,2.65,3.01,-0.08,-2.27,-2.26,-2.27
79.74,-5.03,-2.77,-5.04,-2.77,2.78,3.09,-0.06,-2.25,-2.26,-2.27
80.54,-5.14,-2.88,-5.14,-2.88,2.88,3.11,-0.05,-2.26,-2.26,-2.26
81.35,-5.22,-2.96,-5.23,-2.96,2.96,3.08,-0.04,-2.26,-2.27,-2.26
82.16,-5.29,-3.03,-5.28,-3.02,3.00,3.00,-0.02,-2.29,-2.28,-2.26
82.98,-5.30,-3.04,-5.30,-3.04,3.01,2.89,-0.01,-2.29,-2.29,-2.26
83.81,-5.26,-3.00,-5.27,-3.01,2.97,2.75,0.01,-2.29,-2.29,-2.26
84.65,-5.19,-2.93,-5.18,-2.92,2.90,2.58,0.02,-2.29,-2.28,-2.26
85.50,-5.05,-2.80,-5.05,-2.80,2.78,2.40,0.04,-2.27,-2.28,-2.26
86.35,-4.88,-2.63,-4.89,-2.63,2.62,2.22,0.05,-2.26,-2.27,-2.25
87.22,-4.69,-2.44,-4.69,-2.43,2.43,2.04,0.06,-2.26,-2.26,-2.25
88.09,-4.46,-2.21,-4.46,-2.21,2.22,1.87,0.08,-2.25,-2.25,-2.25
88.97,-4.23,-1.98,-4.23,-1.98,1.99,1.71,0.09,-2.25,-2.24,-2.25
89.86,-3.98,-1.73,-3.99,-1.74,1.75,1.55,0.11,-2.23,-2.24,-2.25
90.76,-3.75,-1.50,-3.75,-1.50,1.51,1.41,0.12,-2.24,-2.24,-2.25
91.66,-3.51,-1.26,-3.51,-1.27,1.27,1.28,0.14,-2.24,-2.24,-2.25
92.58,-3.29,-1.05,-3.29,-1.05,1.05,1.15,0.15,-2.24,-2.24,-2.24
93.51,-3.09,-0.85,-3.08,-0.84,0.84,1.04,0.17,-2.25,-2.24,-2.24
94.44,-2.89,-0.65,-2.89,-0.65,0.65,0.94,0.18,-2.24,-2.24,-2.24
95.39,-2.72,-0.48,-2.72,-0.48,0.49,0.85,0.20,-2.23,-2.23,-2.24
96.34,-2.58,-0.34,-2.58,-0.34,0.36,0.77,0.22,-2.22,-2.22,-2.24
97.30,-2.47,-0.23,-2.47,-0.23,0.26,0.70,0.23,-2.21,-2.21,-2.24
98.28,-2.40,-0.16,-2.40,-0.16,0.19,0.63,0.25,-2.21,-2.20,-2.24
99.26,-2.35,-0.12,-2.36,-0.12,0.16,0.57,0.26,-2.19,-2.20,-2.23
100.25,-2.35,-0.12,-2.36,-0.12,0.15,0.51,0.28,-2.21,-2.21,-2.23
101.25,-2.39,-0.16,-2.38,-0.15,0.15,0.46,0.30,-2.24,-2.23,-2.23
102.27,-2.42,-0.19,-2.42,-0.19,0.18,0.41,0.31,-2.24,-2.24,-2.23
103.29,-2.45,-0.22,-2.45,-0.22,0.20,0.36,0.33,-2.25,-2.25,-2.23
104.32,-2.48,-0.25,-2.47,-0.25,0.22,0.32,0.35,-2.26,-2.25,-2.23
105.37,-2.48,-0.25,-2.48,-0.26,0.23,0.28,0.36,-2.25,-2.25,-2.23
106.42,-2.47,-0.25,-2.47,-0.24,0.22,0.24,0.38,-2.25,-2.25,-2.23
107.48,-2.44,-0.22,-2.44,-0.21,0.20,0.20,0.40,-2.24,-2.24,-2.22
108.56,-2.38,-0.16,-2.39,-0.17,0.16,0.16,0.41,-2.22,-2.23,-2.22
109.64,-2.33,-0.11,-2.33,-0.11,0.10,0.12,0.43,-2.23,-2.23,-2.22
110.74,-2.26,-0.04,-2.26,-0.04,0.04,0.08,0.45,-2.22,-2.22,-2.22
111.85,-2.19,0.03,-2.18,0.04,-0.03,0.04,0.46,-2.22,-2.21,-2.22
112.97,-2.09,0.13,-2.11,0.11,-0.10,-0.01,0.48,-2.20,-2.21,-2.22
114.10,-2.03,0.18,-2.03,0.18,-0.18,-0.06,0.49,-2.21,-2.21,-2.22
115.24,-1.97,0.24,-1.96,0.25,-0.25,-0.11,0.51,-2.22,-2.21,-2.21
116.39,-1.89,0.32,-1.90,0.32,-0.32,-0.17,0.53,-2.21,-2.21,-2.21
117.55,-1.83,0.38,-1.83,0.38,-0.38,-0.23,0.54,-2.21,-2.21,-2.21
118.73,-1.77,0.44,-1.77,0.44,-0.44,-0.30,0.56,-2.21,-2.21,-2.21
119.92,-1.72,0.49,-1.72,0.49,-0.49,-0.37,0.57,-2.21,-2.21,-2.21
121.12,-1.68,0.53,-1.68,0.53,-0.53,-0.45,0.58,-2.22,-2.21,-2.21
122.33,-1.64,0.57,-1.64,0.57,-0.57,-0.53,0.60,-2.21,-2.21,-2.21
123.55,-1.61,0.59,-1.61,0.60,-0.60,-0.60,0.61,-2.21,-2.20,-2.20
124.79,-1.57,0.63,-1.58,0.63,-0.61,-0.67,0.63,-2.18,-2.19,-2.20
126.03,-1.57,0.63,-1.57,0.63,-0.62,-0.73,0.64,-2.19,-2.19,-2.20
127.29,-1.57,0.63,-1.58,0.62,-0.61,-0.77,0.65,-2.18,-2.19,-2.20
128.57,-1.61,0.59,-1.60,0.60,-0.60,-0.79,0.66,-2.21,-2.20,-2.20
129.85,-1.63,0.57,-1.63,0.57,-0.57,-0.78,0.68,-2.20,-2.21,-2.20
131.15,-1.67,0.53,-1.67,0.53,-0.54,-0.75,0.69,-2.21,-2.21,-2.20
132.46,-1.70,0.49,-1.71,0.49,-0.50,-0.70,0.70,-2.20,-2.20,-2.19
133.79,-1.75,0.44,-1.75,0.45,-0.45,-0.62,0.71,-2.20,-2.19,-2.19
135.12,-1.80,0.39,-1.80,0.39,-0.39,-0.52,0.72,-2.19,-2.18,-2.19
136.48,-1.85,0.34,-1.86,0.33,-0.32,-0.42,0.73,-2.17,-2.18,-2.19
137.84,-1.94,0.25,-1.93,0.26,-0.25,-0.31,0.74,-2.19,-2.18,-2.19
139.22,-2.02,0.17,-2.02,0.17,-0.16,-0.20,0.76,-2.18,-2.18,-2.19
140.61,-2.10,0.09,-2.11,0.08,-0.08,-0.08,0.77,-2.18,-2.19,-2.19
142.02,-2.20,-0.02,-2.20,-0.02,0.02,0.02,0.78,-2.18,-2.19,-2.19
143.44,-2.31,-0.13,-2.30,-0.11,0.11,0.13,0.79,-2.20,-2.19,-2.18
144.87,-2.39,-0.21,-2.39,-0.21,0.20,0.23,0.80,-2.19,-2.20,-2.18
146.32,-2.47,-0.29,-2.48,-0.30,0.29,0.32,0.82,-2.18,-2.19,-2.18
147.78,-2.57,-0.39,-2.56,-0.38,0.37,0.41,0.83,-2.20,-2.19,-2.18
149.26,-2.63,-0.45,-2.63,-0.46,0.45,0.50,0.84,-2.18,-2.18,-2.18
150.75,-2.71,-0.53,-2.71,-0.53,0.53,0.58,0.86,-2.18,-2.18,-2.18
152.26,-2.77,-0.60,-2.78,-0.60,0.60,0.66,0.87,-2.17,-2.17,-2.18
153.78,-2.86,-0.69,-2.85,-0.68,0.68,0.73,0.89,-2.18,-2.17,-2.17
155.32,-2.92,-0.75,-2.93,-0.76,0.76,0.80,0.90,-2.16,-2.17,-2.17
156.88,-3.02,-0.85,-3.01,-0.84,0.84,0.87,0.92,-2.18,-2.17,-2.17
158.44,-3.10,-0.93,-3.10,-0.93,0.93,0.94,0.93,-2.17,-2.17,-2.17
160.03,-3.18,-1.01,-3.19,-1.03,1.03,1.01,0.95,-2.15,-2.17,-2.17
161.63,-3.30,-1.13,-3.30,-1.13,1.13,1.07,0.97,-2.17,-2.17,-2.17
163.24,-3.41,-1.25,-3.40,-1.24,1.24,1.14,0.99,-2.17,-2.16,-2.17
164.88,-3.52,-1.36,-3.52,-1.36,1.36,1.21,1.01,-2.16,-2.16,-2.16
166.53,-3.64,-1.48,-3.65,-1.48,1.49,1.27,1.03,-2.15,-2.16,-2.16
168.19,-3.79,-1.63,-3.78,-1.62,1.63,1.34,1.05,-2.16,-2.15,-2.16
169.87,-3.92,-1.76,-3.92,-1.76,1.78,1.40,1.08,-2.14,-2.14,-2.16
171.57,-4.07,-1.91,-4.08,-1.92,1.94,1.47,1.10,-2.13,-2.14,-2.16
173.29,-4.23,-2.07,-4.23,-2.07,2.10,1.53,1.13,-2.13,-2.13,-2.16
175.02,-4.40,-2.24,-4.39,-2.24,2.25,1.60,1.15,-2.15,-2.14,-2.16
176.77,-4.54,-2.39,-4.55,-2.39,2.40,1.66,1.18,-2.14,-2.15,-2.16
178.54,-4.69,-2.54,-4.69,-2.54,2.52,1.73,1.21,-2.17,-2.17,-2.15
180.32,-4.81,-2.66,-4.81,-2.66,2.61,1.80,1.24,-2.20,-2.20,-2.15
182.13,-4.89,-2.74,-4.88,-2.73,2.68,1.86,1.27,-2.22,-2.21,-2.15
183.95,-4.91,-2.76,-4.90,-2.75,2.71,1.93,1.30,-2.20,-2.19,-2.15
185.79,-4.86,-2.71,-4.87,-2.72,2.70,1.99,1.33,-2.16,-2.17,-2.15
187.65,-4.81,-2.66,-4.81,-2.67,2.67,2.05,1.36,-2.14,-2.14,-2.15
189.52,-4.74,-2.60,-4.75,-2.60,2.62,2.12,1.40,-2.12,-2.13,-2.15
191.42,-4.69,-2.55,-4.68,-2.54,2.55,2.18,1.43,-2.14,-2.13,-2.14
193.33,-4.61,-2.47,-4.61,-2.46,2.47,2.24,1.46,-2.14,-2.13,-2.14
195.27,-4.52,-2.38,-4.54,-2.39,2.40,2.29,1.50,-2.12,-2.13,-2.14
197.22,-4.47,-2.33,-4.46,-2.32,2.33,2.35,1.54,-2.14,-2.13,-2.14
199.19,-4.41,-2.27,-4.41,-2.27,2.28,2.40,1.57,-2.13,-2.13,-2.14
201.18,-4.36,-2.22,-4.37,-2.23,2.24,2.45,1.61,-2.12,-2.13,-2.14
203.19,-4.34,-2.20,-4.33,-2.19,2.21,2.49,1.65,-2.13,-2.12,-2.14
205.23,-4.30,-2.17,-4.31,-2.18,2.19,2.53,1.68,-2.11,-2.12,-2.13
207.28,-4.30,-2.17,-4.31,-2.18,2.19,2.56,1.72,-2.11,-2.12,-2.13
209.35,-4.33,-2.20,-4.32,-2.19,2.19,2.59,1.76,-2.14,-2.13,-2.13
211.44,-4.34,-2.21,-4.34,-2.21,2.19,2.61,1.79,-2.15,-2.14,-2.13
213.56,-4.34,-2.21,-4.34,-2.21,2.20,2.63,1.83,-2.14,-2.14,-2.13
215.69,-4.34,-2.21,-4.34,-2.21,2.21,2.64,1.86,-2.13,-2.14,-2.13
217.85,-4.34,-2.21,-4.34,-2.22,2.21,2.65,1.90,-2.13,-2.13,-2.13
220.03,-4.34,-2.22,-4.34,-2.21,2.21,2.64,1.93,-2.13,-2.13,-2.12
222.23,-4.34,-2.22,-4.33,-2.20,2.21,2.64,1.96,-2.13,-2.12,-2.12
224.45,-4.30,-2.18,-4.32,-2.20,2.20,2.62,1.99,-2.10,-2.12,-2.12
226.70,-4.30,-2.18,-4.30,-2.18,2.19,2.60,2.02,-2.11,-2.11,-2.12
228.96,-4.30,-2.18,-4.29,-2.17,2.17,2.57,2.04,-2.13,-2.12,-2.12
231.25,-4.26,-2.14,-4.27,-2.16,2.15,2.54,2.06,-2.11,-2.12,-2.12
233.57,-4.26,-2.14,-4.25,-2.13,2.13,2.50,2.08,-2.13,-2.12,-2.12
235.90,-4.21,-2.10,-4.22,-2.10,2.10,2.46,2.10,-2.11,-2.12,-2.12
238.26,-4.19,-2.08,-4.19,-2.07,2.07,2.41,2.11,-2.12,-2.12,-2.11
240.64,-4.15,-2.04,-4.15,-2.03,2.04,2.36,2.12,-2.11,-2.11,-2.11
243.05,-4.10,-1.99,-4.11,-2.00,2.00,2.30,2.13,-2.10,-2.11,-2.11
245.48,-4.06,-1.95,-4.06,-1.95,1.95,2.24,2.13,-2.11,-2.11,-2.11
247.93,-4.02,-1.91,-4.01,-1.91,1.90,2.18,2.13,-2.12,-2.11,-2.11
250.41,-3.96,-1.85,-3.96,-1.85,1.85,2.12,2.12,-2.11,-2.11,-2.11
252.92,-3.90,-1.80,-3.90,-1.80,1.79,2.06,2.11,-2.11,-2.11,-2.11
255.45,-3.84,-1.74,-3.84,-1.74,1.74,1.99,2.10,-2.10,-2.10,-2.10
258.00,-3.78,-1.68,-3.78,-1.68,1.68,1.92,2.09,-2.10,-2.10,-2.10
260.58,-3.72,-1.62,-3.72,-1.62,1.63,1.86,2.07,-2.09,-2.10,-2.10
263.19,-3.67,-1.57,-3.67,-1.57,1.57,1.79,2.04,-2.10,-2.09,-2.10
265.82,-3.62,-1.52,-3.62,-1.52,1.52,1.72,2.02,-2.10,-2.09,-2.10
268.48,-3.56,-1.46,-3.57,-1.47,1.48,1.65,1.99,-2.08,-2.09,-2.10
271.16,-3.53,-1.43,-3.53,-1.43,1.44,1.59,1.95,-2.09,-2.09,-2.10
273.87,-3.50,-1.41,-3.49,-1.40,1.40,1.52,1.92,-2.10,-2.09,-2.09
276.61,-3.45,-1.36,-3.46,-1.36,1.36,1.46,1.88,-2.09,-2.10,-2.09
279.38,-3.42,-1.33,-3.42,-1.33,1.32,1.39,1.84,-2.10,-2.10,-2.09
282.17,-3.37,-1.28,-3.38,-1.29,1.28,1.33,1.80,-2.09,-2.09,-2.09
284.99,-3.34,-1.25,-3.34,-1.25,1.24,1.27,1.75,-2.10,-2.10,-2.09
287.84,-3.29,-1.20,-3.29,-1.20,1.20,1.21,1.71,-2.09,-2.09,-2.09
290.72,-3.24,-1.15,-3.24,-1.16,1.16,1.15,1.66,-2.09,-2.09,-2.09
293.63,-3.19,-1.11,-3.19,-1.11,1.11,1.10,1.61,-2.08,-2.08,-2.08
296.57,-3.15,-1.07,-3.15,-1.06,1.07,1.04,1.56,-2.08,-2.08,-2.08
299.53,-3.10,-1.02,-3.11,-1.02,1.03,0.99,1.51,-2.07,-2.08,-2.08
302.53,-3.07,-0.99,-3.06,-0.98,0.99,0.94,1.46,-2.08,-2.08,-2.08
305.55,-3.02,-0.94,-3.03,-0.95,0.95,0.88,1.41,-2.07,-2.08,-2.08
308.61,-2.99,-0.91,-2.99,-0.91,0.91,0.84,1.36,-2.08,-2.08,-2.08
311.69,-2.96,-0.88,-2.95,-0.88,0.88,0.79,1.30,-2.08,-2.08,-2.08
314.81,-2.91,-0.84,-2.92,-0.84,0.84,0.74,1.25,-2.07,-2.08,-2.08
317.96,-2.88,-0.81,-2.88,-0.81,0.80,0.70,1.20,-2.08,-2.08,-2.07
321.14,-2.85,-0.78,-2.84,-0.77,0.77,0.66,1.15,-2.08,-2.07,-2.07
324.35,-2.80,-0.73,-2.80,-0.73,0.73,0.61,1.09,-2.07,-2.07,-2.07
327.59,-2.76,-0.69,-2.76,-0.69,0.69,0.57,1.04,-2.07,-2.07,-2.07
330.87,-2.72,-0.65,-2.72,-0.65,0.66,0.53,0.99,-2.06,-2.07,-2.07
334.18,-2.69,-0.62,-2.69,-0.62,0.62,0.50,0.94,-2.07,-2.07,-2.07
337.52,-2.65,-0.59,-2.65,-0.58,0.59,0.46,0.89,-2.06,-2.06,-2.07
340.90,-2.61,-0.55,-2.61,-0.55,0.55,0.43,0.84,-2.06,-2.06,-2.06
344.30,-2.58,-0.52,-2.58,-0.52,0.52,0.39,0.79,-2.06,-2.06,-2.06
347.75,-2.55,-0.49,-2.55,-0.49,0.49,0.36,0.74,-2.06,-2.06,-2.06
351.23,-2.52,-0.46,-2.52,-0.46,0.46,0.33,0.69,-2.06,-2.06,-2.06
354.74,-2.48,-0.42,-2.49,-0.43,0.43,0.30,0.65,-2.05,-2.06,-2.06
358.28,-2.46,-0.40,-2.46,-0.40,0.40,0.27,0.60,-2.06,-2.06,-2.06
361.87,-2.43,-0.37,-2.42,-0.37,0.37,0.25,0.55,-2.06,-2.06,-2.06
365.49,-2.39,-0.34,-2.39,-0.34,0.34,0.22,0.51,-2.05,-2.05,-2.05
369.14,-2.35,-0.30,-2.36,-0.31,0.31,0.19,0.46,-2.04,-2.05,-2.05
372.83,-2.34,-0.29,-2.33,-0.28,0.28,0.17,0.42,-2.06,-2.05,-2.05
376.56,-2.31,-0.26,-2.31,-0.26,0.26,0.15,0.37,-2.05,-2.05,-2.05
380.33,-2.28,-0.23,-2.28,-0.23,0.23,0.13,0.33,-2.05,-2.05,-2.05
384.13,-2.26,-0.21,-2.25,-0.21,0.21,0.10,0.28,-2.05,-2.05,-2.05
387.97,-2.22,-0.17,-2.23,-0.18,0.18,0.08,0.24,-2.04,-2.05,-2.05
391.85,-2.21,-0.17,-2.21,-0.16,0.16,0.06,0.20,-2.05,-2.05,-2.04
395.77,-2.18,-0.14,-2.18,-0.14,0.13,0.05,0.16,-2.05,-2.05,-2.04
399.73,-2.15,-0.11,-2.15,-0.11,0.11,0.03,0.11,-2.05,-2.05,-2.04
403.72,-2.12,-0.08,-2.12,-0.08,0.08,0.01,0.07,-2.04,-2.04,-2.04
407.76,-2.09,-0.05,-2.09,-0.05,0.05,-0.00,0.03,-2.04,-2.04,-2.04
411.84,-2.05,-0.01,-2.06,-0.02,0.02,-0.02,-0.01,-2.03,-2.03,-2.04
415.96,-2.03,0.01,-2.03,0.01,-0.00,-0.03,-0.04,-2.04,-2.03,-2.04
420.12,-2.00,0.03,-2.00,0.03,-0.03,-0.05,-0.08,-2.03,-2.03,-2.04
424.32,-1.97,0.06,-1.98,0.06,-0.06,-0.06,-0.12,-2.03,-2.04,-2.03
428.56,-1.96,0.07,-1.95,0.08,-0.08,-0.08,-0.16,-2.05,-2.04,-2.03
432.85,-1.92,0.11,-1.93,0.10,-0.11,-0.09,-0.20,-2.03,-2.03,-2.03
437.18,-1.90,0.13,-1.90,0.13,-0.13,-0.11,-0.23,-2.03,-2.03,-2.03
441.55,-1.87,0.16,-1.87,0.16,-0.15,-0.12,-0.27,-2.02,-2.02,-2.03
445.96,-1.84,0.19,-1.85,0.18,-0.17,-0.13,-0.30,-2.02,-2.02,-2.03
