frequency,raw,error,smoothed,error_smoothed,equalization,parametric_eq,fixed_band_eq,equalized_raw,equalized_smoothed,target
20.00,-19.13,-22.39,-19.13,-22.39,6.00,5.95,2.63,-13.13,-13.13,3.26
20.20,-18.97,-22.23,-18.97,-22.23,6.00,5.96,2.71,-12.97,-12.97,3.26
20.40,-18.83,-22.10,-18.83,-22.09,6.00,5.97,2.79,-12.83,-12.83,3.27
20.61,-18.70,-21.97,-18.70,-21.97,6.00,5.98,2.87,-12.70,-12.70,3.27
20.81,-18.60,-21.87,-18.60,-21.87,6.00,5.98,2.95,-12.60,-12.60,3.27
21.02,-18.52,-21.79,-18.53,-21.80,6.00,5.99,3.03,-12.52,-12.53,3.27
21.23,-18.47,-21.75,-18.47,-21.74,6.00,6.00,3.12,-12.47,-12.47,3.27
21.44,-18.42,-21.71,-18.42,-21.70,6.00,6.00,3.21,-12.42,-12.42,3.28
21.66,-18.37,-21.66,-18.37,-21.66,6.00,6.01,3.30,-12.37,-12.37,3.28
21.87,-18.31,-21.60,-18.31,-21.60,6.00,6.02,3.40,-12.31,-12.31,3.29
22.09,-18.25,-21.53,-18.25,-21.54,6.00,6.03,3.50,-12.25,-12.25,3.28
22.31,-18.17,-21.46,-18.17,-21.46,6.00,6.03,3.60,-12.17,-12.17,3.29
22.54,-18.08,-21.37,-18.08,-21.37,6.00,6.04,3.70,-12.08,-12.08,3.28
22.76,-17.98,-21.27,-17.98,-21.26,6.00,6.04,3.81,-11.98,-11.98,3.29
22.99,-17.85,-21.14,-17.85,-21.14,6.00,6.05,3.91,-11.85,-11.85,3.29
23.22,-17.71,-20.99,-17.71,-21.00,6.00,6.06,4.02,-11.71,-11.71,3.28
23.45,-17.57,-20.85,-17.57,-20.85,6.00,6.06,4.14,-11.57,-11.57,3.28
23.69,-17.42,-20.70,-17.42,-20.70,6.00,6.07,4.25,-11.42,-11.42,3.28
23.92,-17.28,-20.56,-17.28,-20.56,6.00,6.07,4.37,-11.28,-11.28,3.28
24.16,-17.15,-20.43,-17.15,-20.43,6.00,6.08,4.49,-11.15,-11.15,3.28
24.40,-17.03,-20.32,-17.03,-20.31,6.00,6.08,4.61,-11.03,-11.03,3.29
24.65,-16.90,-20.19,-16.90,-20.19,6.00,6.09,4.74,-10.90,-10.90,3.29
24.89,-16.78,-20.07,-16.78,-20.06,6.00,6.09,4.86,-10.78,-10.78,3.29
25.14,-16.66,-19.94,-16.66,-19.94,6.00,6.10,4.99,-10.66,-10.66,3.28
25.39,-16.54,-19.81,-16.54,-19.81,6.00,6.10,5.12,-10.54,-10.54,3.27
25.65,-16.42,-19.70,-16.42,-19.70,6.00,6.11,5.24,-10.42,-10.42,3.27
25.91,-16.31,-19.59,-16.31,-19.59,6.00,6.11,5.37,-10.31,-10.31,3.27
26.16,-16.20,-19.48,-16.20,-19.48,6.00,6.12,5.50,-10.20,-10.20,3.28
26.43,-16.09,-19.37,-16.09,-19.37,6.00,6.12,5.63,-10.09,-10.09,3.28
26.69,-15.97,-19.24,-15.98,-19.25,6.00,6.12,5.76,-9.97,-9.98,3.27
26.96,-15.86,-19.13,-15.86,-19.13,6.00,6.13,5.88,-9.86,-9.86,3.27
27.23,-15.75,-19.02,-15.75,-19.02,6.00,6.13,6.01,-9.75,-9.75,3.27
27.50,-15.64,-18.91,-15.64,-18.91,6.00,6.13,6.13,-9.64,-9.64,3.27
27.77,-15.53,-18.81,-15.53,-18.80,6.00,6.14,6.25,-9.53,-9.53,3.28
28.05,-15.43,-18.71,-15.43,-18.70,6.00,6.14,6.36,-9.43,-9.43,3.27
28.33,-15.33,-18.59,-15.33,-18.60,6.00,6.14,6.47,-9.33,-9.33,3.26
28.62,-15.24,-18.50,-15.24,-18.51,6.00,6.15,6.58,-9.24,-9.24,3.26
28.90,-15.15,-18.42,-15.16,-18.42,6.00,6.15,6.68,-9.15,-9.16,3.27
29.19,-15.07,-18.34,-15.07,-18.33,6.00,6.15,6.77,-9.07,-9.07,3.27
29.48,-14.99,-18.25,-14.98,-18.25,6.00,6.16,6.85,-8.99,-8.98,3.26
29.78,-14.89,-18.15,-14.90,-18.16,6.00,6.16,6.93,-8.89,-8.90,3.26
30.08,-14.81,-18.08,-14.81,-18.07,6.00,6.16,7.00,-8.81,-8.81,3.26
30.38,-14.72,-17.98,-14.72,-17.98,6.00,6.16,7.06,-8.72,-8.72,3.25
30.68,-14.62,-17.88,-14.62,-17.88,6.00,6.16,7.11,-8.62,-8.62,3.26
30.99,-14.52,-17.78,-14.52,-17.78,6.00,6.17,7.15,-8.52,-8.52,3.26
31.30,-14.42,-17.68,-14.42,-17.68,6.00,6.17,7.18,-8.42,-8.42,3.26
31.61,-14.32,-17.59,-14.32,-17.58,6.00,6.17,7.20,-8.32,-8.32,3.27
31.93,-14.22,-17.48,-14.22,-17.48,6.00,6.17,7.21,-8.22,-8.22,3.25
32.24,-14.12,-17.38,-14.12,-17.38,6.00,6.17,7.22,-8.12,-8.12,3.26
32.57,-14.02,-17.28,-14.02,-17.28,6.00,6.18,7.21,-8.02,-8.02,3.26
32.89,-13.93,-17.19,-13.93,-17.19,6.00,6.18,7.20,-7.93,-7.93,3.26
33.22,-13.83,-17.09,-13.83,-17.09,6.00,6.18,7.17,-7.83,-7.83,3.25
33.55,-13.74,-16.99,-13.74,-16.99,6.00,6.18,7.14,-7.74,-7.74,3.25
33.89,-13.64,-16.89,-13.64,-16.89,6.00,6.18,7.11,-7.64,-7.64,3.25
34.23,-13.54,-16.78,-13.54,-16.78,6.00,6.18,7.06,-7.54,-7.54,3.24
34.57,-13.44,-16.67,-13.44,-16.67,6.00,6.18,7.02,-7.44,-7.44,3.22
34.92,-13.34,-16.55,-13.34,-16.55,6.00,6.18,6.96,-7.34,-7.34,3.21
35.27,-13.23,-16.44,-13.24,-16.43,6.00,6.18,6.91,-7.23,-7.24,3.21
35.62,-13.13,-16.31,-13.13,-16.32,6.00,6.18,6.85,-7.13,-7.13,3.17
35.97,-13.04,-16.20,-13.04,-16.20,6.00,6.18,6.79,-7.04,-7.04,3.16
36.33,-12.94,-16.08,-12.94,-16.08,6.00,6.18,6.72,-6.94,-6.94,3.14
36.70,-12.85,-15.97,-12.85,-15.96,6.00,6.18,6.66,-6.85,-6.85,3.11
37.06,-12.75,-15.84,-12.75,-15.84,6.00,6.18,6.59,-6.75,-6.75,3.09
37.43,-12.66,-15.73,-12.66,-15.73,6.00,6.18,6.53,-6.66,-6.66,3.07
37.81,-12.57,-15.61,-12.57,-15.62,6.00,6.18,6.47,-6.57,-6.57,3.04
38.19,-12.49,-15.52,-12.49,-15.51,6.00,6.18,6.40,-6.49,-6.49,3.03
38.57,-12.40,-15.41,-12.40,-15.41,6.00,6.18,6.34,-6.40,-6.40,3.00
38.95,-12.31,-15.29,-12.31,-15.29,6.00,6.18,6.28,-6.31,-6.31,2.98
39.34,-12.23,-15.19,-12.23,-15.18,6.00,6.18,6.23,-6.23,-6.23,2.95
39.74,-12.14,-15.07,-12.15,-15.08,6.00,6.18,6.17,-6.14,-6.15,2.93
40.14,-12.06,-14.98,-12.07,-14.98,6.00,6.17,6.12,-6.06,-6.07,2.92
40.54,-11.99,-14.89,-11.98,-14.88,6.00,6.17,6.07,-5.99,-5.98,2.90
40.94,-11.89,-14.77,-11.90,-14.78,6.00,6.17,6.03,-5.89,-5.90,2.87
41.35,-11.81,-14.67,-11.81,-14.67,6.00,6.17,5.99,-5.81,-5.81,2.86
41.76,-11.73,-14.56,-11.73,-14.56,6.00,6.17,5.95,-5.73,-5.73,2.83
42.18,-11.64,-14.46,-11.65,-14.46,6.00,6.17,5.92,-5.64,-5.65,2.82
42.60,-11.57,-14.36,-11.56,-14.36,6.00,6.16,5.89,-5.57,-5.56,2.79
43.03,-11.48,-14.26,-11.48,-14.26,6.00,6.16,5.87,-5.48,-5.48,2.77
43.46,-11.40,-14.15,-11.40,-14.15,6.00,6.16,5.85,-5.40,-5.40,2.75
43.90,-11.32,-14.05,-11.32,-14.05,6.00,6.16,5.83,-5.32,-5.32,2.73
44.33,-11.24,-13.94,-11.24,-13.95,6.00,6.15,5.82,-5.24,-5.24,2.70
44.78,-11.16,-13.85,-11.16,-13.85,6.00,6.15,5.81,-5.16,-5.16,2.69
45.23,-11.07,-13.75,-11.07,-13.74,6.00,6.15,5.81,-5.07,-5.07,2.68
45.68,-10.99,-13.63,-10.99,-13.63,6.00,6.14,5.81,-4.99,-4.99,2.64
46.13,-10.90,-13.51,-10.90,-13.52,6.00,6.14,5.81,-4.90,-4.90,2.61
46.60,-10.82,-13.40,-10.82,-13.40,6.00,6.14,5.82,-4.82,-4.82,2.58
47.06,-10.73,-13.29,-10.73,-13.29,6.00,6.13,5.84,-4.73,-4.73,2.56
47.53,-10.65,-13.18,-10.65,-13.18,6.00,6.13,5.85,-4.65,-4.65,2.53
48.01,-10.57,-13.06,-10.57,-13.06,6.00,6.13,5.87,-4.57,-4.57,2.48
48.49,-10.49,-12.95,-10.49,-12.94,6.00,6.12,5.90,-4.49,-4.49,2.45
48.97,-10.41,-12.82,-10.41,-12.82,6.00,6.12,5.93,-4.41,-4.41,2.41
49.46,-10.33,-12.71,-10.34,-12.71,6.00,6.11,5.96,-4.33,-4.34,2.38
49.96,-10.26,-12.58,-10.26,-12.59,6.00,6.11,5.99,-4.26,-4.26,2.32
50.46,-10.19,-12.48,-10.19,-12.48,6.00,6.10,6.03,-4.19,-4.19,2.29
50.96,-10.11,-12.37,-10.11,-12.37,6.00,6.10,6.07,-4.11,-4.11,2.26
51.47,-10.03,-12.26,-10.03,-12.25,6.00,6.09,6.11,-4.03,-4.03,2.22
51.99,-9.95,-12.13,-9.95,-12.14,6.00,6.09,6.16,-3.95,-3.95,2.18
52.51,-9.87,-12.02,-9.87,-12.02,6.00,6.08,6.20,-3.87,-3.87,2.15
53.03,-9.79,-11.90,-9.79,-11.90,6.00,6.07,6.25,-3.79,-3.79,2.11
53.56,-9.72,-11.79,-9.72,-11.78,6.00,6.07,6.29,-3.72,-3.72,2.07
54.10,-9.63,-11.66,-9.63,-11.66,6.00,6.06,6.34,-3.63,-3.63,2.02
54.64,-9.55,-11.54,-9.55,-11.54,6.00,6.06,6.39,-3.55,-3.55,1.99
55.18,-9.47,-11.42,-9.47,-11.42,6.00,6.05,6.43,-3.47,-3.47,1.95
55.74,-9.39,-11.31,-9.39,-11.31,6.00,6.04,6.47,-3.39,-3.39,1.92
56.29,-9.31,-11.20,-9.31,-11.20,6.00,6.03,6.51,-3.31,-3.31,1.89
56.86,-9.22,-11.09,-9.22,-11.08,6.00,6.03,6.55,-3.22,-3.22,1.87
57.42,-9.12,-10.94,-9.12,-10.95,6.00,6.02,6.59,-3.12,-3.12,1.82
58.00,-9.02,-10.81,-9.02,-10.82,6.00,6.01,6.62,-3.02,-3.02,1.79
58.58,-8.92,-10.70,-8.93,-10.70,6.00,6.00,6.64,-2.92,-2.93,1.77
59.16,-8.84,-10.58,-8.83,-10.58,6.00,5.99,6.66,-2.84,-2.83,1.74
59.76,-8.74,-10.45,-8.75,-10.45,6.00,5.99,6.68,-2.74,-2.75,1.71
60.35,-8.66,-10.32,-8.66,-10.33,6.00,5.98,6.69,-2.66,-2.66,1.66
60.96,-8.58,-10.20,-8.58,-10.20,6.00,5.97,6.69,-2.58,-2.58,1.62
61.57,-8.51,-10.07,-8.51,-10.07,6.00,5.96,6.69,-2.51,-2.51,1.56
62.18,-8.44,-9.94,-8.44,-9.94,6.00,5.95,6.68,-2.44,-2.44,1.50
62.80,-8.36,-9.82,-8.36,-9.82,6.00,5.94,6.67,-2.36,-2.36,1.46
63.43,-8.28,-9.69,-8.28,-9.70,6.00,5.93,6.64,-2.28,-2.28,1.41
64.07,-8.20,-9.58,-8.20,-9.58,6.00,5.92,6.61,-2.20,-2.20,1.38
64.71,-8.12,-9.46,-8.12,-9.46,6.00,5.91,6.58,-2.12,-2.12,1.34
65.35,-8.04,-9.33,-8.04,-9.34,6.00,5.89,6.53,-2.04,-2.04,1.29
66.01,-7.95,-9.21,-7.96,-9.21,6.00,5.88,6.49,-1.95,-1.96,1.25
66.67,-7.87,-9.10,-7.87,-9.09,6.00,5.87,6.43,-1.87,-1.87,1.23
67.33,-7.80,-8.98,-7.79,-8.97,6.00,5.86,6.37,-1.80,-1.79,1.18
68.01,-7.71,-8.85,-7.72,-8.85,6.00,5.85,6.31,-1.71,-1.72,1.14
68.69,-7.63,-8.73,-7.64,-8.73,6.00,5.83,6.24,-1.63,-1.64,1.09
69.37,-7.56,-8.62,-7.55,-8.62,6.00,5.82,6.17,-1.56,-1.55,1.06
70.07,-7.47,-8.50,-7.47,-8.50,6.00,5.81,6.10,-1.47,-1.47,1.03
70.77,-7.39,-8.38,-7.39,-8.38,6.00,5.79,6.02,-1.39,-1.39,0.99
71.48,-7.31,-8.25,-7.31,-8.25,6.00,5.78,5.94,-1.31,-1.31,0.94
72.19,-7.24,-8.14,-7.24,-8.13,6.00,5.76,5.86,-1.24,-1.24,0.89
72.91,-7.15,-8.00,-7.16,-8.01,6.00,5.75,5.78,-1.15,-1.16,0.85
73.64,-7.08,-7.88,-7.08,-7.88,6.00,5.73,5.70,-1.08,-1.08,0.80
74.38,-7.00,-7.76,-7.00,-7.76,6.00,5.71,5.62,-1.00,-1.00,0.76
75.12,-6.91,-7.64,-6.92,-7.64,6.00,5.70,5.54,-0.91,-0.92,0.72
75.87,-6.83,-7.53,-6.83,-7.52,6.00,5.68,5.46,-0.83,-0.83,0.69
76.63,-6.74,-7.39,-6.74,-7.40,6.00,5.66,5.38,-0.74,-0.74,0.65
77.40,-6.66,-7.29,-6.66,-7.28,6.00,5.64,5.31,-0.66,-0.66,0.63
78.17,-6.57,-7.16,-6.57,-7.17,6.00,5.62,5.23,-0.57,-0.57,0.59
78.95,-6.49,-7.06,-6.49,-7.06,6.00,5.60,5.16,-0.49,-0.49,0.57
79.74,-6.40,-6.94,-6.40,-6.94,6.00,5.58,5.09,-0.40,-0.40,0.54
80.54,-6.31,-6.82,-6.31,-6.82,6.00,5.56,5.02,-0.31,-0.31,0.51
81.35,-6.22,-6.69,-6.22,-6.70,6.01,5.54,4.96,-0.22,-0.22,0.47
82.16,-6.14,-6.60,-6.14,-6.59,6.01,5.52,4.90,-0.13,-0.12,0.46
82.98,-6.05,-6.47,-6.05,-6.47,6.02,5.50,4.84,-0.03,-0.03,0.42
83.81,-5.96,-6.35,-5.97,-6.35,6.02,5.47,4.78,0.05,0.05,0.39
84.65,-5.88,-6.23,-5.88,-6.24,6.00,5.45,4.73,0.12,0.12,0.35
85.50,-5.81,-6.13,-5.81,-6.13,5.98,5.43,4.68,0.17,0.17,0.32
86.35,-5.73,-6.02,-5.73,-6.03,5.94,5.40,4.63,0.21,0.21,0.29
87.22,-5.66,-5.93,-5.66,-5.93,5.89,5.37,4.59,0.23,0.23,0.27
88.09,-5.59,-5.82,-5.59,-5.83,5.82,5.35,4.55,0.23,0.23,0.23
88.97,-5.53,-5.74,-5.53,-5.73,5.75,5.32,4.52,0.21,0.22,0.21
89.86,-5.47,-5.64,-5.47,-5.64,5.66,5.29,4.49,0.19,0.19,0.16
90.76,-5.41,-5.55,-5.41,-5.55,5.57,5.26,4.46,0.16,0.15,0.14
91.66,-5.36,-5.46,-5.36,-5.46,5.48,5.23,4.43,0.11,0.12,0.10
92.58,-5.31,-5.38,-5.31,-5.38,5.38,5.20,4.41,0.07,0.07,0.07
93.51,-5.26,-5.30,-5.26,-5.30,5.30,5.17,4.39,0.04,0.04,0.04
94.44,-5.22,-5.23,-5.22,-5.22,5.22,5.14,4.38,-0.00,0.00,0.01
95.39,-5.17,-5.14,-5.18,-5.14,5.14,5.11,4.37,-0.03,-0.04,-0.03
96.34,-5.14,-5.06,-5.14,-5.07,5.06,5.07,4.36,-0.08,-0.08,-0.08
97.30,-5.11,-4.99,-5.11,-4.99,4.99,5.04,4.35,-0.12,-0.12,-0.12
98.28,-5.07,-4.91,-5.08,-4.91,4.92,5.00,4.35,-0.15,-0.16,-0.16
99.26,-5.05,-4.84,-5.05,-4.84,4.85,4.97,4.34,-0.20,-0.20,-0.21
100.25,-5.02,-4.77,-5.02,-4.78,4.78,4.93,4.35,-0.24,-0.24,-0.25
101.25,-5.00,-4.73,-5.00,-4.72,4.72,4.89,4.35,-0.28,-0.28,-0.28
102.27,-4.97,-4.66,-4.97,-4.66,4.66,4.85,4.35,-0.32,-0.32,-0.31
103.29,-4.95,-4.60,-4.95,-4.60,4.60,4.81,4.36,-0.35,-0.35,-0.35
104.32,-4.93,-4.54,-4.93,-4.54,4.54,4.77,4.37,-0.39,-0.39,-0.39
105.37,-4.91,-4.48,-4.91,-4.49,4.49,4.73,4.38,-0.42,-0.42,-0.43
106.42,-4.90,-4.45,-4.90,-4.44,4.44,4.69,4.39,-0.46,-0.46,-0.45
107.48,-4.88,-4.38,-4.88,-4.39,4.39,4.64,4.40,-0.49,-0.49,-0.50
108.56,-4.87,-4.34,-4.87,-4.34,4.34,4.60,4.41,-0.53,-0.53,-0.53
109.64,-4.87,-4.30,-4.87,-4.30,4.30,4.55,4.43,-0.57,-0.57,-0.57
110.74,-4.86,-4.26,-4.86,-4.26,4.26,4.51,4.44,-0.60,-0.61,-0.61
111.85,-4.86,-4.22,-4.86,-4.22,4.22,4.46,4.45,-0.64,-0.64,-0.64
112.97,-4.86,-4.17,-4.86,-4.18,4.18,4.42,4.46,-0.68,-0.68,-0.69
114.10,-4.87,-4.15,-4.87,-4.14,4.14,4.37,4.47,-0.73,-0.73,-0.73
115.24,-4.89,-4.11,-4.89,-4.11,4.11,4.32,4.47,-0.79,-0.78,-0.78
116.39,-4.91,-4.07,-4.91,-4.07,4.07,4.28,4.48,-0.84,-0.84,-0.84
117.55,-4.92,-4.03,-4.93,-4.03,4.03,4.23,4.48,-0.89,-0.89,-0.89
118.73,-4.94,-3.99,-4.94,-3.99,4.00,4.18,4.48,-0.95,-0.95,-0.95
119.92,-4.96,-3.96,-4.96,-3.96,3.96,4.13,4.48,-1.00,-1.00,-1.00
121.12,-4.97,-3.92,-4.97,-3.92,3.92,4.09,4.48,-1.05,-1.06,-1.05
122.33,-4.99,-3.88,-4.99,-3.88,3.88,4.04,4.47,-1.12,-1.11,-1.11
123.55,-5.00,-3.84,-5.00,-3.84,3.83,4.00,4.46,-1.17,-1.17,-1.16
124.79,-5.02,-3.80,-5.02,-3.80,3.79,3.95,4.44,-1.23,-1.23,-1.23
126.03,-5.04,-3.75,-5.04,-3.75,3.75,3.91,4.43,-1.29,-1.29,-1.29
127.29,-5.06,-3.71,-5.06,-3.71,3.72,3.86,4.40,-1.35,-1.35,-1.35
128.57,-5.08,-3.67,-5.09,-3.68,3.68,3.82,4.38,-1.40,-1.40,-1.41
129.85,-5.12,-3.65,-5.12,-3.65,3.65,3.78,4.35,-1.47,-1.46,-1.47
131.15,-5.15,-3.62,-5.15,-3.63,3.63,3.74,4.32,-1.52,-1.52,-1.53
132.46,-5.19,-3.62,-5.19,-3.61,3.62,3.71,4.29,-1.58,-1.58,-1.58
133.79,-5.23,-3.61,-5.23,-3.60,3.60,3.67,4.25,-1.63,-1.62,-1.62
135.12,-5.26,-3.59,-5.26,-3.60,3.60,3.64,4.21,-1.66,-1.66,-1.67
136.48,-5.30,-3.60,-5.30,-3.60,3.60,3.61,4.17,-1.70,-1.70,-1.70
137.84,-5.34,-3.60,-5.34,-3.60,3.60,3.58,4.13,-1.74,-1.74,-1.74
139.22,-5.39,-3.61,-5.39,-3.61,3.61,3.55,4.08,-1.78,-1.78,-1.79
140.61,-5.43,-3.62,-5.43,-3.62,3.62,3.53,4.04,-1.81,-1.81,-1.81
142.02,-5.47,-3.63,-5.47,-3.63,3.63,3.51,3.99,-1.84,-1.84,-1.84
143.44,-5.50,-3.63,-5.51,-3.64,3.64,3.49,3.94,-1.86,-1.87,-1.87
144.87,-5.55,-3.66,-5.55,-3.65,3.65,3.47,3.89,-1.90,-1.90,-1.89
146.32,-5.59,-3.67,-5.59,-3.66,3.66,3.46,3.84,-1.93,-1.93,-1.93
147.78,-5.62,-3.67,-5.63,-3.67,3.67,3.44,3.79,-1.95,-1.96,-1.95
149.26,-5.66,-3.68,-5.66,-3.67,3.67,3.43,3.75,-1.99,-1.99,-1.98
150.75,-5.69,-3.67,-5.69,-3.68,3.67,3.42,3.70,-2.02,-2.02,-2.02
152.26,-5.71,-3.67,-5.72,-3.67,3.67,3.42,3.65,-2.04,-2.04,-2.04
153.78,-5.74,-3.67,-5.74,-3.67,3.66,3.41,3.61,-2.08,-2.07,-2.07
155.32,-5.75,-3.65,-5.76,-3.66,3.65,3.41,3.56,-2.10,-2.10,-2.10
156.88,-5.78,-3.65,-5.78,-3.64,3.64,3.40,3.52,-2.14,-2.14,-2.13
158.44,-5.79,-3.62,-5.79,-3.62,3.62,3.40,3.48,-2.17,-2.17,-2.18
160.03,-5.81,-3.60,-5.81,-3.61,3.61,3.40,3.44,-2.21,-2.21,-2.21
161.63,-5.83,-3.59,-5.83,-3.59,3.59,3.40,3.40,-2.24,-2.24,-2.24
163.24,-5.85,-3.57,-5.85,-3.57,3.57,3.40,3.37,-2.28,-2.28,-2.28
164.88,-5.86,-3.54,-5.87,-3.55,3.55,3.40,3.33,-2.31,-2.31,-2.32
166.53,-5.88,-3.52,-5.89,-3.53,3.54,3.40,3.30,-2.34,-2.35,-2.36
168.19,-5.91,-3.52,-5.91,-3.52,3.52,3.40,3.27,-2.39,-2.39,-2.39
169.87,-5.93,-3.51,-5.93,-3.51,3.51,3.41,3.24,-2.42,-2.42,-2.42
171.57,-5.95,-3.50,-5.95,-3.50,3.49,3.41,3.22,-2.46,-2.46,-2.45
173.29,-5.96,-3.47,-5.97,-3.48,3.47,3.41,3.20,-2.49,-2.49,-2.49
175.02,-5.98,-3.46,-5.98,-3.46,3.45,3.41,3.18,-2.53,-2.53,-2.52
176.77,-5.99,-3.43,-5.99,-3.44,3.43,3.41,3.16,-2.56,-2.56,-2.56
178.54,-6.00,-3.42,-6.00,-3.41,3.41,3.41,3.15,-2.59,-2.59,-2.58
180.32,-6.00,-3.38,-6.01,-3.38,3.38,3.41,3.13,-2.62,-2.62,-2.62
182.13,-6.01,-3.35,-6.01,-3.35,3.35,3.40,3.12,-2.66,-2.65,-2.66
183.95,-6.01,-3.32,-6.01,-3.32,3.33,3.40,3.12,-2.68,-2.68,-2.69
185.79,-6.01,-3.29,-6.02,-3.29,3.30,3.40,3.11,-2.71,-2.72,-2.72
187.65,-6.02,-3.27,-6.02,-3.27,3.27,3.39,3.11,-2.75,-2.75,-2.75
189.52,-6.03,-3.24,-6.03,-3.25,3.25,3.39,3.11,-2.78,-2.78,-2.79
191.42,-6.04,-3.23,-6.04,-3.23,3.22,3.38,3.11,-2.82,-2.82,-2.81
193.33,-6.05,-3.20,-6.05,-3.20,3.20,3.38,3.11,-2.85,-2.85,-2.85
195.27,-6.06,-3.18,-6.06,-3.18,3.18,3.37,3.12,-2.88,-2.88,-2.89
197.22,-6.07,-3.15,-6.08,-3.16,3.16,3.36,3.12,-2.91,-2.92,-2.92
199.19,-6.09,-3.14,-6.09,-3.14,3.14,3.35,3.13,-2.95,-2.95,-2.95
201.18,-6.10,-3.13,-6.09,-3.12,3.12,3.34,3.14,-2.98,-2.98,-2.98
203.19,-6.09,-3.09,-6.10,-3.10,3.10,3.33,3.15,-3.00,-3.00,-3.00
205.23,-6.10,-3.07,-6.10,-3.08,3.08,3.31,3.16,-3.03,-3.03,-3.03
207.28,-6.11,-3.06,-6.11,-3.06,3.05,3.30,3.17,-3.06,-3.06,-3.05
209.35,-6.12,-3.04,-6.12,-3.04,3.03,3.28,3.19,-3.09,-3.09,-3.09
211.44,-6.12,-3.01,-6.12,-3.01,3.01,3.27,3.20,-3.11,-3.11,-3.11
213.56,-6.12,-2.99,-6.12,-2.99,2.99,3.25,3.21,-3.13,-3.13,-3.13
215.69,-6.12,-2.97,-6.13,-2.97,2.97,3.23,3.23,-3.15,-3.16,-3.16
217.85,-6.13,-2.95,-6.13,-2.95,2.95,3.21,3.24,-3.18,-3.18,-3.18
220.03,-6.14,-2.93,-6.14,-2.93,2.93,3.19,3.25,-3.21,-3.20,-3.21
222.23,-6.14,-2.91,-6.15,-2.91,2.92,3.17,3.26,-3.22,-3.23,-3.23
224.45,-6.15,-2.90,-6.16,-2.90,2.90,3.15,3.27,-3.25,-3.25,-3.25
226.70,-6.17,-2.90,-6.16,-2.89,2.89,3.12,3.28,-3.28,-3.27,-3.27
228.96,-6.17,-2.89,-6.17,-2.89,2.88,3.10,3.28,-3.29,-3.29,-3.28
231.25,-6.17,-2.87,-6.18,-2.87,2.87,3.08,3.28,-3.30,-3.31,-3.30
233.57,-6.19,-2.87,-6.18,-2.86,2.86,3.05,3.28,-3.33,-3.32,-3.32
235.90,-6.19,-2.84,-6.20,-2.85,2.85,3.02,3.28,-3.34,-3.35,-3.35
238.26,-6.20,-2.83,-6.20,-2.84,2.84,3.00,3.27,-3.36,-3.36,-3.37
240.64,-6.21,-2.84,-6.21,-2.83,2.83,2.97,3.26,-3.38,-3.38,-3.37
243.05,-6.20,-2.81,-6.21,-2.82,2.82,2.94,3.24,-3.38,-3.39,-3.39
245.48,-6.21,-2.81,-6.21,-2.81,2.80,2.91,3.23,-3.41,-3.41,-3.41
247.93,-6.21,-2.79,-6.21,-2.79,2.79,2.88,3.20,-3.42,-3.42,-3.42
250.41,-6.21,-2.78,-6.21,-2.78,2.78,2.85,3.18,-3.43,-3.43,-3.43
252.92,-6.20,-2.76,-6.21,-2.76,2.76,2.81,3.15,-3.44,-3.45,-3.44
255.45,-6.20,-2.75,-6.20,-2.75,2.74,2.78,3.11,-3.46,-3.46,-3.46
258.00,-6.19,-2.73,-6.19,-2.73,2.72,2.75,3.07,-3.47,-3.46,-3.46
260.58,-6.17,-2.70,-6.18,-2.70,2.70,2.71,3.03,-3.47,-3.47,-3.47
263.19,-6.16,-2.68,-6.16,-2.68,2.68,2.67,2.98,-3.48,-3.48,-3.48
265.82,-6.15,-2.66,-6.15,-2.66,2.66,2.64,2.93,-3.49,-3.49,-3.49
268.48,-6.14,-2.64,-6.14,-2.64,2.64,2.60,2.87,-3.50,-3.50,-3.51
271.16,-6.13,-2.62,-6.13,-2.62,2.62,2.56,2.82,-3.51,-3.51,-3.51
273.87,-6.12,-2.59,-6.12,-2.59,2.59,2.53,2.75,-3.53,-3.53,-3.53
276.61,-6.11,-2.57,-6.11,-2.57,2.57,2.49,2.69,-3.54,-3.54,-3.54
279.38,-6.10,-2.54,-6.10,-2.54,2.55,2.45,2.62,-3.56,-3.55,-3.56
282.17,-6.08,-2.52,-6.08,-2.52,2.52,2.41,2.55,-3.56,-3.56,-3.56
284.99,-6.06,-2.50,-6.06,-2.50,2.50,2.36,2.48,-3.57,-3.57,-3.57
287.84,-6.04,-2.48,-6.04,-2.47,2.47,2.32,2.41,-3.57,-3.57,-3.56
290.72,-6.01,-2.43,-6.02,-2.44,2.44,2.28,2.33,-3.57,-3.58,-3.58
293.63,-5.99,-2.40,-5.99,-2.41,2.41,2.24,2.26,-3.58,-3.58,-3.59
296.57,-5.97,-2.38,-5.97,-2.37,2.38,2.19,2.18,-3.59,-3.59,-3.59
299.53,-5.94,-2.35,-5.94,-2.34,2.34,2.15,2.10,-3.60,-3.60,-3.60
302.53,-5.90,-2.30,-5.90,-2.30,2.30,2.10,2.02,-3.60,-3.60,-3.60
305.55,-5.86,-2.26,-5.87,-2.27,2.26,2.06,1.94,-3.60,-3.61,-3.60
308.61,-5.82,-2.23,-5.82,-2.22,2.21,2.01,1.86,-3.61,-3.61,-3.60
311.69,-5.77,-2.17,-5.77,-2.17,2.16,1.96,1.78,-3.61,-3.61,-3.60
314.81,-5.70,-2.10,-5.71,-2.11,2.10,1.92,1.70,-3.60,-3.60,-3.60
317.96,-5.64,-2.04,-5.64,-2.04,2.04,1.87,1.62,-3.60,-3.60,-3.61
321.14,-5.57,-1.97,-5.57,-1.97,1.97,1.82,1.54,-3.60,-3.60,-3.60
324.35,-5.50,-1.90,-5.50,-1.91,1.90,1.77,1.46,-3.60,-3.60,-3.60
327.59,-5.43,-1.85,-5.43,-1.83,1.83,1.72,1.38,-3.60,-3.60,-3.58
330.87,-5.35,-1.76,-5.35,-1.76,1.76,1.67,1.31,-3.59,-3.59,-3.60
334.18,-5.27,-1.67,-5.28,-1.68,1.69,1.61,1.23,-3.59,-3.59,-3.60
337.52,-5.20,-1.61,-5.20,-1.61,1.61,1.56,1.15,-3.59,-3.59,-3.59
340.90,-5.12,-1.54,-5.12,-1.54,1.54,1.51,1.07,-3.58,-3.59,-3.58
344.30,-5.05,-1.47,-5.05,-1.46,1.46,1.45,1.00,-3.59,-3.59,-3.59
347.75,-4.97,-1.39,-4.97,-1.39,1.39,1.40,0.92,-3.58,-3.58,-3.58
351.23,-4.89,-1.30,-4.90,-1.32,1.31,1.34,0.84,-3.58,-3.58,-3.59
354.74,-4.82,-1.25,-4.82,-1.24,1.24,1.28,0.77,-3.58,-3.58,-3.57
358.28,-4.75,-1.17,-4.75,-1.17,1.17,1.23,0.69,-3.58,-3.58,-3.58
361.87,-4.67,-1.09,-4.68,-1.10,1.10,1.17,0.62,-3.58,-3.58,-3.59
365.49,-4.60,-1.03,-4.61,-1.02,1.02,1.11,0.55,-3.58,-3.58,-3.58
369.14,-4.54,-0.96,-4.53,-0.95,0.95,1.05,0.47,-3.59,-3.58,-3.58
372.83,-4.46,-0.88,-4.46,-0.88,0.88,0.98,0.40,-3.58,-3.58,-3.58
376.56,-4.39,-0.80,-4.39,-0.81,0.81,0.92,0.33,-3.58,-3.58,-3.59
380.33,-4.32,-0.74,-4.32,-0.74,0.74,0.86,0.26,-3.58,-3.58,-3.58
384.13,-4.25,-0.67,-4.25,-0.67,0.67,0.79,0.19,-3.58,-3.58,-3.58
387.97,-4.18,-0.61,-4.18,-0.60,0.60,0.72,0.12,-3.58,-3.58,-3.58
391.85,-4.11,-0.53,-4.11,-0.53,0.54,0.66,0.05,-3.58,-3.58,-3.58
395.77,-4.04,-0.46,-4.04,-0.47,0.47,0.59,-0.02,-3.57,-3.57,-3.58
399.73,-3.97,-0.40,-3.97,-0.40,0.40,0.52,-0.09,-3.57,-3.57,-3.57
403.72,-3.90,-0.34,-3.90,-0.34,0.33,0.44,-0.15,-3.57,-3.57,-3.56
407.76,-3.83,-0.27,-3.83,-0.27,0.27,0.37,-0.22,-3.57,-3.56,-3.56
411.84,-3.75,-0.19,-3.76,-0.20,0.20,0.29,-0.29,-3.56,-3.56,-3.56
415.96,-3.68,-0.13,-3.69,-0.12,0.13,0.22,-0.35,-3.55,-3.56,-3.55
420.12,-3.62,-0.06,-3.61,-0.05,0.06,0.14,-0.41,-3.56,-3.56,-3.56
424.32,-3.54,0.02,-3.54,0.01,-0.01,0.06,-0.47,-3.55,-3.56,-3.57
