frequency,raw,error,smoothed,error_smoothed,equalization,parametric_eq,fixed_band_eq,equalized_raw,equalized_smoothed,target
20.00,-2.96,-4.92,-2.96,-4.93,4.91,4.62,2.16,1.95,1.94,1.96
20.20,-2.91,-4.86,-2.91,-4.86,4.85,4.63,2.22,1.94,1.94,1.95
20.40,-2.87,-4.81,-2.86,-4.80,4.80,4.64,2.28,1.93,1.95,1.94
20.61,-2.82,-4.76,-2.81,-4.75,4.76,4.66,2.35,1.94,1.95,1.94
20.81,-2.77,-4.69,-2.77,-4.70,4.72,4.67,2.41,1.95,1.95,1.92
21.02,-2.73,-4.65,-2.74,-4.66,4.69,4.68,2.48,1.96,1.95,1.92
21.23,-2.73,-4.65,-2.72,-4.64,4.66,4.68,2.55,1.93,1.94,1.92
21.44,-2.73,-4.65,-2.72,-4.64,4.64,4.69,2.63,1.91,1.92,1.92
21.66,-2.73,-4.64,-2.73,-4.64,4.63,4.70,2.70,1.91,1.91,1.91
21.87,-2.73,-4.64,-2.73,-4.64,4.63,4.71,2.78,1.90,1.90,1.91
22.09,-2.73,-4.64,-2.73,-4.64,4.63,4.71,2.86,1.90,1.90,1.91
22.31,-2.73,-4.64,-2.73,-4.63,4.63,4.72,2.94,1.90,1.90,1.91
22.54,-2.73,-4.63,-2.73,-4.63,4.63,4.73,3.02,1.90,1.90,1.90
22.76,-2.73,-4.64,-2.73,-4.63,4.63,4.73,3.11,1.90,1.90,1.91
22.99,-2.73,-4.64,-2.73,-4.63,4.63,4.73,3.19,1.91,1.91,1.91
23.22,-2.73,-4.63,-2.73,-4.64,4.64,4.74,3.28,1.91,1.91,1.91
23.45,-2.73,-4.63,-2.73,-4.64,4.64,4.74,3.38,1.91,1.91,1.91
23.69,-2.73,-4.64,-2.73,-4.64,4.65,4.74,3.47,1.92,1.92,1.92
23.92,-2.73,-4.64,-2.73,-4.65,4.65,4.74,3.56,1.92,1.92,1.92
24.16,-2.73,-4.66,-2.73,-4.66,4.66,4.74,3.66,1.93,1.93,1.93
24.40,-2.73,-4.67,-2.73,-4.67,4.66,4.74,3.76,1.93,1.93,1.94
24.65,-2.73,-4.67,-2.73,-4.67,4.66,4.74,3.86,1.94,1.94,1.94
24.89,-2.73,-4.67,-2.73,-4.67,4.67,4.74,3.96,1.94,1.94,1.94
25.14,-2.73,-4.66,-2.73,-4.66,4.67,4.74,4.06,1.94,1.94,1.93
25.39,-2.73,-4.66,-2.73,-4.66,4.67,4.74,4.16,1.94,1.94,1.93
25.65,-2.73,-4.67,-2.73,-4.66,4.67,4.73,4.26,1.94,1.94,1.94
25.91,-2.73,-4.67,-2.73,-4.67,4.67,4.73,4.36,1.94,1.94,1.94
26.16,-2.73,-4.67,-2.73,-4.67,4.66,4.73,4.47,1.94,1.94,1.94
26.43,-2.73,-4.67,-2.73,-4.67,4.66,4.72,4.57,1.93,1.93,1.94
26.69,-2.73,-4.66,-2.73,-4.66,4.66,4.71,4.67,1.93,1.93,1.94
26.96,-2.73,-4.66,-2.73,-4.66,4.66,4.71,4.76,1.93,1.93,1.94
27.23,-2.73,-4.65,-2.73,-4.66,4.66,4.70,4.86,1.93,1.93,1.92
27.50,-2.73,-4.65,-2.73,-4.65,4.66,4.69,4.95,1.94,1.94,1.92
27.77,-2.73,-4.65,-2.73,-4.65,4.66,4.68,5.04,1.93,1.93,1.92
28.05,-2.73,-4.65,-2.73,-4.65,4.65,4.67,5.13,1.93,1.93,1.92
28.33,-2.73,-4.65,-2.73,-4.65,4.64,4.66,5.21,1.91,1.91,1.92
28.62,-2.73,-4.64,-2.73,-4.64,4.62,4.65,5.28,1.89,1.88,1.91
28.90,-2.73,-4.63,-2.72,-4.62,4.59,4.64,5.35,1.86,1.87,1.91
29.19,-2.69,-4.58,-2.68,-4.58,4.55,4.63,5.42,1.86,1.87,1.90
29.48,-2.62,-4.51,-2.62,-4.51,4.51,4.62,5.47,1.90,1.89,1.89
29.78,-2.56,-4.44,-2.56,-4.45,4.47,4.60,5.52,1.91,1.91,1.88
30.08,-2.51,-4.40,-2.52,-4.40,4.44,4.59,5.56,1.93,1.91,1.89
30.38,-2.51,-4.38,-2.50,-4.38,4.40,4.58,5.60,1.89,1.90,1.87
30.68,-2.51,-4.37,-2.50,-4.36,4.37,4.56,5.62,1.86,1.87,1.86
30.99,-2.51,-4.35,-2.51,-4.36,4.35,4.55,5.64,1.84,1.84,1.85
31.30,-2.51,-4.35,-2.51,-4.35,4.34,4.53,5.65,1.83,1.83,1.84
31.61,-2.51,-4.35,-2.51,-4.34,4.33,4.51,5.64,1.82,1.82,1.84
31.93,-2.51,-4.33,-2.51,-4.33,4.33,4.50,5.63,1.82,1.82,1.82
32.24,-2.51,-4.33,-2.51,-4.32,4.32,4.48,5.62,1.82,1.82,1.82
32.57,-2.51,-4.31,-2.51,-4.31,4.32,4.46,5.59,1.81,1.81,1.81
32.89,-2.51,-4.31,-2.51,-4.31,4.32,4.44,5.55,1.81,1.81,1.80
33.22,-2.51,-4.31,-2.51,-4.31,4.31,4.42,5.51,1.81,1.81,1.80
33.55,-2.51,-4.32,-2.51,-4.32,4.31,4.40,5.46,1.81,1.81,1.81
33.89,-2.51,-4.32,-2.51,-4.32,4.31,4.38,5.41,1.80,1.80,1.82
34.23,-2.51,-4.31,-2.51,-4.31,4.31,4.36,5.34,1.80,1.80,1.80
34.57,-2.51,-4.31,-2.51,-4.31,4.31,4.34,5.28,1.80,1.80,1.80
34.92,-2.51,-4.31,-2.51,-4.31,4.31,4.31,5.21,1.80,1.80,1.80
35.27,-2.51,-4.31,-2.51,-4.30,4.30,4.29,5.13,1.80,1.80,1.80
35.62,-2.51,-4.29,-2.51,-4.30,4.30,4.27,5.05,1.79,1.79,1.78
35.97,-2.51,-4.30,-2.51,-4.29,4.29,4.24,4.97,1.78,1.78,1.79
36.33,-2.51,-4.28,-2.51,-4.28,4.28,4.22,4.89,1.77,1.77,1.77
36.70,-2.51,-4.27,-2.51,-4.27,4.27,4.19,4.80,1.76,1.76,1.76
37.06,-2.51,-4.25,-2.51,-4.25,4.25,4.17,4.72,1.74,1.74,1.75
37.43,-2.51,-4.23,-2.51,-4.24,4.23,4.14,4.63,1.73,1.73,1.72
37.81,-2.51,-4.22,-2.51,-4.21,4.21,4.11,4.54,1.70,1.70,1.71
38.19,-2.51,-4.19,-2.51,-4.19,4.19,4.09,4.46,1.68,1.68,1.69
38.57,-2.51,-4.16,-2.51,-4.16,4.17,4.06,4.37,1.66,1.66,1.65
38.95,-2.51,-4.13,-2.51,-4.13,4.14,4.03,4.28,1.64,1.64,1.63
39.34,-2.51,-4.10,-2.51,-4.10,4.12,4.00,4.20,1.61,1.61,1.59
39.74,-2.51,-4.07,-2.51,-4.07,4.08,3.98,4.12,1.57,1.57,1.57
40.14,-2.51,-4.04,-2.52,-4.05,4.03,3.95,4.04,1.53,1.52,1.53
40.54,-2.51,-4.01,-2.51,-4.02,3.98,3.92,3.96,1.47,1.47,1.51
40.94,-2.51,-3.99,-2.48,-3.96,3.93,3.89,3.88,1.42,1.45,1.48
41.35,-2.43,-3.89,-2.42,-3.88,3.87,3.86,3.81,1.44,1.45,1.47
41.76,-2.33,-3.77,-2.35,-3.79,3.81,3.83,3.73,1.48,1.46,1.44
42.18,-2.28,-3.70,-2.29,-3.71,3.75,3.79,3.66,1.48,1.46,1.42
42.60,-2.28,-3.68,-2.27,-3.67,3.70,3.76,3.60,1.42,1.43,1.40
43.03,-2.28,-3.65,-2.27,-3.64,3.66,3.73,3.53,1.38,1.38,1.37
43.46,-2.28,-3.62,-2.28,-3.62,3.62,3.70,3.47,1.34,1.34,1.34
43.90,-2.28,-3.60,-2.28,-3.60,3.59,3.67,3.41,1.31,1.31,1.32
44.33,-2.28,-3.58,-2.28,-3.58,3.56,3.63,3.35,1.29,1.29,1.30
44.78,-2.28,-3.55,-2.28,-3.55,3.54,3.60,3.30,1.27,1.27,1.27
45.23,-2.28,-3.53,-2.28,-3.53,3.52,3.56,3.25,1.25,1.25,1.25
45.68,-2.28,-3.49,-2.28,-3.50,3.50,3.53,3.20,1.22,1.22,1.22
46.13,-2.28,-3.47,-2.28,-3.47,3.47,3.50,3.15,1.19,1.19,1.19
46.60,-2.28,-3.44,-2.28,-3.44,3.44,3.46,3.11,1.16,1.16,1.16
47.06,-2.28,-3.41,-2.28,-3.41,3.40,3.43,3.07,1.13,1.13,1.13
47.53,-2.28,-3.38,-2.28,-3.37,3.37,3.39,3.03,1.09,1.09,1.10
48.01,-2.28,-3.33,-2.28,-3.33,3.33,3.35,2.99,1.05,1.05,1.05
48.49,-2.28,-3.30,-2.28,-3.29,3.29,3.32,2.96,1.01,1.01,1.02
48.97,-2.28,-3.25,-2.28,-3.25,3.25,3.28,2.93,0.98,0.98,0.97
49.46,-2.28,-3.22,-2.28,-3.21,3.22,3.25,2.90,0.94,0.94,0.94
49.96,-2.28,-3.17,-2.28,-3.17,3.18,3.21,2.87,0.90,0.90,0.89
50.46,-2.28,-3.14,-2.28,-3.14,3.15,3.17,2.84,0.87,0.87,0.87
50.96,-2.28,-3.11,-2.28,-3.11,3.11,3.13,2.82,0.83,0.83,0.83
51.47,-2.28,-3.08,-2.28,-3.08,3.08,3.10,2.79,0.80,0.80,0.80
51.99,-2.28,-3.05,-2.28,-3.04,3.04,3.06,2.77,0.76,0.76,0.77
52.51,-2.28,-3.00,-2.28,-3.01,3.00,3.02,2.75,0.72,0.72,0.72
53.03,-2.28,-2.98,-2.28,-2.97,2.96,2.98,2.73,0.68,0.68,0.70
53.56,-2.28,-2.92,-2.28,-2.93,2.92,2.94,2.71,0.64,0.64,0.65
54.10,-2.28,-2.88,-2.28,-2.88,2.88,2.90,2.69,0.60,0.60,0.60
54.64,-2.28,-2.83,-2.28,-2.83,2.84,2.86,2.67,0.56,0.56,0.55
55.18,-2.28,-2.79,-2.28,-2.79,2.80,2.82,2.65,0.52,0.52,0.51
55.74,-2.28,-2.75,-2.28,-2.75,2.76,2.79,2.64,0.48,0.48,0.47
56.29,-2.28,-2.72,-2.28,-2.72,2.72,2.75,2.62,0.44,0.44,0.44
56.86,-2.28,-2.69,-2.28,-2.69,2.69,2.71,2.60,0.41,0.41,0.42
57.42,-2.28,-2.65,-2.28,-2.65,2.66,2.67,2.58,0.38,0.38,0.37
58.00,-2.28,-2.62,-2.28,-2.62,2.63,2.62,2.56,0.35,0.35,0.34
58.58,-2.28,-2.60,-2.28,-2.60,2.60,2.58,2.54,0.32,0.32,0.32
59.16,-2.28,-2.58,-2.28,-2.57,2.56,2.54,2.51,0.29,0.29,0.30
59.76,-2.28,-2.55,-2.28,-2.54,2.53,2.50,2.49,0.25,0.25,0.27
60.35,-2.28,-2.49,-2.28,-2.50,2.49,2.46,2.46,0.21,0.21,0.22
60.96,-2.28,-2.45,-2.28,-2.45,2.45,2.42,2.44,0.17,0.17,0.18
61.57,-2.28,-2.40,-2.28,-2.40,2.41,2.38,2.41,0.13,0.13,0.12
62.18,-2.28,-2.35,-2.28,-2.35,2.37,2.34,2.38,0.09,0.09,0.07
62.80,-2.28,-2.30,-2.28,-2.30,2.33,2.29,2.35,0.05,0.05,0.02
63.43,-2.28,-2.26,-2.28,-2.26,2.28,2.25,2.31,-0.00,-0.00,-0.02
64.07,-2.28,-2.22,-2.28,-2.22,2.22,2.21,2.27,-0.06,-0.06,-0.06
64.71,-2.28,-2.17,-2.29,-2.19,2.15,2.17,2.24,-0.13,-0.14,-0.10
65.35,-2.28,-2.13,-2.28,-2.13,2.08,2.13,2.20,-0.20,-0.20,-0.15
66.01,-2.28,-2.09,-2.22,-2.03,2.00,2.08,2.15,-0.28,-0.22,-0.19
66.67,-2.13,-1.90,-2.15,-1.92,1.92,2.04,2.11,-0.21,-0.23,-0.23
67.33,-2.05,-1.76,-2.08,-1.80,1.84,2.00,2.06,-0.20,-0.24,-0.29
68.01,-2.05,-1.72,-2.04,-1.71,1.77,1.96,2.02,-0.28,-0.27,-0.33
68.69,-2.05,-1.68,-2.04,-1.67,1.70,1.91,1.97,-0.35,-0.34,-0.37
69.37,-2.05,-1.64,-2.05,-1.64,1.63,1.87,1.92,-0.42,-0.42,-0.41
70.07,-2.05,-1.59,-2.05,-1.59,1.57,1.83,1.87,-0.47,-0.47,-0.45
70.77,-2.05,-1.55,-2.05,-1.55,1.53,1.78,1.82,-0.52,-0.52,-0.50
71.48,-2.05,-1.49,-2.05,-1.50,1.49,1.74,1.76,-0.56,-0.56,-0.55
72.19,-2.05,-1.45,-2.05,-1.45,1.45,1.70,1.71,-0.60,-0.60,-0.60
72.91,-2.05,-1.40,-2.05,-1.40,1.40,1.65,1.66,-0.64,-0.64,-0.65
73.64,-2.05,-1.36,-2.05,-1.35,1.36,1.61,1.60,-0.69,-0.69,-0.69
74.38,-2.05,-1.31,-2.05,-1.31,1.32,1.56,1.55,-0.73,-0.73,-0.74
75.12,-2.05,-1.27,-2.05,-1.27,1.28,1.52,1.49,-0.77,-0.77,-0.78
75.87,-2.05,-1.24,-2.05,-1.24,1.24,1.48,1.44,-0.81,-0.81,-0.81
76.63,-2.05,-1.21,-2.05,-1.20,1.20,1.43,1.38,-0.84,-0.84,-0.84
77.40,-2.05,-1.18,-2.05,-1.17,1.17,1.39,1.33,-0.87,-0.87,-0.87
78.17,-2.05,-1.13,-2.05,-1.14,1.14,1.35,1.27,-0.90,-0.90,-0.91
78.95,-2.05,-1.12,-2.05,-1.12,1.12,1.30,1.22,-0.93,-0.93,-0.93
79.74,-2.05,-1.09,-2.05,-1.09,1.09,1.26,1.16,-0.96,-0.96,-0.96
80.54,-2.05,-1.06,-2.05,-1.06,1.06,1.21,1.11,-0.99,-0.99,-0.99
81.35,-2.05,-1.03,-2.05,-1.03,1.03,1.17,1.05,-1.02,-1.02,-1.02
82.16,-2.05,-1.01,-2.05,-1.00,1.00,1.12,1.00,-1.05,-1.05,-1.04
82.98,-2.05,-0.96,-2.05,-0.96,0.96,1.08,0.95,-1.09,-1.09,-1.09
83.81,-2.05,-0.92,-2.05,-0.93,0.93,1.04,0.89,-1.12,-1.12,-1.12
84.65,-2.05,-0.89,-2.05,-0.88,0.89,0.99,0.84,-1.16,-1.16,-1.16
85.50,-2.05,-0.85,-2.05,-0.85,0.85,0.95,0.79,-1.20,-1.20,-1.20
86.35,-2.05,-0.82,-2.05,-0.81,0.81,0.90,0.74,-1.24,-1.24,-1.23
87.22,-2.05,-0.77,-2.05,-0.77,0.77,0.86,0.69,-1.28,-1.28,-1.27
88.09,-2.05,-0.73,-2.05,-0.73,0.73,0.81,0.64,-1.32,-1.32,-1.31
88.97,-2.05,-0.69,-2.05,-0.69,0.69,0.77,0.59,-1.36,-1.36,-1.36
89.86,-2.05,-0.65,-2.05,-0.65,0.65,0.73,0.54,-1.40,-1.40,-1.40
90.76,-2.05,-0.60,-2.05,-0.60,0.61,0.68,0.49,-1.44,-1.44,-1.44
91.66,-2.05,-0.56,-2.05,-0.56,0.56,0.64,0.44,-1.48,-1.48,-1.49
92.58,-2.05,-0.52,-2.05,-0.52,0.52,0.59,0.39,-1.53,-1.53,-1.53
93.51,-2.05,-0.48,-2.05,-0.48,0.48,0.55,0.35,-1.57,-1.57,-1.57
94.44,-2.05,-0.44,-2.05,-0.44,0.43,0.51,0.30,-1.62,-1.62,-1.61
95.39,-2.05,-0.39,-2.05,-0.39,0.39,0.46,0.25,-1.66,-1.66,-1.66
96.34,-2.05,-0.34,-2.05,-0.35,0.34,0.42,0.21,-1.71,-1.71,-1.70
97.30,-2.05,-0.30,-2.05,-0.30,0.30,0.37,0.16,-1.75,-1.75,-1.75
98.28,-2.05,-0.25,-2.05,-0.25,0.25,0.33,0.11,-1.80,-1.80,-1.80
99.26,-2.05,-0.19,-2.05,-0.20,0.21,0.29,0.07,-1.84,-1.84,-1.85
100.25,-2.05,-0.16,-2.05,-0.16,0.16,0.24,0.02,-1.89,-1.89,-1.89
101.25,-2.05,-0.13,-2.05,-0.12,0.12,0.20,-0.02,-1.93,-1.93,-1.92
102.27,-2.05,-0.08,-2.05,-0.08,0.08,0.15,-0.06,-1.97,-1.97,-1.97
103.29,-2.05,-0.03,-2.05,-0.04,0.04,0.11,-0.11,-2.01,-2.01,-2.01
104.32,-2.05,-0.01,-2.05,-0.00,0.00,0.07,-0.15,-2.04,-2.04,-2.04
105.37,-2.05,0.03,-2.05,0.03,-0.03,0.02,-0.19,-2.08,-2.08,-2.08
106.42,-2.05,0.06,-2.05,0.07,-0.06,-0.02,-0.23,-2.11,-2.11,-2.11
107.48,-2.05,0.11,-2.05,0.10,-0.10,-0.06,-0.28,-2.14,-2.14,-2.16
108.56,-2.05,0.13,-2.05,0.13,-0.13,-0.11,-0.32,-2.17,-2.17,-2.17
109.64,-2.05,0.15,-2.05,0.16,-0.16,-0.15,-0.36,-2.20,-2.20,-2.20
110.74,-2.05,0.19,-2.05,0.19,-0.19,-0.19,-0.40,-2.24,-2.24,-2.24
111.85,-2.05,0.22,-2.05,0.22,-0.22,-0.23,-0.44,-2.27,-2.27,-2.27
112.97,-2.05,0.24,-2.05,0.25,-0.26,-0.28,-0.47,-2.30,-2.30,-2.29
114.10,-2.05,0.28,-2.05,0.29,-0.29,-0.32,-0.51,-2.34,-2.34,-2.33
115.24,-2.05,0.33,-2.05,0.33,-0.33,-0.36,-0.55,-2.38,-2.38,-2.38
116.39,-2.05,0.38,-2.05,0.38,-0.37,-0.40,-0.58,-2.42,-2.42,-2.43
117.55,-2.05,0.42,-2.05,0.42,-0.41,-0.45,-0.62,-2.46,-2.46,-2.47
118.73,-2.05,0.46,-2.05,0.46,-0.45,-0.49,-0.65,-2.50,-2.50,-2.51
119.92,-2.05,0.50,-2.05,0.50,-0.49,-0.53,-0.68,-2.54,-2.54,-2.55
121.12,-2.05,0.52,-2.05,0.53,-0.53,-0.57,-0.71,-2.58,-2.58,-2.57
122.33,-2.05,0.58,-2.05,0.57,-0.58,-0.61,-0.75,-2.62,-2.62,-2.62
123.55,-2.05,0.61,-2.05,0.61,-0.62,-0.65,-0.77,-2.66,-2.66,-2.66
124.79,-2.05,0.65,-2.05,0.66,-0.66,-0.69,-0.80,-2.71,-2.71,-2.70
126.03,-2.05,0.70,-2.05,0.70,-0.70,-0.73,-0.83,-2.75,-2.75,-2.75
127.29,-2.05,0.75,-2.05,0.75,-0.75,-0.77,-0.86,-2.80,-2.80,-2.80
128.57,-2.05,0.80,-2.05,0.80,-0.79,-0.81,-0.88,-2.84,-2.84,-2.84
129.85,-2.05,0.83,-2.05,0.84,-0.84,-0.85,-0.91,-2.89,-2.89,-2.88
131.15,-2.05,0.88,-2.05,0.88,-0.88,-0.89,-0.93,-2.93,-2.93,-2.93
132.46,-2.05,0.93,-2.05,0.93,-0.92,-0.93,-0.96,-2.97,-2.97,-2.98
133.79,-2.05,0.97,-2.05,0.97,-0.96,-0.97,-0.98,-3.01,-3.01,-3.02
135.12,-2.05,1.01,-2.05,1.00,-1.00,-1.01,-1.00,-3.05,-3.05,-3.05
136.48,-2.05,1.03,-2.05,1.04,-1.04,-1.05,-1.02,-3.09,-3.09,-3.08
137.84,-2.05,1.07,-2.05,1.07,-1.08,-1.09,-1.05,-3.12,-3.12,-3.12
139.22,-2.05,1.11,-2.05,1.11,-1.11,-1.13,-1.07,-3.16,-3.16,-3.16
140.61,-2.05,1.15,-2.05,1.14,-1.14,-1.16,-1.09,-3.19,-3.19,-3.19
142.02,-2.05,1.18,-2.05,1.18,-1.18,-1.20,-1.11,-3.22,-3.22,-3.23
143.44,-2.05,1.21,-2.05,1.21,-1.21,-1.24,-1.13,-3.26,-3.26,-3.26
144.87,-2.05,1.24,-2.05,1.24,-1.24,-1.28,-1.15,-3.29,-3.29,-3.29
146.32,-2.05,1.27,-2.05,1.27,-1.27,-1.31,-1.17,-3.32,-3.32,-3.32
147.78,-2.05,1.30,-2.05,1.30,-1.30,-1.35,-1.20,-3.35,-3.35,-3.35
149.26,-2.05,1.33,-2.05,1.33,-1.33,-1.38,-1.22,-3.38,-3.38,-3.38
150.75,-2.05,1.37,-2.05,1.36,-1.36,-1.42,-1.24,-3.41,-3.41,-3.41
152.26,-2.05,1.39,-2.05,1.39,-1.39,-1.46,-1.26,-3.44,-3.44,-3.44
153.78,-2.05,1.43,-2.05,1.43,-1.42,-1.49,-1.29,-3.47,-3.47,-3.48
155.32,-2.05,1.45,-2.05,1.46,-1.46,-1.52,-1.31,-3.50,-3.50,-3.50
156.88,-2.05,1.49,-2.05,1.49,-1.49,-1.56,-1.34,-3.54,-3.54,-3.54
158.44,-2.05,1.52,-2.05,1.52,-1.52,-1.59,-1.37,-3.57,-3.57,-3.57
160.03,-2.05,1.55,-2.05,1.55,-1.55,-1.63,-1.40,-3.60,-3.60,-3.60
161.63,-2.05,1.58,-2.05,1.59,-1.59,-1.66,-1.42,-3.63,-3.63,-3.63
163.24,-2.05,1.63,-2.05,1.62,-1.62,-1.69,-1.45,-3.67,-3.67,-3.67
164.88,-2.05,1.66,-2.05,1.66,-1.65,-1.73,-1.49,-3.70,-3.70,-3.70
166.53,-2.05,1.69,-2.05,1.69,-1.69,-1.76,-1.52,-3.73,-3.73,-3.74
168.19,-2.05,1.71,-2.05,1.72,-1.72,-1.79,-1.55,-3.77,-3.77,-3.76
169.87,-2.05,1.75,-2.05,1.75,-1.75,-1.82,-1.59,-3.80,-3.80,-3.80
171.57,-2.05,1.79,-2.05,1.78,-1.79,-1.85,-1.62,-3.84,-3.84,-3.84
173.29,-2.05,1.82,-2.05,1.82,-1.83,-1.88,-1.66,-3.87,-3.87,-3.87
175.02,-2.05,1.86,-2.05,1.86,-1.86,-1.91,-1.70,-3.91,-3.91,-3.91
176.77,-2.05,1.90,-2.05,1.90,-1.90,-1.94,-1.74,-3.95,-3.95,-3.95
178.54,-2.05,1.94,-2.05,1.94,-1.94,-1.97,-1.78,-3.99,-3.99,-3.98
180.32,-2.05,1.99,-2.05,1.98,-1.98,-2.00,-1.83,-4.03,-4.03,-4.04
182.13,-2.05,2.02,-2.05,2.03,-2.02,-2.03,-1.87,-4.07,-4.07,-4.07
183.95,-2.05,2.06,-2.05,2.06,-2.06,-2.06,-1.92,-4.11,-4.11,-4.11
185.79,-2.05,2.11,-2.05,2.10,-2.10,-2.08,-1.96,-4.15,-4.15,-4.15
187.65,-2.05,2.14,-2.05,2.14,-2.14,-2.11,-2.01,-4.19,-4.19,-4.18
189.52,-2.05,2.19,-2.05,2.18,-2.18,-2.14,-2.06,-4.23,-4.23,-4.23
191.42,-2.05,2.21,-2.05,2.22,-2.22,-2.16,-2.11,-4.27,-4.27,-4.26
193.33,-2.05,2.25,-2.05,2.26,-2.25,-2.19,-2.17,-4.30,-4.30,-4.30
195.27,-2.05,2.29,-2.05,2.29,-2.29,-2.21,-2.22,-4.34,-4.34,-4.34
197.22,-2.05,2.33,-2.05,2.32,-2.32,-2.24,-2.27,-4.37,-4.37,-4.38
199.19,-2.05,2.35,-2.05,2.35,-2.35,-2.26,-2.33,-4.40,-4.40,-4.39
201.18,-2.05,2.38,-2.05,2.38,-2.38,-2.29,-2.38,-4.43,-4.43,-4.43
203.19,-2.05,2.41,-2.05,2.40,-2.41,-2.31,-2.44,-4.45,-4.45,-4.46
205.23,-2.05,2.43,-2.05,2.43,-2.43,-2.33,-2.49,-4.48,-4.48,-4.48
207.28,-2.05,2.45,-2.05,2.45,-2.46,-2.36,-2.55,-4.51,-4.51,-4.50
209.35,-2.05,2.48,-2.05,2.48,-2.48,-2.38,-2.61,-4.53,-4.53,-4.53
211.44,-2.05,2.52,-2.05,2.51,-2.51,-2.40,-2.66,-4.56,-4.56,-4.56
213.56,-2.05,2.54,-2.05,2.54,-2.54,-2.42,-2.72,-4.59,-4.59,-4.59
215.69,-2.05,2.56,-2.05,2.56,-2.56,-2.44,-2.77,-4.61,-4.61,-4.61
217.85,-2.05,2.58,-2.05,2.59,-2.59,-2.46,-2.83,-4.64,-4.64,-4.63
220.03,-2.05,2.63,-2.05,2.62,-2.62,-2.48,-2.88,-4.67,-4.67,-4.67
222.23,-2.05,2.65,-2.05,2.65,-2.64,-2.50,-2.93,-4.69,-4.69,-4.69
224.45,-2.05,2.67,-2.05,2.67,-2.67,-2.52,-2.98,-4.72,-4.72,-4.72
226.70,-2.05,2.70,-2.05,2.69,-2.69,-2.53,-3.02,-4.74,-4.74,-4.75
228.96,-2.05,2.71,-2.05,2.71,-2.71,-2.55,-3.07,-4.76,-4.76,-4.76
231.25,-2.05,2.73,-2.05,2.73,-2.74,-2.57,-3.11,-4.78,-4.78,-4.78
233.57,-2.05,2.76,-2.05,2.76,-2.76,-2.58,-3.14,-4.80,-4.80,-4.81
235.90,-2.05,2.78,-2.05,2.78,-2.78,-2.60,-3.18,-4.82,-4.82,-4.83
238.26,-2.05,2.80,-2.05,2.79,-2.79,-2.62,-3.21,-4.84,-4.84,-4.84
240.64,-2.05,2.81,-2.05,2.81,-2.81,-2.63,-3.23,-4.86,-4.86,-4.85
243.05,-2.05,2.82,-2.05,2.83,-2.82,-2.64,-3.25,-4.87,-4.87,-4.87
245.48,-2.05,2.84,-2.05,2.84,-2.84,-2.66,-3.27,-4.89,-4.89,-4.89
247.93,-2.05,2.86,-2.05,2.85,-2.85,-2.67,-3.28,-4.90,-4.90,-4.91
250.41,-2.05,2.86,-2.05,2.86,-2.86,-2.68,-3.29,-4.91,-4.91,-4.90
252.92,-2.05,2.86,-2.05,2.87,-2.87,-2.70,-3.30,-4.92,-4.92,-4.91
255.45,-2.05,2.88,-2.05,2.88,-2.88,-2.71,-3.30,-4.93,-4.93,-4.93
258.00,-2.05,2.89,-2.05,2.89,-2.89,-2.72,-3.29,-4.94,-4.94,-4.94
260.58,-2.05,2.90,-2.05,2.90,-2.90,-2.73,-3.28,-4.95,-4.95,-4.95
263.19,-2.05,2.91,-2.05,2.91,-2.91,-2.74,-3.27,-4.96,-4.96,-4.96
265.82,-2.05,2.92,-2.05,2.92,-2.92,-2.75,-3.26,-4.96,-4.96,-4.96
268.48,-2.05,2.92,-2.05,2.92,-2.92,-2.76,-3.24,-4.97,-4.97,-4.97
271.16,-2.05,2.93,-2.05,2.93,-2.93,-2.77,-3.21,-4.98,-4.98,-4.97
273.87,-2.05,2.93,-2.05,2.93,-2.94,-2.77,-3.19,-4.98,-4.98,-4.98
276.61,-2.05,2.94,-2.05,2.94,-2.94,-2.78,-3.16,-4.99,-4.99,-4.99
279.38,-2.05,2.95,-2.05,2.95,-2.94,-2.79,-3.13,-4.99,-4.99,-5.00
282.17,-2.05,2.95,-2.05,2.95,-2.94,-2.79,-3.09,-4.99,-4.99,-4.99
284.99,-2.05,2.94,-2.05,2.94,-2.94,-2.80,-3.06,-4.99,-4.99,-4.99
287.84,-2.05,2.94,-2.05,2.94,-2.94,-2.80,-3.02,-4.99,-4.99,-4.98
290.72,-2.05,2.94,-2.05,2.94,-2.94,-2.81,-2.98,-4.99,-4.99,-4.99
293.63,-2.05,2.93,-2.05,2.93,-2.94,-2.81,-2.95,-4.98,-4.98,-4.98
296.57,-2.05,2.93,-2.05,2.93,-2.93,-2.82,-2.91,-4.98,-4.98,-4.98
299.53,-2.05,2.93,-2.05,2.93,-2.93,-2.82,-2.87,-4.98,-4.98,-4.98
302.53,-2.05,2.93,-2.05,2.93,-2.93,-2.82,-2.83,-4.97,-4.97,-4.97
305.55,-2.05,2.93,-2.05,2.93,-2.92,-2.82,-2.79,-4.97,-4.97,-4.98
308.61,-2.05,2.92,-2.05,2.92,-2.92,-2.82,-2.75,-4.97,-4.97,-4.97
311.69,-2.05,2.92,-2.05,2.92,-2.92,-2.82,-2.71,-4.96,-4.96,-4.96
314.81,-2.05,2.91,-2.05,2.91,-2.91,-2.82,-2.67,-4.96,-4.96,-4.96
317.96,-2.05,2.91,-2.05,2.91,-2.91,-2.82,-2.64,-4.96,-4.96,-4.96
321.14,-2.05,2.90,-2.05,2.91,-2.91,-2.82,-2.60,-4.96,-4.96,-4.95
324.35,-2.05,2.91,-2.05,2.90,-2.91,-2.82,-2.57,-4.95,-4.95,-4.95
327.59,-2.05,2.90,-2.05,2.90,-2.90,-2.82,-2.54,-4.95,-4.95,-4.95
330.87,-2.05,2.90,-2.05,2.90,-2.90,-2.82,-2.50,-4.95,-4.95,-4.95
334.18,-2.05,2.90,-2.05,2.90,-2.89,-2.82,-2.47,-4.94,-4.94,-4.95
337.52,-2.05,2.89,-2.05,2.89,-2.89,-2.81,-2.45,-4.93,-4.93,-4.93
340.90,-2.05,2.88,-2.05,2.88,-2.88,-2.81,-2.42,-4.93,-4.93,-4.93
344.30,-2.05,2.87,-2.05,2.87,-2.87,-2.80,-2.40,-4.92,-4.92,-4.92
347.75,-2.05,2.85,-2.05,2.86,-2.86,-2.80,-2.37,-4.91,-4.91,-4.90
351.23,-2.05,2.86,-2.05,2.85,-2.85,-2.79,-2.35,-4.90,-4.90,-4.90
354.74,-2.05,2.84,-2.05,2.84,-2.84,-2.79,-2.33,-4.89,-4.89,-4.88
358.28,-2.05,2.84,-2.05,2.84,-2.84,-2.78,-2.32,-4.88,-4.88,-4.89
361.87,-2.05,2.83,-2.05,2.83,-2.83,-2.77,-2.30,-4.88,-4.88,-4.88
365.49,-2.05,2.82,-2.05,2.82,-2.82,-2.77,-2.29,-4.87,-4.87,-4.87
369.14,-2.05,2.81,-2.05,2.81,-2.82,-2.76,-2.27,-4.87,-4.87,-4.86
372.83,-2.05,2.81,-2.05,2.81,-2.81,-2.75,-2.26,-4.86,-4.86,-4.85
376.56,-2.05,2.82,-2.05,2.81,-2.81,-2.74,-2.26,-4.86,-4.86,-4.86
380.33,-2.05,2.81,-2.05,2.81,-2.80,-2.73,-2.25,-4.85,-4.85,-4.86
384.13,-2.05,2.80,-2.05,2.80,-2.80,-2.72,-2.24,-4.85,-4.85,-4.85
387.97,-2.05,2.79,-2.05,2.79,-2.80,-2.71,-2.24,-4.85,-4.85,-4.84
391.85,-2.05,2.79,-2.05,2.79,-2.79,-2.70,-2.24,-4.84,-4.84,-4.84
395.77,-2.05,2.79,-2.05,2.79,-2.79,-2.69,-2.24,-4.84,-4.84,-4.84
399.73,-2.05,2.79,-2.05,2.79,-2.79,-2.68,-2.24,-4.84,-4.84,-4.84
403.72,-2.05,2.78,-2.05,2.78,-2.79,-2.67,-2.24,-4.84,-4.84,-4.82
407.76,-2.05,2.78,-2.05,2.77,-2.79,-2.66,-2.24,-4.83,-4.83,-4.82
411.84,-2.05,2.77,-2.05,2.76,-2.78,-2.64,-2.25,-4.83,-4.83,-4.82
415.96,-2.05,2.75,-2.05,2.76,-2.76,-2.63,-2.25,-4.81,-4.81,-4.80
420.12,-2.05,2.75,-2.04,2.76,-2.73,-2.62,-2.26,-4.78,-4.77,-4.80
424.32,-2.05,2.74,-2.04,2.74,-2.69,-2.60,-2.27,-4.74,-4.74,-4.79
428.56,-2.05,2.72,-2.08,2.69,-2.65,-2.59,-2.27,-4.70,-4.73,-4.77
432.85,-2.14,2.62,-2.15,2.62,-2.61,-2.58,-2.28,-4.75,-4.76,-4.76
437.18,-2.26,2.50,-2.22,2.53,-2.56,-2.56,-2.29,-4.82,-4.78,-4.76
441.55,-2.28,2.46,-2.27,2.47,-2.52,-2.55,-2.30,-4.80,-4.79,-4.74
445.96,-2.28,2.45,-2.29,2.44,-2.48,-2.53,-2.31,-4.76,-4.77,-4.73
450.42,-2.28,2.44,-2.28,2.44,-2.44,-2.51,-2.31,-4.72,-4.72,-4.71
454.93,-2.28,2.43,-2.28,2.43,-2.42,-2.50,-2.32,-4.69,-4.69,-4.70
459.48,-2.28,2.42,-2.28,2.41,-2.40,-2.48,-2.33,-4.68,-4.68,-4.69
