frequency,raw,error,smoothed,error_smoothed,equalization,parametric_eq,fixed_band_eq,equalized_raw,equalized_smoothed,target
20.00,-12.36,-18.83,-12.36,-18.82,6.00,6.38,2.80,-6.36,-6.36,6.46
20.20,-12.24,-18.71,-12.25,-18.71,6.00,6.38,2.88,-6.24,-6.25,6.46
20.40,-12.12,-18.59,-12.13,-18.60,6.00,6.38,2.96,-6.12,-6.13,6.47
20.61,-12.02,-18.50,-12.01,-18.49,6.00,6.37,3.05,-6.02,-6.01,6.48
20.81,-11.89,-18.37,-11.89,-18.38,6.00,6.37,3.13,-5.89,-5.89,6.48
21.02,-11.77,-18.26,-11.78,-18.26,6.00,6.37,3.22,-5.77,-5.78,6.49
21.23,-11.65,-18.14,-11.65,-18.15,6.00,6.37,3.31,-5.65,-5.65,6.49
21.44,-11.53,-18.03,-11.53,-18.03,6.00,6.37,3.41,-5.53,-5.53,6.50
21.66,-11.42,-17.92,-11.41,-17.92,6.00,6.36,3.51,-5.42,-5.41,6.51
21.87,-11.29,-17.80,-11.29,-17.81,6.00,6.36,3.61,-5.29,-5.29,6.51
22.09,-11.17,-17.69,-11.17,-17.69,6.00,6.36,3.71,-5.17,-5.17,6.52
22.31,-11.05,-17.58,-11.05,-17.57,6.00,6.36,3.82,-5.05,-5.05,6.53
22.54,-10.93,-17.45,-10.93,-17.46,6.00,6.35,3.92,-4.93,-4.93,6.53
22.76,-10.80,-17.34,-10.80,-17.34,6.00,6.35,4.03,-4.80,-4.80,6.54
22.99,-10.68,-17.23,-10.68,-17.23,6.00,6.35,4.15,-4.68,-4.68,6.55
23.22,-10.56,-17.11,-10.56,-17.11,6.00,6.35,4.26,-4.56,-4.56,6.56
23.45,-10.43,-17.00,-10.43,-17.00,6.00,6.34,4.38,-4.43,-4.43,6.57
23.69,-10.31,-16.88,-10.31,-16.88,6.00,6.34,4.51,-4.31,-4.31,6.57
23.92,-10.18,-16.77,-10.18,-16.77,6.00,6.34,4.63,-4.18,-4.18,6.58
24.16,-10.05,-16.65,-10.06,-16.65,6.00,6.33,4.76,-4.05,-4.06,6.59
24.40,-9.93,-16.54,-9.93,-16.54,6.00,6.33,4.88,-3.93,-3.93,6.60
24.65,-9.81,-16.43,-9.80,-16.42,6.00,6.33,5.02,-3.81,-3.80,6.62
24.89,-9.67,-16.30,-9.68,-16.31,6.00,6.32,5.15,-3.67,-3.68,6.63
25.14,-9.55,-16.19,-9.55,-16.19,6.00,6.32,5.28,-3.55,-3.55,6.64
25.39,-9.42,-16.07,-9.42,-16.08,6.00,6.32,5.42,-3.42,-3.42,6.65
25.65,-9.30,-15.96,-9.30,-15.96,6.00,6.31,5.55,-3.30,-3.30,6.66
25.91,-9.18,-15.86,-9.17,-15.85,6.00,6.31,5.69,-3.18,-3.17,6.68
26.16,-9.04,-15.73,-9.04,-15.73,6.00,6.31,5.83,-3.04,-3.04,6.69
26.43,-8.92,-15.61,-8.92,-15.62,6.00,6.30,5.96,-2.92,-2.92,6.70
26.69,-8.78,-15.49,-8.79,-15.50,6.00,6.30,6.10,-2.78,-2.79,6.71
26.96,-8.66,-15.38,-8.66,-15.38,6.00,6.29,6.23,-2.66,-2.66,6.73
27.23,-8.53,-15.26,-8.53,-15.26,6.00,6.29,6.36,-2.53,-2.53,6.74
27.50,-8.40,-15.15,-8.40,-15.15,6.00,6.28,6.49,-2.40,-2.40,6.75
27.77,-8.26,-15.03,-8.26,-15.03,6.00,6.28,6.61,-2.26,-2.26,6.76
28.05,-8.13,-14.92,-8.13,-14.92,6.00,6.27,6.73,-2.13,-2.13,6.78
28.33,-8.00,-14.80,-8.00,-14.80,6.00,6.27,6.84,-2.00,-2.00,6.79
28.62,-7.88,-14.69,-7.87,-14.68,6.00,6.27,6.95,-1.88,-1.87,6.81
28.90,-7.73,-14.55,-7.74,-14.56,6.00,6.26,7.05,-1.73,-1.74,6.82
29.19,-7.60,-14.44,-7.60,-14.44,6.00,6.25,7.14,-1.60,-1.60,6.84
29.48,-7.47,-14.32,-7.47,-14.32,6.00,6.25,7.22,-1.47,-1.47,6.85
29.78,-7.35,-14.21,-7.35,-14.21,6.00,6.24,7.30,-1.35,-1.35,6.87
30.08,-7.22,-14.09,-7.22,-14.10,6.00,6.24,7.36,-1.22,-1.22,6.88
30.38,-7.11,-14.00,-7.10,-14.00,6.00,6.23,7.41,-1.11,-1.10,6.89
30.68,-6.98,-13.89,-6.99,-13.89,6.00,6.23,7.45,-0.98,-0.99,6.90
30.99,-6.88,-13.80,-6.87,-13.79,6.00,6.22,7.48,-0.88,-0.87,6.92
31.30,-6.75,-13.68,-6.75,-13.68,6.00,6.21,7.49,-0.75,-0.75,6.93
31.61,-6.61,-13.56,-6.62,-13.56,6.00,6.21,7.50,-0.61,-0.62,6.95
31.93,-6.49,-13.44,-6.49,-13.45,6.00,6.20,7.48,-0.49,-0.49,6.96
32.24,-6.36,-13.34,-6.36,-13.34,6.00,6.19,7.47,-0.36,-0.36,6.98
32.57,-6.24,-13.22,-6.24,-13.22,6.00,6.19,7.43,-0.24,-0.24,6.98
32.89,-6.11,-13.12,-6.11,-13.11,6.00,6.18,7.39,-0.11,-0.11,7.00
33.22,-5.98,-12.99,-5.98,-13.00,6.00,6.17,7.34,0.02,0.02,7.01
33.55,-5.85,-12.88,-5.85,-12.88,6.00,6.16,7.28,0.15,0.15,7.03
33.89,-5.71,-12.75,-5.72,-12.76,6.00,6.16,7.21,0.29,0.28,7.04
34.23,-5.59,-12.64,-5.59,-12.64,6.00,6.15,7.13,0.41,0.41,7.06
34.57,-5.46,-12.53,-5.46,-12.53,6.00,6.14,7.05,0.54,0.54,7.06
34.92,-5.34,-12.41,-5.34,-12.41,6.00,6.13,6.96,0.66,0.66,7.07
35.27,-5.21,-12.30,-5.20,-12.29,6.00,6.12,6.86,0.79,0.80,7.09
35.62,-5.07,-12.16,-5.07,-12.16,6.00,6.11,6.76,0.93,0.93,7.10
35.97,-4.92,-12.03,-4.93,-12.03,6.00,6.10,6.66,1.08,1.07,7.10
36.33,-4.79,-11.91,-4.79,-11.90,6.00,6.10,6.55,1.21,1.21,7.11
36.70,-4.66,-11.78,-4.65,-11.77,6.00,6.09,6.45,1.34,1.35,7.12
37.06,-4.51,-11.64,-4.51,-11.64,6.00,6.08,6.34,1.49,1.49,7.13
37.43,-4.37,-11.51,-4.37,-11.50,6.00,6.07,6.23,1.63,1.63,7.13
37.81,-4.22,-11.37,-4.23,-11.37,6.00,6.06,6.12,1.78,1.77,7.14
38.19,-4.09,-11.23,-4.09,-11.23,6.00,6.05,6.01,1.91,1.91,7.15
38.57,-3.94,-11.10,-3.94,-11.10,6.00,6.04,5.91,2.06,2.06,7.16
38.95,-3.80,-10.97,-3.80,-10.96,6.00,6.03,5.80,2.20,2.20,7.16
39.34,-3.65,-10.82,-3.66,-10.83,6.00,6.02,5.70,2.35,2.34,7.17
39.74,-3.52,-10.69,-3.51,-10.68,6.00,6.01,5.60,2.48,2.49,7.18
40.14,-3.37,-10.54,-3.37,-10.54,6.00,6.00,5.50,2.63,2.63,7.17
40.54,-3.22,-10.39,-3.22,-10.40,6.00,5.99,5.40,2.78,2.78,7.18
40.94,-3.06,-10.25,-3.07,-10.25,6.00,5.98,5.31,2.94,2.93,7.18
41.35,-2.91,-10.11,-2.91,-10.10,6.00,5.97,5.22,3.09,3.09,7.19
41.76,-2.76,-9.96,-2.76,-9.96,6.00,5.96,5.13,3.24,3.24,7.20
42.18,-2.60,-9.81,-2.61,-9.81,6.00,5.95,5.05,3.40,3.39,7.20
42.60,-2.45,-9.66,-2.45,-9.66,6.00,5.94,4.97,3.55,3.55,7.21
43.03,-2.30,-9.52,-2.30,-9.52,6.00,5.94,4.89,3.70,3.70,7.21
43.46,-2.15,-9.37,-2.16,-9.38,6.00,5.93,4.82,3.85,3.84,7.22
43.90,-2.02,-9.24,-2.01,-9.24,6.00,5.93,4.75,3.98,3.99,7.22
44.33,-1.85,-9.09,-1.85,-9.09,6.00,5.92,4.68,4.15,4.15,7.24
44.78,-1.70,-8.94,-1.70,-8.94,6.00,5.92,4.62,4.30,4.30,7.24
45.23,-1.54,-8.79,-1.53,-8.79,6.00,5.92,4.56,4.46,4.47,7.25
45.68,-1.38,-8.64,-1.38,-8.64,6.00,5.92,4.51,4.62,4.62,7.26
46.13,-1.21,-8.48,-1.22,-8.49,6.00,5.93,4.45,4.79,4.78,7.27
46.60,-1.07,-8.35,-1.06,-8.34,6.00,5.94,4.41,4.93,4.94,7.28
47.06,-0.90,-8.19,-0.90,-8.19,6.00,5.95,4.36,5.10,5.10,7.29
47.53,-0.74,-8.04,-0.75,-8.05,6.00,5.96,4.32,5.26,5.25,7.30
48.01,-0.60,-7.90,-0.59,-7.90,6.00,5.97,4.28,5.40,5.41,7.30
48.49,-0.45,-7.76,-0.44,-7.76,6.00,5.99,4.24,5.55,5.56,7.32
48.97,-0.29,-7.61,-0.29,-7.61,6.00,6.00,4.21,5.71,5.71,7.32
49.46,-0.14,-7.47,-0.14,-7.47,6.00,6.02,4.18,5.86,5.86,7.33
49.96,0.01,-7.32,0.01,-7.32,6.00,6.03,4.15,6.01,6.01,7.33
50.46,0.15,-7.18,0.16,-7.18,6.00,6.03,4.13,6.15,6.16,7.34
50.96,0.31,-7.04,0.31,-7.04,6.00,6.02,4.10,6.31,6.31,7.35
51.47,0.46,-6.89,0.46,-6.89,6.01,6.00,4.08,6.46,6.47,7.35
51.99,0.61,-6.74,0.61,-6.74,6.02,5.97,4.06,6.63,6.63,7.35
52.51,0.75,-6.60,0.75,-6.60,6.03,5.92,4.04,6.78,6.78,7.35
53.03,0.90,-6.46,0.90,-6.45,6.03,5.85,4.02,6.92,6.93,7.35
53.56,1.05,-6.32,1.04,-6.31,6.01,5.77,4.01,7.05,7.05,7.36
54.10,1.19,-6.17,1.19,-6.17,5.97,5.68,3.99,7.16,7.16,7.36
54.64,1.33,-6.03,1.33,-6.02,5.91,5.57,3.98,7.25,7.24,7.36
55.18,1.48,-5.87,1.48,-5.88,5.83,5.47,3.96,7.31,7.31,7.35
55.74,1.61,-5.74,1.62,-5.73,5.73,5.36,3.94,7.34,7.34,7.35
56.29,1.77,-5.58,1.76,-5.58,5.60,5.24,3.93,7.37,7.36,7.35
56.86,1.90,-5.43,1.91,-5.43,5.46,5.13,3.91,7.37,7.37,7.34
57.42,2.06,-5.28,2.05,-5.28,5.31,5.02,3.89,7.36,7.36,7.33
58.00,2.19,-5.13,2.19,-5.13,5.14,4.91,3.87,7.34,7.34,7.32
58.58,2.33,-4.98,2.34,-4.98,4.98,4.80,3.85,7.31,7.32,7.32
59.16,2.48,-4.83,2.48,-4.83,4.82,4.69,3.83,7.30,7.30,7.31
59.76,2.62,-4.67,2.62,-4.67,4.67,4.59,3.80,7.29,7.29,7.29
60.35,2.78,-4.50,2.77,-4.51,4.51,4.48,3.77,7.28,7.28,7.28
60.96,2.91,-4.35,2.92,-4.34,4.35,4.37,3.74,7.26,7.26,7.26
61.57,3.06,-4.18,3.07,-4.18,4.18,4.27,3.71,7.25,7.25,7.25
62.18,3.22,-4.02,3.21,-4.02,4.02,4.16,3.67,7.23,7.23,7.23
62.80,3.37,-3.85,3.36,-3.85,3.85,4.05,3.63,7.22,7.21,7.22
63.43,3.51,-3.69,3.51,-3.68,3.68,3.94,3.59,7.19,7.20,7.20
64.07,3.66,-3.51,3.66,-3.52,3.52,3.83,3.54,7.18,7.18,7.17
64.71,3.80,-3.35,3.81,-3.35,3.35,3.72,3.49,7.15,7.16,7.15
65.35,3.96,-3.18,3.96,-3.18,3.18,3.61,3.44,7.14,7.14,7.14
66.01,4.10,-3.01,4.10,-3.02,3.02,3.49,3.39,7.12,7.12,7.12
66.67,4.24,-2.85,4.25,-2.85,2.85,3.37,3.33,7.09,7.09,7.10
67.33,4.39,-2.69,4.39,-2.69,2.68,3.25,3.27,7.07,7.07,7.08
68.01,4.52,-2.52,4.53,-2.52,2.52,3.12,3.21,7.05,7.05,7.05
68.69,4.67,-2.35,4.67,-2.36,2.36,3.00,3.14,7.03,7.03,7.03
69.37,4.82,-2.19,4.81,-2.20,2.20,2.87,3.07,7.02,7.01,7.01
70.07,4.94,-2.05,4.94,-2.04,2.05,2.74,3.01,6.98,6.99,6.99
70.77,5.07,-1.90,5.07,-1.89,1.89,2.60,2.94,6.96,6.96,6.96
71.48,5.19,-1.75,5.19,-1.75,1.75,2.46,2.86,6.94,6.94,6.94
72.19,5.32,-1.60,5.32,-1.60,1.61,2.32,2.79,6.92,6.92,6.92
72.91,5.44,-1.47,5.43,-1.47,1.47,2.18,2.72,6.91,6.91,6.90
73.64,5.55,-1.33,5.54,-1.34,1.34,2.03,2.64,6.89,6.88,6.88
74.38,5.65,-1.22,5.65,-1.21,1.21,1.89,2.57,6.86,6.86,6.86
75.12,5.75,-1.09,5.74,-1.10,1.09,1.74,2.49,6.84,6.84,6.84
75.87,5.84,-0.99,5.84,-0.98,0.97,1.59,2.42,6.81,6.82,6.82
76.63,5.95,-0.86,5.94,-0.86,0.86,1.44,2.34,6.81,6.80,6.80
77.40,6.04,-0.75,6.04,-0.75,0.75,1.28,2.27,6.78,6.78,6.79
78.17,6.13,-0.64,6.13,-0.64,0.64,1.13,2.20,6.77,6.77,6.77
78.95,6.22,-0.53,6.21,-0.54,0.54,0.98,2.12,6.75,6.75,6.75
79.74,6.30,-0.44,6.30,-0.43,0.43,0.83,2.05,6.73,6.73,6.73
80.54,6.38,-0.34,6.37,-0.34,0.34,0.68,1.97,6.71,6.71,6.71
81.35,6.45,-0.25,6.45,-0.24,0.24,0.53,1.90,6.69,6.69,6.69
82.16,6.52,-0.16,6.51,-0.16,0.16,0.38,1.83,6.67,6.67,6.67
82.98,6.58,-0.07,6.57,-0.08,0.08,0.24,1.76,6.66,6.65,6.65
83.81,6.63,-0.00,6.62,-0.00,0.01,0.11,1.69,6.63,6.63,6.63
84.65,6.67,0.06,6.67,0.06,-0.06,-0.02,1.62,6.61,6.61,6.61
85.50,6.71,0.12,6.70,0.12,-0.12,-0.14,1.55,6.58,6.58,6.58
86.35,6.74,0.18,6.73,0.17,-0.18,-0.26,1.48,6.56,6.56,6.56
87.22,6.76,0.22,6.76,0.22,-0.23,-0.36,1.41,6.53,6.53,6.54
88.09,6.78,0.26,6.78,0.26,-0.27,-0.46,1.35,6.50,6.51,6.51
88.97,6.81,0.31,6.80,0.31,-0.31,-0.54,1.28,6.50,6.49,6.50
89.86,6.82,0.34,6.82,0.34,-0.34,-0.62,1.22,6.47,6.48,6.47
90.76,6.83,0.38,6.83,0.37,-0.37,-0.68,1.15,6.46,6.46,6.45
91.66,6.83,0.39,6.82,0.40,-0.38,-0.73,1.09,6.44,6.44,6.43
92.58,6.82,0.41,6.81,0.40,-0.40,-0.77,1.03,6.42,6.41,6.41
93.51,6.79,0.41,6.79,0.40,-0.41,-0.80,0.97,6.38,6.38,6.38
94.44,6.76,0.39,6.76,0.40,-0.41,-0.81,0.91,6.34,6.35,6.36
95.39,6.75,0.41,6.74,0.40,-0.41,-0.82,0.85,6.33,6.33,6.34
96.34,6.73,0.41,6.72,0.41,-0.41,-0.81,0.79,6.32,6.32,6.32
97.30,6.70,0.40,6.70,0.41,-0.40,-0.80,0.73,6.30,6.30,6.29
98.28,6.67,0.40,6.66,0.40,-0.39,-0.77,0.68,6.28,6.28,6.26
99.26,6.63,0.39,6.62,0.38,-0.38,-0.74,0.62,6.25,6.24,6.24
100.25,6.58,0.36,6.57,0.36,-0.37,-0.70,0.57,6.21,6.21,6.22
101.25,6.53,0.34,6.53,0.34,-0.35,-0.65,0.52,6.17,6.17,6.19
102.27,6.48,0.31,6.49,0.33,-0.34,-0.60,0.46,6.14,6.15,6.16
103.29,6.46,0.33,6.45,0.32,-0.32,-0.54,0.41,6.13,6.13,6.12
104.32,6.42,0.32,6.41,0.31,-0.30,-0.48,0.36,6.11,6.10,6.09
105.37,6.36,0.29,6.36,0.30,-0.29,-0.41,0.32,6.07,6.07,6.07
106.42,6.30,0.27,6.30,0.27,-0.27,-0.34,0.27,6.03,6.03,6.03
107.48,6.24,0.25,6.23,0.24,-0.24,-0.27,0.23,5.99,5.99,5.99
108.56,6.17,0.21,6.17,0.22,-0.21,-0.20,0.18,5.95,5.95,5.95
109.64,6.10,0.18,6.10,0.19,-0.18,-0.12,0.14,5.91,5.92,5.91
110.74,6.04,0.16,6.03,0.15,-0.15,-0.05,0.10,5.89,5.88,5.88
111.85,5.96,0.12,5.95,0.12,-0.12,0.03,0.07,5.84,5.83,5.84
112.97,5.87,0.08,5.87,0.07,-0.08,0.10,0.03,5.78,5.78,5.79
114.10,5.78,0.02,5.78,0.03,-0.05,0.17,0.00,5.73,5.73,5.75
115.24,5.71,0.00,5.71,0.01,-0.01,0.24,-0.03,5.69,5.70,5.71
116.39,5.66,-0.01,5.65,-0.01,0.02,0.31,-0.05,5.68,5.67,5.67
117.55,5.60,-0.03,5.58,-0.04,0.06,0.38,-0.08,5.66,5.65,5.62
118.73,5.50,-0.09,5.49,-0.09,0.10,0.45,-0.10,5.60,5.59,5.58
119.92,5.40,-0.14,5.40,-0.15,0.14,0.51,-0.11,5.54,5.54,5.54
121.12,5.29,-0.22,5.31,-0.20,0.18,0.58,-0.13,5.47,5.49,5.50
122.33,5.24,-0.23,5.23,-0.24,0.23,0.64,-0.14,5.47,5.46,5.47
123.55,5.17,-0.27,5.15,-0.29,0.28,0.70,-0.15,5.44,5.43,5.43
124.79,5.07,-0.33,5.07,-0.33,0.33,0.75,-0.15,5.40,5.40,5.40
126.03,4.97,-0.40,4.99,-0.38,0.38,0.81,-0.15,5.35,5.37,5.36
127.29,4.92,-0.41,4.91,-0.42,0.43,0.86,-0.15,5.35,5.34,5.33
128.57,4.84,-0.46,4.81,-0.48,0.49,0.91,-0.15,5.32,5.30,5.30
129.85,4.72,-0.55,4.72,-0.54,0.54,0.96,-0.14,5.26,5.27,5.26
131.15,4.61,-0.63,4.63,-0.60,0.60,1.01,-0.13,5.20,5.23,5.23
132.46,4.56,-0.64,4.54,-0.66,0.65,1.06,-0.11,5.21,5.19,5.20
133.79,4.48,-0.70,4.46,-0.72,0.71,1.10,-0.10,5.19,5.17,5.18
135.12,4.36,-0.79,4.38,-0.77,0.77,1.15,-0.07,5.12,5.14,5.15
136.48,4.30,-0.82,4.29,-0.83,0.82,1.19,-0.05,5.12,5.11,5.12
137.84,4.21,-0.88,4.21,-0.87,0.88,1.23,-0.03,5.09,5.09,5.09
139.22,4.15,-0.91,4.13,-0.92,0.94,1.27,0.00,5.08,5.07,5.06
140.61,4.06,-0.97,4.05,-0.99,0.99,1.30,0.03,5.05,5.04,5.03
142.02,3.94,-1.08,3.96,-1.05,1.05,1.34,0.07,4.99,5.01,5.01
143.44,3.88,-1.11,3.87,-1.12,1.11,1.37,0.10,4.98,4.97,4.98
144.87,3.78,-1.18,3.78,-1.18,1.16,1.41,0.14,4.94,4.94,4.96
146.32,3.71,-1.21,3.70,-1.22,1.22,1.44,0.18,4.92,4.92,4.92
147.78,3.61,-1.29,3.61,-1.28,1.28,1.47,0.22,4.88,4.89,4.89
149.26,3.55,-1.32,3.54,-1.33,1.33,1.50,0.26,4.88,4.87,4.87
150.75,3.46,-1.39,3.46,-1.38,1.39,1.53,0.30,4.84,4.85,4.84
152.26,3.39,-1.43,3.38,-1.43,1.45,1.56,0.35,4.83,4.83,4.82
153.78,3.30,-1.49,3.29,-1.50,1.51,1.59,0.39,4.80,4.80,4.79
155.32,3.21,-1.56,3.20,-1.56,1.57,1.62,0.44,4.77,4.77,4.76
156.88,3.10,-1.65,3.10,-1.64,1.63,1.65,0.49,4.73,4.74,4.74
158.44,3.02,-1.70,3.00,-1.71,1.70,1.67,0.54,4.72,4.71,4.72
160.03,2.90,-1.79,2.92,-1.78,1.77,1.70,0.59,4.67,4.69,4.69
161.63,2.83,-1.84,2.83,-1.84,1.85,1.73,0.64,4.67,4.67,4.67
163.24,2.75,-1.88,2.73,-1.91,1.92,1.75,0.69,4.67,4.64,4.64
164.88,2.62,-2.00,2.64,-1.98,1.99,1.78,0.74,4.60,4.62,4.62
166.53,2.53,-2.06,2.53,-2.05,2.05,1.80,0.80,4.58,4.58,4.59
168.19,2.46,-2.10,2.44,-2.12,2.11,1.83,0.85,4.57,4.55,4.56
169.87,2.35,-2.19,2.36,-2.17,2.17,1.85,0.91,4.52,4.53,4.53
171.57,2.28,-2.23,2.28,-2.23,2.23,1.87,0.96,4.50,4.50,4.50
173.29,2.21,-2.27,2.19,-2.28,2.28,1.90,1.02,4.48,4.47,4.48
175.02,2.12,-2.33,2.12,-2.32,2.32,1.92,1.08,4.43,4.44,4.45
176.77,2.06,-2.36,2.06,-2.36,2.36,1.94,1.14,4.41,4.41,4.41
178.54,2.00,-2.39,2.00,-2.39,2.39,1.97,1.20,4.39,4.39,4.39
180.32,1.95,-2.41,1.94,-2.41,2.42,1.99,1.26,4.36,4.36,4.35
182.13,1.90,-2.43,1.88,-2.44,2.44,2.01,1.32,4.34,4.33,4.33
183.95,1.82,-2.48,1.83,-2.46,2.46,2.03,1.38,4.28,4.29,4.29
185.79,1.78,-2.48,1.78,-2.48,2.48,2.06,1.45,4.26,4.26,4.26
187.65,1.75,-2.49,1.73,-2.50,2.49,2.08,1.51,4.24,4.23,4.24
189.52,1.70,-2.51,1.70,-2.50,2.50,2.10,1.57,4.20,4.20,4.20
191.42,1.67,-2.50,1.66,-2.51,2.51,2.12,1.64,4.17,4.17,4.17
193.33,1.64,-2.50,1.64,-2.50,2.50,2.14,1.70,4.14,4.14,4.14
195.27,1.62,-2.50,1.62,-2.50,2.49,2.16,1.77,4.11,4.11,4.12
197.22,1.61,-2.48,1.60,-2.48,2.48,2.19,1.83,4.08,4.08,4.08
199.19,1.59,-2.47,1.59,-2.46,2.45,2.21,1.90,4.04,4.04,4.05
201.18,1.58,-2.44,1.58,-2.44,2.43,2.23,1.97,4.00,4.01,4.01
203.19,1.58,-2.41,1.58,-2.40,2.40,2.25,2.03,3.97,3.98,3.98
205.23,1.59,-2.37,1.59,-2.37,2.37,2.27,2.10,3.95,3.95,3.95
207.28,1.60,-2.33,1.59,-2.33,2.34,2.29,2.17,3.93,3.93,3.92
209.35,1.60,-2.30,1.59,-2.30,2.31,2.31,2.23,3.90,3.90,3.89
211.44,1.59,-2.27,1.58,-2.27,2.28,2.33,2.30,3.87,3.86,3.85
213.56,1.56,-2.27,1.56,-2.26,2.26,2.35,2.36,3.81,3.82,3.82
215.69,1.54,-2.25,1.53,-2.25,2.24,2.37,2.42,3.78,3.78,3.79
217.85,1.51,-2.24,1.51,-2.24,2.23,2.39,2.48,3.74,3.75,3.75
220.03,1.50,-2.22,1.49,-2.23,2.23,2.41,2.54,3.73,3.72,3.72
222.23,1.47,-2.23,1.46,-2.23,2.24,2.43,2.60,3.70,3.70,3.69
224.45,1.42,-2.24,1.42,-2.24,2.25,2.45,2.66,3.67,3.67,3.65
226.70,1.37,-2.26,1.37,-2.26,2.27,2.47,2.71,3.63,3.63,3.63
228.96,1.31,-2.29,1.31,-2.29,2.29,2.49,2.76,3.59,3.60,3.60
231.25,1.27,-2.31,1.26,-2.32,2.31,2.51,2.81,3.57,3.57,3.57
233.57,1.21,-2.35,1.21,-2.35,2.33,2.53,2.86,3.54,3.54,3.56
235.90,1.16,-2.37,1.16,-2.37,2.36,2.55,2.90,3.51,3.52,3.53
238.26,1.13,-2.39,1.12,-2.39,2.38,2.56,2.94,3.51,3.51,3.51
240.64,1.10,-2.40,1.09,-2.41,2.41,2.58,2.97,3.51,3.50,3.50
243.05,1.06,-2.43,1.05,-2.43,2.44,2.60,3.01,3.49,3.49,3.48
245.48,1.02,-2.45,1.02,-2.45,2.46,2.62,3.03,3.48,3.48,3.47
247.93,0.97,-2.49,0.97,-2.48,2.49,2.64,3.06,3.45,3.46,3.45
250.41,0.94,-2.50,0.92,-2.51,2.51,2.65,3.07,3.45,3.44,3.44
252.92,0.88,-2.55,0.88,-2.54,2.54,2.67,3.09,3.41,3.42,3.42
255.45,0.84,-2.57,0.84,-2.57,2.56,2.69,3.10,3.39,3.40,3.41
258.00,0.81,-2.59,0.80,-2.59,2.58,2.70,3.11,3.39,3.38,3.39
260.58,0.78,-2.61,0.78,-2.61,2.60,2.72,3.11,3.38,3.38,3.39
263.19,0.76,-2.62,0.75,-2.62,2.62,2.73,3.11,3.38,3.37,3.37
265.82,0.73,-2.63,0.73,-2.63,2.64,2.75,3.11,3.36,3.37,3.36
268.48,0.71,-2.64,0.70,-2.65,2.66,2.76,3.10,3.36,3.36,3.35
271.16,0.67,-2.67,0.66,-2.67,2.68,2.78,3.09,3.34,3.34,3.33
273.87,0.62,-2.70,0.62,-2.70,2.70,2.79,3.08,3.31,3.32,3.32
276.61,0.59,-2.72,0.58,-2.72,2.72,2.81,3.06,3.30,3.30,3.30
279.38,0.55,-2.75,0.55,-2.74,2.74,2.82,3.05,3.29,3.29,3.29
282.17,0.52,-2.76,0.51,-2.76,2.76,2.84,3.03,3.28,3.28,3.28
284.99,0.49,-2.78,0.48,-2.78,2.78,2.85,3.01,3.27,3.26,3.27
287.84,0.45,-2.81,0.45,-2.80,2.80,2.86,2.99,3.25,3.25,3.25
290.72,0.43,-2.81,0.42,-2.82,2.82,2.87,2.97,3.24,3.24,3.24
293.63,0.40,-2.83,0.39,-2.83,2.83,2.89,2.95,3.23,3.22,3.23
296.57,0.37,-2.85,0.37,-2.84,2.84,2.90,2.92,3.21,3.21,3.21
299.53,0.35,-2.86,0.35,-2.85,2.85,2.91,2.90,3.20,3.20,3.20
302.53,0.34,-2.85,0.33,-2.86,2.86,2.92,2.88,3.19,3.19,3.19
305.55,0.31,-2.86,0.31,-2.86,2.86,2.93,2.86,3.17,3.17,3.17
308.61,0.29,-2.87,0.28,-2.87,2.87,2.94,2.83,3.15,3.15,3.15
311.69,0.26,-2.89,0.26,-2.88,2.87,2.95,2.81,3.13,3.13,3.14
314.81,0.25,-2.87,0.24,-2.88,2.88,2.96,2.79,3.12,3.12,3.12
317.96,0.23,-2.88,0.23,-2.88,2.89,2.97,2.78,3.11,3.11,3.11
321.14,0.21,-2.88,0.20,-2.88,2.90,2.97,2.76,3.10,3.10,3.09
324.35,0.18,-2.90,0.17,-2.90,2.91,2.98,2.74,3.08,3.08,3.07
327.59,0.14,-2.92,0.14,-2.91,2.92,2.99,2.73,3.05,3.06,3.05
330.87,0.11,-2.93,0.10,-2.93,2.93,3.00,2.72,3.03,3.03,3.04
334.18,0.08,-2.94,0.08,-2.94,2.94,3.00,2.71,3.01,3.01,3.02
337.52,0.05,-2.96,0.05,-2.95,2.95,3.01,2.70,2.99,3.00,3.01
340.90,0.04,-2.95,0.03,-2.96,2.95,3.01,2.69,2.99,2.98,2.98
344.30,0.01,-2.97,0.01,-2.96,2.96,3.02,2.69,2.97,2.97,2.97
347.75,-0.00,-2.96,-0.01,-2.96,2.96,3.02,2.69,2.96,2.95,2.95
351.23,-0.03,-2.96,-0.03,-2.97,2.97,3.03,2.69,2.93,2.93,2.93
354.74,-0.05,-2.97,-0.06,-2.97,2.97,3.03,2.69,2.92,2.91,2.92
358.28,-0.08,-2.98,-0.08,-2.98,2.98,3.03,2.70,2.89,2.90,2.90
361.87,-0.09,-2.97,-0.10,-2.98,2.98,3.04,2.70,2.89,2.88,2.88
365.49,-0.12,-2.99,-0.12,-2.98,2.99,3.04,2.71,2.87,2.87,2.86
369.14,-0.14,-2.99,-0.15,-3.00,3.00,3.04,2.72,2.86,2.85,2.84
372.83,-0.18,-3.02,-0.18,-3.01,3.01,3.04,2.73,2.83,2.83,2.83
376.56,-0.22,-3.04,-0.22,-3.03,3.02,3.04,2.75,2.80,2.80,2.81
380.33,-0.24,-3.03,-0.25,-3.04,3.03,3.04,2.76,2.79,2.78,2.79
384.13,-0.27,-3.05,-0.27,-3.05,3.04,3.04,2.78,2.77,2.77,2.78
387.97,-0.29,-3.05,-0.29,-3.05,3.06,3.04,2.80,2.76,2.76,2.76
391.85,-0.31,-3.06,-0.31,-3.06,3.07,3.04,2.82,2.75,2.75,2.75
395.77,-0.33,-3.07,-0.34,-3.07,3.07,3.04,2.85,2.74,2.74,2.74
399.73,-0.35,-3.08,-0.36,-3.08,3.08,3.04,2.87,2.73,2.72,2.73
403.72,-0.38,-3.10,-0.38,-3.10,3.09,3.03,2.90,2.71,2.71,2.71
407.76,-0.40,-3.11,-0.40,-3.10,3.10,3.03,2.92,2.70,2.70,2.70
411.84,-0.42,-3.11,-0.43,-3.11,3.11,3.03,2.95,2.69,2.69,2.68
415.96,-0.44,-3.12,-0.45,-3.12,3.13,3.02,2.98,2.68,2.68,2.67
420.12,-0.47,-3.14,-0.47,-3.14,3.14,3.02,3.01,2.67,2.67,2.66
424.32,-0.50,-3.15,-0.51,-3.16,3.16,3.01,3.04,2.66,2.65,2.65
428.56,-0.54,-3.18,-0.54,-3.18,3.18,3.01,3.07,2.63,2.64,2.64
432.85,-0.57,-3.19,-0.58,-3.20,3.20,3.00,3.10,2.62,2.62,2.62
437.18,-0.60,-3.21,-0.61,-3.21,3.21,2.99,3.12,2.61,2.61,2.61
441.55,-0.63,-3.23,-0.63,-3.23,3.23,2.99,3.15,2.59,2.59,2.60
445.96,-0.65,-3.23,-0.66,-3.24,3.23,2.98,3.18,2.58,2.57,2.58
450.42,-0.68,-3.24,-0.68,-3.24,3.23,2.97,3.20,2.55,2.55,2.56
454.93,-0.70,-3.25,-0.70,-3.24,3.23,2.96,3.22,2.52,2.53,2.55
459.48,-0.70,-3.23,-0.71,-3.23,3.22,2.95,3.25,2.51,2.51,2.53
464.07,-0.70,-3.21,-0.70,-3.21,3.21,2.94,3.26,2.50,2.50,2.50
468.71,-0.69,-3.18,-0.69,-3.18,3.19,2.93,3.28,2.50,2.50,2.48
473.40,-0.68,-3.16,-0.69,-3.16,3.17,2.92,3.29,2.49,2.49,2.47
478.13,-0.68,-3.14,-0.69,-3.14,3.16,2.91,3.30,2.47,2.47,2.45
482.91,-0.69,-3.14,-0.69,-3.13,3.14,2.90,3.31,2.45,2.45,2.44
487.74,-0.70,-3.13,-0.70,-3.13,3.13,2.89,3.32,2.42,2.43,2.42
492.62,-0.70,-3.12,-0.71,-3.12,3.11,2.88,3.32,2.41,2.41,2.41
497.55,-0.70,-3.11,-0.70,-3.11,3.10,2.87,3.31,2.39,2.40,2.40
502.52,-0.69,-3.09,-0.70,-3.09,3.08,2.85,3.31,2.39,2.38,2.39
507.55,-0.68,-3.07,-0.68,-3.06,3.05,2.84,3.30,2.37,2.37,2.38
512.62,-0.66,-3.03,-0.66,-3.03,3.02,2.83,3.28,2.36,2.36,2.36
517.75,-0.63,-2.98,-0.64,-2.99,2.98,2.81,3.26,2.35,2.34,2.35
522.93,-0.61,-2.94,-0.61,-2.94,2.94,2.80,3.24,2.32,2.33,2.33
