frequency,raw,error,smoothed,error_smoothed,equalization,parametric_eq,fixed_band_eq,equalized_raw,equalized_smoothed,target
20.00,-6.39,-9.73,-6.39,-9.73,6.00,5.37,2.57,-0.39,-0.39,3.34
20.20,-6.30,-9.68,-6.30,-9.68,6.00,5.43,2.64,-0.30,-0.30,3.38
20.40,-6.21,-9.62,-6.21,-9.62,6.00,5.50,2.72,-0.21,-0.21,3.41
20.61,-6.11,-9.55,-6.11,-9.55,6.00,5.56,2.80,-0.11,-0.11,3.44
20.81,-6.02,-9.49,-6.02,-9.49,6.00,5.63,2.88,-0.02,-0.02,3.47
21.02,-5.93,-9.43,-5.93,-9.42,6.00,5.69,2.96,0.07,0.07,3.50
21.23,-5.83,-9.35,-5.83,-9.34,6.00,5.75,3.05,0.17,0.17,3.52
21.44,-5.72,-9.25,-5.72,-9.25,6.00,5.80,3.14,0.28,0.28,3.53
21.66,-5.62,-9.16,-5.62,-9.16,6.00,5.86,3.23,0.38,0.38,3.54
21.87,-5.52,-9.07,-5.52,-9.06,6.00,5.91,3.33,0.48,0.48,3.55
22.09,-5.41,-8.97,-5.41,-8.97,6.00,5.96,3.42,0.59,0.59,3.56
22.31,-5.31,-8.87,-5.31,-8.87,6.00,6.01,3.52,0.69,0.69,3.57
22.54,-5.20,-8.77,-5.20,-8.76,6.00,6.06,3.62,0.80,0.80,3.57
22.76,-5.09,-8.66,-5.09,-8.66,6.00,6.10,3.73,0.91,0.91,3.57
22.99,-4.98,-8.55,-4.99,-8.55,6.00,6.14,3.83,1.02,1.01,3.57
23.22,-4.89,-8.47,-4.89,-8.46,6.00,6.17,3.94,1.11,1.11,3.58
23.45,-4.79,-8.36,-4.79,-8.37,6.00,6.20,4.06,1.21,1.21,3.58
23.69,-4.70,-8.29,-4.70,-8.28,6.00,6.23,4.17,1.30,1.30,3.58
23.92,-4.60,-8.18,-4.60,-8.19,6.00,6.26,4.29,1.40,1.40,3.58
24.16,-4.50,-8.09,-4.50,-8.09,6.00,6.28,4.41,1.50,1.50,3.59
24.40,-4.40,-7.99,-4.40,-7.99,6.00,6.30,4.53,1.60,1.60,3.59
24.65,-4.30,-7.88,-4.30,-7.88,6.00,6.31,4.65,1.70,1.70,3.58
24.89,-4.19,-7.77,-4.19,-7.78,6.00,6.32,4.77,1.81,1.81,3.58
25.14,-4.10,-7.68,-4.10,-7.68,6.00,6.32,4.90,1.90,1.90,3.58
25.39,-4.01,-7.58,-4.01,-7.58,6.00,6.32,5.03,1.99,1.99,3.57
25.65,-3.92,-7.49,-3.92,-7.49,6.00,6.32,5.15,2.08,2.08,3.57
25.91,-3.83,-7.39,-3.83,-7.39,6.00,6.31,5.28,2.17,2.17,3.56
26.16,-3.75,-7.30,-3.75,-7.30,6.00,6.30,5.41,2.25,2.25,3.55
26.43,-3.67,-7.22,-3.66,-7.21,6.00,6.29,5.53,2.33,2.34,3.55
26.69,-3.58,-7.12,-3.58,-7.12,6.00,6.27,5.66,2.42,2.42,3.54
26.96,-3.50,-7.04,-3.50,-7.04,6.00,6.25,5.78,2.50,2.50,3.54
27.23,-3.43,-6.96,-3.43,-6.95,6.00,6.22,5.90,2.57,2.57,3.53
27.50,-3.35,-6.88,-3.35,-6.87,6.00,6.19,6.02,2.65,2.65,3.53
27.77,-3.28,-6.78,-3.28,-6.79,6.00,6.15,6.13,2.72,2.72,3.51
28.05,-3.21,-6.71,-3.21,-6.71,6.00,6.12,6.24,2.79,2.79,3.51
28.33,-3.14,-6.63,-3.14,-6.64,6.01,6.08,6.34,2.87,2.86,3.49
28.62,-3.07,-6.55,-3.07,-6.56,6.01,6.03,6.43,2.94,2.94,3.48
28.90,-2.99,-6.47,-2.99,-6.47,6.01,5.98,6.52,3.02,3.03,3.48
29.19,-2.89,-6.36,-2.88,-6.36,6.01,5.93,6.59,3.12,3.13,3.47
29.48,-2.76,-6.24,-2.76,-6.23,6.00,5.88,6.66,3.24,3.25,3.48
29.78,-2.63,-6.10,-2.64,-6.11,5.99,5.82,6.72,3.35,3.35,3.47
30.08,-2.53,-5.99,-2.54,-6.00,5.96,5.77,6.77,3.42,3.41,3.46
30.38,-2.47,-5.92,-2.47,-5.92,5.91,5.70,6.80,3.44,3.44,3.45
30.68,-2.42,-5.87,-2.41,-5.86,5.85,5.64,6.83,3.43,3.44,3.45
30.99,-2.36,-5.80,-2.35,-5.79,5.78,5.58,6.84,3.42,3.43,3.44
31.30,-2.27,-5.71,-2.27,-5.71,5.70,5.51,6.84,3.43,3.43,3.43
31.61,-2.18,-5.61,-2.18,-5.61,5.62,5.44,6.82,3.44,3.44,3.43
31.93,-2.08,-5.50,-2.09,-5.51,5.53,5.37,6.80,3.45,3.44,3.42
32.24,-2.01,-5.41,-2.01,-5.42,5.44,5.30,6.76,3.43,3.43,3.40
32.57,-1.94,-5.34,-1.94,-5.34,5.35,5.23,6.71,3.41,3.42,3.40
32.89,-1.87,-5.28,-1.87,-5.27,5.27,5.15,6.65,3.40,3.40,3.41
33.22,-1.80,-5.20,-1.80,-5.19,5.18,5.08,6.58,3.38,3.39,3.40
33.55,-1.72,-5.11,-1.72,-5.11,5.10,5.00,6.50,3.38,3.38,3.39
33.89,-1.64,-5.02,-1.64,-5.03,5.02,4.92,6.41,3.38,3.38,3.38
34.23,-1.56,-4.94,-1.56,-4.94,4.93,4.85,6.31,3.37,3.37,3.38
34.57,-1.48,-4.85,-1.48,-4.85,4.85,4.77,6.20,3.37,3.37,3.37
34.92,-1.40,-4.77,-1.40,-4.77,4.77,4.69,6.09,3.37,3.37,3.37
35.27,-1.32,-4.69,-1.31,-4.68,4.69,4.61,5.98,3.37,3.38,3.37
35.62,-1.24,-4.59,-1.24,-4.59,4.63,4.53,5.85,3.39,3.39,3.35
35.97,-1.16,-4.51,-1.18,-4.53,4.56,4.46,5.73,3.40,3.38,3.35
36.33,-1.14,-4.49,-1.15,-4.49,4.50,4.38,5.60,3.36,3.35,3.35
36.70,-1.13,-4.47,-1.12,-4.46,4.44,4.30,5.47,3.31,3.32,3.34
37.06,-1.10,-4.42,-1.08,-4.41,4.37,4.22,5.34,3.27,3.29,3.32
37.43,-1.01,-4.33,-1.01,-4.33,4.31,4.14,5.20,3.30,3.29,3.32
37.81,-0.92,-4.23,-0.93,-4.24,4.23,4.06,5.07,3.31,3.31,3.31
38.19,-0.84,-4.14,-0.84,-4.15,4.16,3.99,4.93,3.32,3.31,3.30
38.57,-0.77,-4.06,-0.77,-4.06,4.07,3.91,4.80,3.30,3.30,3.29
38.95,-0.70,-3.98,-0.69,-3.97,3.98,3.83,4.67,3.28,3.28,3.28
39.34,-0.61,-3.88,-0.61,-3.88,3.88,3.76,4.53,3.27,3.26,3.27
39.74,-0.53,-3.79,-0.53,-3.79,3.78,3.68,4.40,3.25,3.25,3.26
40.14,-0.44,-3.70,-0.44,-3.69,3.69,3.60,4.27,3.25,3.25,3.26
40.54,-0.35,-3.60,-0.35,-3.60,3.60,3.53,4.15,3.25,3.25,3.25
40.94,-0.25,-3.49,-0.26,-3.50,3.52,3.46,4.02,3.27,3.26,3.25
41.35,-0.18,-3.41,-0.17,-3.41,3.43,3.38,3.90,3.25,3.26,3.23
41.76,-0.10,-3.33,-0.10,-3.33,3.35,3.31,3.77,3.25,3.25,3.23
42.18,-0.05,-3.26,-0.06,-3.28,3.27,3.24,3.66,3.22,3.21,3.21
42.60,-0.03,-3.23,-0.03,-3.23,3.20,3.17,3.54,3.17,3.17,3.20
43.03,0.00,-3.19,0.03,-3.15,3.13,3.09,3.42,3.13,3.16,3.19
43.46,0.10,-3.06,0.10,-3.06,3.05,3.02,3.31,3.15,3.15,3.16
43.90,0.20,-2.93,0.17,-2.96,2.98,2.96,3.20,3.18,3.14,3.13
44.33,0.22,-2.88,0.21,-2.89,2.90,2.89,3.10,3.12,3.11,3.10
44.78,0.22,-2.86,0.24,-2.83,2.83,2.82,2.99,3.05,3.07,3.08
45.23,0.27,-2.78,0.30,-2.76,2.76,2.75,2.89,3.03,3.05,3.05
45.68,0.38,-2.65,0.36,-2.67,2.68,2.69,2.79,3.06,3.05,3.03
46.13,0.45,-2.56,0.42,-2.60,2.61,2.62,2.69,3.06,3.03,3.01
46.60,0.45,-2.56,0.46,-2.54,2.54,2.55,2.60,2.99,2.99,3.01
47.06,0.46,-2.53,0.50,-2.49,2.46,2.49,2.50,2.92,2.96,2.99
47.53,0.57,-2.40,0.56,-2.42,2.39,2.43,2.41,2.96,2.95,2.97
48.01,0.67,-2.31,0.65,-2.32,2.32,2.36,2.32,2.99,2.97,2.98
48.49,0.73,-2.24,0.74,-2.23,2.25,2.30,2.24,2.98,2.99,2.97
48.97,0.80,-2.15,0.80,-2.16,2.19,2.24,2.15,2.99,2.99,2.95
49.46,0.85,-2.10,0.85,-2.10,2.13,2.18,2.07,2.98,2.98,2.95
49.96,0.90,-2.05,0.89,-2.06,2.07,2.12,1.99,2.97,2.96,2.95
50.46,0.92,-2.04,0.92,-2.04,2.02,2.06,1.91,2.94,2.94,2.96
50.96,0.95,-2.01,0.98,-1.98,1.97,2.00,1.84,2.92,2.94,2.96
51.47,1.04,-1.92,1.04,-1.92,1.91,1.95,1.76,2.95,2.95,2.96
51.99,1.13,-1.82,1.09,-1.86,1.85,1.89,1.69,2.98,2.94,2.95
52.51,1.13,-1.82,1.13,-1.81,1.79,1.83,1.62,2.93,2.93,2.95
53.03,1.14,-1.79,1.19,-1.74,1.73,1.78,1.55,2.87,2.92,2.93
53.56,1.26,-1.65,1.25,-1.66,1.67,1.72,1.48,2.93,2.92,2.91
54.10,1.36,-1.53,1.32,-1.57,1.60,1.67,1.41,2.96,2.92,2.89
54.64,1.36,-1.50,1.36,-1.50,1.52,1.61,1.35,2.88,2.88,2.86
55.18,1.36,-1.47,1.36,-1.47,1.44,1.56,1.29,2.80,2.81,2.83
55.74,1.36,-1.44,1.39,-1.42,1.37,1.51,1.23,2.73,2.76,2.80
56.29,1.43,-1.35,1.45,-1.32,1.30,1.46,1.17,2.73,2.75,2.78
56.86,1.56,-1.19,1.52,-1.22,1.23,1.40,1.11,2.79,2.75,2.75
57.42,1.59,-1.11,1.58,-1.13,1.17,1.35,1.05,2.76,2.75,2.70
58.00,1.59,-1.08,1.60,-1.07,1.12,1.30,1.00,2.71,2.72,2.67
58.58,1.59,-1.05,1.59,-1.05,1.07,1.25,0.94,2.66,2.67,2.64
59.16,1.59,-1.03,1.59,-1.02,1.02,1.20,0.89,2.61,2.61,2.62
59.76,1.59,-0.99,1.59,-0.99,0.98,1.15,0.84,2.57,2.57,2.58
60.35,1.59,-0.95,1.59,-0.95,0.92,1.10,0.79,2.51,2.51,2.54
60.96,1.59,-0.91,1.58,-0.92,0.87,1.06,0.74,2.46,2.45,2.50
61.57,1.59,-0.86,1.61,-0.85,0.80,1.01,0.70,2.39,2.41,2.45
62.18,1.63,-0.78,1.67,-0.75,0.73,0.96,0.65,2.36,2.40,2.41
62.80,1.77,-0.61,1.74,-0.64,0.66,0.91,0.61,2.43,2.40,2.38
63.43,1.81,-0.52,1.79,-0.54,0.59,0.87,0.56,2.40,2.38,2.33
64.07,1.81,-0.49,1.82,-0.48,0.52,0.82,0.52,2.33,2.34,2.30
64.71,1.81,-0.46,1.81,-0.45,0.47,0.78,0.48,2.28,2.28,2.27
65.35,1.81,-0.43,1.81,-0.43,0.42,0.73,0.44,2.23,2.23,2.24
66.01,1.81,-0.39,1.81,-0.39,0.38,0.69,0.40,2.19,2.19,2.20
66.67,1.81,-0.37,1.81,-0.37,0.36,0.64,0.36,2.17,2.17,2.18
67.33,1.81,-0.34,1.81,-0.34,0.34,0.60,0.32,2.15,2.15,2.15
68.01,1.81,-0.32,1.81,-0.32,0.33,0.55,0.29,2.14,2.14,2.13
68.69,1.81,-0.30,1.81,-0.30,0.32,0.51,0.25,2.13,2.13,2.11
69.37,1.81,-0.28,1.81,-0.28,0.29,0.47,0.22,2.10,2.10,2.09
70.07,1.81,-0.26,1.81,-0.27,0.25,0.42,0.18,2.06,2.05,2.07
70.77,1.81,-0.24,1.80,-0.26,0.20,0.38,0.15,2.01,2.00,2.05
71.48,1.81,-0.23,1.83,-0.20,0.15,0.34,0.11,1.96,1.99,2.04
72.19,1.86,-0.16,1.90,-0.12,0.10,0.29,0.08,1.96,2.00,2.02
72.91,2.02,0.03,1.97,-0.02,0.05,0.25,0.05,2.07,2.03,1.99
73.64,2.04,0.07,2.03,0.06,0.00,0.21,0.01,2.04,2.03,1.97
74.38,2.04,0.09,2.05,0.11,-0.05,0.17,-0.02,1.99,2.00,1.95
75.12,2.04,0.11,2.04,0.11,-0.11,0.13,-0.05,1.93,1.93,1.93
75.87,2.04,0.14,2.03,0.13,-0.16,0.09,-0.08,1.88,1.87,1.90
76.63,2.04,0.16,2.04,0.16,-0.21,0.04,-0.12,1.83,1.83,1.88
77.40,2.06,0.19,2.08,0.22,-0.25,0.00,-0.15,1.81,1.83,1.87
78.17,2.13,0.28,2.15,0.30,-0.29,-0.04,-0.18,1.84,1.86,1.85
78.95,2.26,0.41,2.22,0.38,-0.33,-0.08,-0.22,1.93,1.89,1.85
79.74,2.27,0.43,2.27,0.43,-0.38,-0.12,-0.25,1.89,1.88,1.84
80.54,2.27,0.44,2.28,0.44,-0.44,-0.16,-0.28,1.83,1.84,1.83
81.35,2.27,0.44,2.27,0.44,-0.49,-0.20,-0.32,1.78,1.78,1.83
82.16,2.29,0.46,2.31,0.49,-0.53,-0.24,-0.35,1.76,1.78,1.83
82.98,2.37,0.54,2.38,0.55,-0.57,-0.28,-0.39,1.80,1.81,1.84
83.81,2.48,0.65,2.45,0.61,-0.59,-0.32,-0.42,1.89,1.86,1.83
84.65,2.50,0.66,2.50,0.65,-0.60,-0.36,-0.46,1.90,1.89,1.84
85.50,2.50,0.64,2.51,0.66,-0.61,-0.40,-0.50,1.89,1.90,1.86
86.35,2.50,0.64,2.50,0.64,-0.62,-0.44,-0.53,1.88,1.88,1.86
87.22,2.50,0.62,2.50,0.62,-0.63,-0.48,-0.57,1.87,1.87,1.88
88.09,2.50,0.62,2.50,0.61,-0.63,-0.52,-0.61,1.87,1.87,1.88
88.97,2.50,0.60,2.49,0.59,-0.64,-0.56,-0.65,1.86,1.85,1.90
89.86,2.50,0.59,2.51,0.60,-0.66,-0.60,-0.69,1.85,1.85,1.91
90.76,2.52,0.61,2.56,0.65,-0.68,-0.64,-0.73,1.84,1.89,1.91
91.66,2.65,0.73,2.63,0.71,-0.70,-0.68,-0.77,1.95,1.93,1.92
92.58,2.72,0.81,2.69,0.77,-0.73,-0.72,-0.81,1.99,1.96,1.91
93.51,2.72,0.80,2.73,0.81,-0.76,-0.76,-0.85,1.96,1.97,1.93
94.44,2.72,0.79,2.73,0.80,-0.79,-0.80,-0.89,1.94,1.94,1.93
95.39,2.72,0.80,2.72,0.80,-0.81,-0.84,-0.94,1.92,1.92,1.92
96.34,2.72,0.81,2.72,0.80,-0.82,-0.88,-0.98,1.90,1.90,1.91
97.30,2.72,0.81,2.72,0.81,-0.82,-0.91,-1.02,1.90,1.90,1.91
98.28,2.72,0.82,2.72,0.82,-0.82,-0.95,-1.07,1.90,1.90,1.90
99.26,2.72,0.82,2.72,0.82,-0.82,-0.99,-1.11,1.90,1.90,1.90
100.25,2.72,0.83,2.72,0.83,-0.83,-1.03,-1.16,1.89,1.89,1.89
101.25,2.72,0.84,2.72,0.84,-0.84,-1.07,-1.20,1.88,1.88,1.88
102.27,2.72,0.85,2.72,0.86,-0.86,-1.11,-1.25,1.86,1.86,1.87
103.29,2.72,0.88,2.72,0.88,-0.87,-1.15,-1.29,1.85,1.85,1.84
104.32,2.72,0.90,2.72,0.90,-0.89,-1.18,-1.33,1.83,1.83,1.82
105.37,2.72,0.93,2.72,0.93,-0.92,-1.22,-1.38,1.80,1.80,1.79
106.42,2.72,0.96,2.72,0.97,-0.96,-1.26,-1.42,1.76,1.76,1.76
107.48,2.72,1.01,2.72,1.01,-1.01,-1.30,-1.47,1.71,1.70,1.71
108.56,2.72,1.06,2.70,1.04,-1.08,-1.34,-1.51,1.64,1.62,1.66
109.64,2.72,1.10,2.73,1.11,-1.16,-1.37,-1.55,1.56,1.57,1.62
110.74,2.73,1.16,2.79,1.22,-1.24,-1.41,-1.59,1.49,1.55,1.57
111.85,2.92,1.39,2.87,1.34,-1.33,-1.45,-1.63,1.59,1.54,1.53
112.97,2.95,1.48,2.93,1.46,-1.42,-1.48,-1.67,1.53,1.52,1.47
114.10,2.95,1.52,2.97,1.54,-1.50,-1.52,-1.71,1.45,1.46,1.43
115.24,2.95,1.58,2.95,1.58,-1.58,-1.56,-1.74,1.37,1.37,1.37
116.39,2.95,1.63,2.95,1.63,-1.64,-1.59,-1.77,1.31,1.31,1.32
117.55,2.95,1.68,2.95,1.68,-1.68,-1.63,-1.80,1.27,1.27,1.27
118.73,2.95,1.71,2.96,1.73,-1.69,-1.66,-1.83,1.26,1.27,1.24
119.92,2.95,1.74,2.95,1.74,-1.69,-1.70,-1.86,1.26,1.25,1.21
121.12,2.94,1.77,2.89,1.72,-1.69,-1.73,-1.88,1.25,1.21,1.17
122.33,2.80,1.65,2.82,1.67,-1.68,-1.76,-1.90,1.12,1.14,1.15
123.55,2.72,1.59,2.75,1.63,-1.67,-1.80,-1.92,1.05,1.08,1.13
124.79,2.72,1.62,2.71,1.61,-1.66,-1.83,-1.94,1.06,1.05,1.10
126.03,2.72,1.64,2.71,1.63,-1.66,-1.86,-1.95,1.06,1.05,1.08
127.29,2.72,1.66,2.72,1.66,-1.66,-1.89,-1.97,1.06,1.06,1.07
128.57,2.72,1.69,2.72,1.69,-1.67,-1.92,-1.97,1.05,1.05,1.03
129.85,2.72,1.71,2.72,1.71,-1.69,-1.95,-1.98,1.03,1.03,1.01
131.15,2.72,1.74,2.72,1.74,-1.72,-1.98,-1.98,1.00,1.00,0.98
132.46,2.72,1.76,2.72,1.76,-1.75,-2.01,-1.99,0.97,0.97,0.96
133.79,2.72,1.77,2.72,1.78,-1.78,-2.04,-1.99,0.94,0.94,0.95
135.12,2.72,1.80,2.72,1.79,-1.80,-2.07,-1.98,0.92,0.92,0.92
136.48,2.72,1.81,2.72,1.82,-1.82,-2.09,-1.98,0.90,0.90,0.91
137.84,2.72,1.84,2.72,1.85,-1.85,-2.12,-1.97,0.88,0.88,0.88
139.22,2.72,1.88,2.72,1.87,-1.87,-2.15,-1.97,0.85,0.85,0.84
140.61,2.72,1.90,2.72,1.90,-1.89,-2.17,-1.96,0.83,0.83,0.82
142.02,2.72,1.91,2.72,1.92,-1.91,-2.19,-1.95,0.81,0.81,0.81
143.44,2.72,1.94,2.72,1.94,-1.94,-2.22,-1.94,0.78,0.78,0.78
144.87,2.72,1.97,2.72,1.97,-1.97,-2.24,-1.93,0.75,0.75,0.75
146.32,2.72,2.00,2.72,2.00,-2.00,-2.26,-1.92,0.72,0.72,0.72
147.78,2.72,2.03,2.72,2.03,-2.04,-2.28,-1.91,0.68,0.68,0.69
149.26,2.72,2.06,2.72,2.07,-2.08,-2.30,-1.90,0.64,0.64,0.66
150.75,2.72,2.12,2.72,2.12,-2.13,-2.31,-1.89,0.59,0.59,0.60
152.26,2.72,2.17,2.72,2.18,-2.18,-2.33,-1.88,0.54,0.54,0.55
153.78,2.72,2.24,2.72,2.24,-2.24,-2.34,-1.87,0.48,0.48,0.48
155.32,2.72,2.30,2.72,2.30,-2.30,-2.36,-1.86,0.42,0.42,0.42
156.88,2.72,2.35,2.72,2.36,-2.37,-2.37,-1.85,0.35,0.35,0.37
158.44,2.72,2.42,2.72,2.42,-2.43,-2.38,-1.84,0.29,0.29,0.31
160.03,2.72,2.48,2.72,2.47,-2.48,-2.39,-1.83,0.24,0.24,0.24
161.63,2.72,2.52,2.72,2.52,-2.51,-2.40,-1.83,0.21,0.21,0.20
163.24,2.72,2.57,2.73,2.57,-2.53,-2.41,-1.82,0.19,0.20,0.15
164.88,2.72,2.60,2.71,2.59,-2.54,-2.42,-1.82,0.18,0.17,0.12
166.53,2.69,2.60,2.66,2.57,-2.53,-2.42,-1.82,0.16,0.13,0.09
168.19,2.57,2.51,2.59,2.52,-2.51,-2.43,-1.82,0.06,0.07,0.07
169.87,2.50,2.45,2.53,2.48,-2.50,-2.43,-1.82,-0.00,0.02,0.05
171.57,2.50,2.46,2.49,2.45,-2.50,-2.43,-1.82,0.00,-0.00,0.04
173.29,2.50,2.46,2.48,2.44,-2.50,-2.43,-1.83,0.00,-0.02,0.04
175.02,2.50,2.45,2.50,2.46,-2.51,-2.43,-1.83,-0.01,-0.01,0.05
176.77,2.50,2.46,2.56,2.52,-2.53,-2.43,-1.84,-0.03,0.03,0.04
178.54,2.67,2.63,2.63,2.58,-2.56,-2.43,-1.85,0.11,0.07,0.04
180.32,2.72,2.67,2.70,2.65,-2.60,-2.43,-1.86,0.12,0.10,0.05
182.13,2.72,2.67,2.73,2.68,-2.63,-2.42,-1.87,0.09,0.10,0.05
183.95,2.72,2.67,2.73,2.67,-2.67,-2.41,-1.88,0.05,0.06,0.05
185.79,2.72,2.66,2.72,2.67,-2.70,-2.41,-1.89,0.03,0.03,0.06
187.65,2.72,2.69,2.72,2.68,-2.71,-2.40,-1.91,0.01,0.01,0.03
189.52,2.72,2.70,2.72,2.70,-2.72,-2.39,-1.93,-0.00,-0.00,0.02
191.42,2.72,2.71,2.72,2.71,-2.72,-2.38,-1.95,0.00,0.00,0.01
193.33,2.72,2.73,2.73,2.74,-2.71,-2.37,-1.96,0.01,0.02,-0.00
195.27,2.72,2.74,2.72,2.74,-2.70,-2.35,-1.99,0.02,0.02,-0.02
197.22,2.72,2.75,2.67,2.71,-2.69,-2.34,-2.01,0.03,-0.02,-0.03
199.19,2.59,2.65,2.60,2.65,-2.67,-2.33,-2.03,-0.08,-0.07,-0.06
201.18,2.50,2.57,2.54,2.61,-2.64,-2.31,-2.05,-0.14,-0.10,-0.07
203.19,2.50,2.58,2.50,2.58,-2.60,-2.29,-2.08,-0.10,-0.10,-0.08
205.23,2.50,2.60,2.46,2.56,-2.54,-2.28,-2.10,-0.04,-0.08,-0.10
207.28,2.42,2.53,2.42,2.53,-2.48,-2.26,-2.12,-0.06,-0.06,-0.11
209.35,2.30,2.43,2.33,2.47,-2.42,-2.24,-2.15,-0.12,-0.09,-0.13
211.44,2.27,2.43,2.22,2.37,-2.37,-2.22,-2.17,-0.10,-0.15,-0.16
213.56,2.11,2.28,2.13,2.29,-2.33,-2.20,-2.20,-0.22,-0.20,-0.17
215.69,2.04,2.20,2.07,2.24,-2.30,-2.18,-2.22,-0.26,-0.23,-0.16
217.85,2.04,2.22,2.03,2.21,-2.28,-2.16,-2.24,-0.24,-0.25,-0.18
220.03,2.04,2.24,2.03,2.23,-2.25,-2.13,-2.26,-0.21,-0.22,-0.20
222.23,2.04,2.26,2.04,2.25,-2.23,-2.11,-2.28,-0.19,-0.19,-0.22
224.45,2.04,2.25,2.06,2.27,-2.21,-2.09,-2.30,-0.17,-0.15,-0.21
226.70,2.04,2.26,2.04,2.26,-2.20,-2.06,-2.32,-0.16,-0.16,-0.22
228.96,2.04,2.26,1.98,2.20,-2.18,-2.04,-2.33,-0.14,-0.20,-0.22
231.25,1.87,2.08,1.91,2.13,-2.15,-2.01,-2.34,-0.28,-0.24,-0.21
233.57,1.81,2.03,1.84,2.06,-2.11,-1.99,-2.35,-0.30,-0.27,-0.22
235.90,1.81,2.04,1.81,2.03,-2.05,-1.96,-2.36,-0.24,-0.24,-0.23
238.26,1.81,2.03,1.80,2.03,-1.99,-1.93,-2.36,-0.18,-0.19,-0.22
240.64,1.81,2.03,1.76,1.97,-1.94,-1.91,-2.36,-0.13,-0.18,-0.22
243.05,1.66,1.86,1.69,1.89,-1.89,-1.88,-2.36,-0.23,-0.20,-0.20
245.48,1.59,1.78,1.62,1.81,-1.85,-1.85,-2.35,-0.26,-0.23,-0.19
247.93,1.59,1.76,1.58,1.76,-1.81,-1.83,-2.34,-0.22,-0.23,-0.17
250.41,1.59,1.76,1.58,1.74,-1.76,-1.80,-2.32,-0.17,-0.18,-0.17
252.92,1.59,1.73,1.60,1.75,-1.71,-1.77,-2.30,-0.12,-0.10,-0.14
255.45,1.59,1.71,1.59,1.71,-1.65,-1.74,-2.28,-0.06,-0.06,-0.12
258.00,1.59,1.69,1.54,1.64,-1.60,-1.71,-2.25,-0.01,-0.06,-0.10
260.58,1.44,1.54,1.47,1.55,-1.55,-1.68,-2.22,-0.11,-0.09,-0.09
263.19,1.37,1.44,1.40,1.47,-1.51,-1.65,-2.19,-0.14,-0.11,-0.07
265.82,1.36,1.41,1.35,1.41,-1.46,-1.62,-2.15,-0.10,-0.11,-0.05
268.48,1.36,1.40,1.35,1.39,-1.41,-1.60,-2.11,-0.05,-0.06,-0.04
271.16,1.36,1.37,1.36,1.37,-1.37,-1.57,-2.07,-0.01,-0.01,-0.01
273.87,1.36,1.35,1.36,1.35,-1.34,-1.54,-2.02,0.02,0.02,0.01
276.61,1.36,1.33,1.36,1.33,-1.32,-1.51,-1.97,0.04,0.04,0.03
279.38,1.36,1.31,1.36,1.31,-1.30,-1.48,-1.92,0.06,0.06,0.05
282.17,1.36,1.28,1.36,1.28,-1.28,-1.45,-1.86,0.08,0.08,0.08
284.99,1.36,1.26,1.36,1.26,-1.26,-1.42,-1.81,0.10,0.10,0.10
287.84,1.36,1.23,1.36,1.23,-1.23,-1.39,-1.75,0.13,0.13,0.13
290.72,1.36,1.20,1.36,1.20,-1.20,-1.36,-1.69,0.16,0.16,0.16
293.63,1.36,1.18,1.36,1.18,-1.18,-1.33,-1.63,0.18,0.18,0.18
296.57,1.36,1.15,1.36,1.15,-1.15,-1.30,-1.57,0.21,0.21,0.21
299.53,1.36,1.13,1.36,1.13,-1.13,-1.27,-1.50,0.23,0.23,0.23
302.53,1.36,1.12,1.36,1.11,-1.11,-1.24,-1.44,0.25,0.25,0.24
305.55,1.36,1.08,1.36,1.09,-1.09,-1.21,-1.37,0.27,0.27,0.28
308.61,1.36,1.08,1.36,1.07,-1.07,-1.18,-1.31,0.29,0.29,0.28
311.69,1.36,1.05,1.36,1.05,-1.06,-1.15,-1.24,0.30,0.30,0.31
314.81,1.36,1.03,1.36,1.03,-1.06,-1.12,-1.18,0.30,0.30,0.33
317.96,1.36,1.02,1.36,1.02,-1.04,-1.09,-1.11,0.32,0.32,0.34
321.14,1.36,1.02,1.36,1.02,-1.02,-1.06,-1.05,0.34,0.34,0.34
324.35,1.36,1.02,1.37,1.03,-0.99,-1.03,-0.98,0.37,0.38,0.34
327.59,1.36,1.01,1.37,1.02,-0.96,-1.00,-0.91,0.40,0.41,0.35
330.87,1.36,1.00,1.32,0.96,-0.92,-0.97,-0.85,0.44,0.40,0.36
334.18,1.25,0.89,1.25,0.88,-0.89,-0.94,-0.78,0.36,0.36,0.36
337.52,1.14,0.76,1.18,0.80,-0.84,-0.91,-0.72,0.30,0.33,0.38
340.90,1.13,0.73,1.13,0.73,-0.80,-0.88,-0.65,0.33,0.33,0.40
344.30,1.13,0.71,1.12,0.70,-0.74,-0.85,-0.59,0.39,0.38,0.42
347.75,1.13,0.70,1.14,0.71,-0.68,-0.82,-0.52,0.45,0.46,0.43
351.23,1.13,0.68,1.13,0.68,-0.62,-0.79,-0.46,0.51,0.52,0.45
354.74,1.13,0.66,1.09,0.62,-0.56,-0.76,-0.40,0.57,0.53,0.47
358.28,1.02,0.52,1.03,0.53,-0.51,-0.72,-0.33,0.51,0.51,0.50
361.87,0.93,0.41,0.96,0.43,-0.46,-0.69,-0.27,0.47,0.49,0.52
365.49,0.90,0.35,0.90,0.36,-0.41,-0.66,-0.21,0.49,0.49,0.55
369.14,0.90,0.34,0.89,0.33,-0.36,-0.63,-0.14,0.54,0.53,0.56
372.83,0.90,0.32,0.90,0.32,-0.32,-0.60,-0.08,0.58,0.58,0.58
376.56,0.90,0.30,0.90,0.30,-0.29,-0.57,-0.02,0.61,0.61,0.60
380.33,0.90,0.28,0.90,0.28,-0.27,-0.54,0.04,0.63,0.63,0.63
384.13,0.90,0.26,0.90,0.26,-0.26,-0.50,0.10,0.64,0.64,0.64
387.97,0.90,0.26,0.90,0.25,-0.25,-0.47,0.16,0.65,0.65,0.64
391.85,0.90,0.25,0.90,0.24,-0.24,-0.44,0.22,0.66,0.66,0.65
395.77,0.90,0.23,0.90,0.23,-0.23,-0.40,0.28,0.67,0.67,0.67
399.73,0.90,0.22,0.90,0.22,-0.22,-0.37,0.34,0.68,0.68,0.68
403.72,0.90,0.21,0.90,0.21,-0.21,-0.33,0.40,0.69,0.69,0.69
407.76,0.90,0.20,0.90,0.20,-0.20,-0.30,0.46,0.70,0.70,0.70
411.84,0.90,0.19,0.90,0.19,-0.19,-0.26,0.52,0.71,0.71,0.71
415.96,0.90,0.18,0.90,0.18,-0.18,-0.23,0.57,0.72,0.72,0.72
420.12,0.90,0.17,0.90,0.17,-0.18,-0.19,0.63,0.72,0.72,0.73
424.32,0.90,0.17,0.90,0.17,-0.17,-0.15,0.68,0.73,0.73,0.73
428.56,0.90,0.16,0.90,0.17,-0.17,-0.11,0.74,0.73,0.73,0.74
432.85,0.90,0.16,0.90,0.16,-0.17,-0.07,0.79,0.73,0.73,0.74
437.18,0.90,0.15,0.90,0.15,-0.17,-0.03,0.84,0.73,0.73,0.75
441.55,0.90,0.15,0.90,0.15,-0.15,0.01,0.89,0.75,0.75,0.76
445.96,0.90,0.14,0.91,0.14,-0.13,0.05,0.94,0.77,0.77,0.76
450.42,0.90,0.14,0.91,0.14,-0.10,0.09,0.99,0.80,0.81,0.76
454.93,0.90,0.12,0.88,0.10,-0.07,0.14,1.03,0.83,0.81,0.78
459.48,0.85,0.07,0.82,0.03,-0.02,0.18,1.08,0.83,0.79,0.78
464.07,0.70,-0.10,0.74,-0.06,0.03,0.23,1.12,0.74,0.78,0.80
468.71,0.67,-0.15,0.70,-0.12,0.10,0.28,1.16,0.77,0.80,0.82
473.40,0.67,-0.15,0.65,-0.17,0.17,0.33,1.19,0.84,0.82,0.82
478.13,0.67,-0.17,0.61,-0.23,0.24,0.38,1.23,0.91,0.85,0.84
482.91,0.50,-0.35,0.54,-0.32,0.31,0.44,1.26,0.81,0.85,0.85
487.74,0.45,-0.43,0.49,-0.39,0.39,0.49,1.29,0.84,0.88,0.88
492.62,0.45,-0.46,0.44,-0.47,0.46,0.55,1.32,0.91,0.90,0.91
497.55,0.45,-0.48,0.40,-0.53,0.53,0.61,1.34,0.98,0.93,0.93
502.52,0.32,-0.63,0.34,-0.61,0.62,0.67,1.36,0.94,0.96,0.95
507.55,0.23,-0.74,0.28,-0.70,0.71,0.73,1.38,0.94,0.98,0.97
512.62,0.22,-0.78,0.20,-0.80,0.80,0.80,1.40,1.02,1.00,1.00
517.75,0.18,-0.85,0.15,-0.88,0.90,0.87,1.42,1.08,1.04,1.03
522.93,0.03,-1.02,0.07,-0.98,0.99,0.94,1.43,1.02,1.06,1.05
528.16,-0.01,-1.08,-0.04,-1.11,1.09,1.02,1.44,1.08,1.05,1.07
533.44,-0.13,-1.22,-0.13,-1.22,1.18,1.09,1.45,1.05,1.05,1.09
538.77,-0.22,-1.33,-0.18,-1.29,1.28,1.17,1.46,1.06,1.10,1.11
