frequency,raw,error,smoothed,error_smoothed,equalization,parametric_eq,fixed_band_eq,equalized_raw,equalized_smoothed,target
20.00,5.14,0.11,5.14,0.11,-0.11,-0.28,-0.19,5.03,5.03,5.03
20.20,5.14,0.12,5.14,0.12,-0.12,-0.28,-0.20,5.02,5.02,5.02
20.40,5.14,0.12,5.14,0.13,-0.13,-0.29,-0.20,5.01,5.01,5.02
20.61,5.14,0.13,5.14,0.13,-0.13,-0.29,-0.21,5.01,5.01,5.01
20.81,5.14,0.14,5.14,0.14,-0.14,-0.30,-0.21,5.00,5.00,5.00
21.02,5.14,0.15,5.14,0.15,-0.14,-0.31,-0.22,5.00,5.00,4.99
21.23,5.14,0.15,5.14,0.15,-0.15,-0.31,-0.22,4.99,4.99,4.99
21.44,5.14,0.14,5.14,0.15,-0.15,-0.32,-0.23,4.99,4.99,5.00
21.66,5.14,0.15,5.14,0.15,-0.16,-0.33,-0.23,4.99,4.99,4.99
21.87,5.14,0.15,5.14,0.16,-0.16,-0.33,-0.24,4.98,4.98,4.99
22.09,5.14,0.16,5.14,0.16,-0.16,-0.34,-0.24,4.98,4.98,4.98
22.31,5.14,0.17,5.14,0.17,-0.16,-0.35,-0.25,4.98,4.98,4.98
22.54,5.14,0.18,5.14,0.17,-0.17,-0.35,-0.25,4.97,4.97,4.96
22.76,5.14,0.17,5.14,0.17,-0.18,-0.36,-0.26,4.96,4.96,4.97
22.99,5.14,0.17,5.15,0.18,-0.19,-0.37,-0.27,4.95,4.96,4.97
23.22,5.16,0.20,5.16,0.19,-0.20,-0.37,-0.27,4.96,4.96,4.96
23.45,5.18,0.22,5.18,0.22,-0.22,-0.38,-0.28,4.97,4.96,4.96
23.69,5.20,0.24,5.20,0.24,-0.23,-0.39,-0.28,4.97,4.97,4.96
23.92,5.22,0.26,5.22,0.26,-0.26,-0.40,-0.29,4.96,4.97,4.96
24.16,5.25,0.28,5.25,0.28,-0.28,-0.40,-0.30,4.97,4.97,4.97
24.40,5.27,0.29,5.28,0.30,-0.30,-0.41,-0.30,4.97,4.97,4.98
24.65,5.30,0.32,5.30,0.32,-0.32,-0.42,-0.31,4.98,4.98,4.98
24.89,5.33,0.35,5.32,0.35,-0.34,-0.43,-0.32,4.99,4.98,4.98
25.14,5.34,0.37,5.34,0.37,-0.35,-0.44,-0.33,4.99,4.98,4.97
25.39,5.34,0.37,5.34,0.38,-0.37,-0.45,-0.33,4.98,4.98,4.97
25.65,5.34,0.37,5.34,0.38,-0.37,-0.46,-0.34,4.97,4.97,4.97
25.91,5.34,0.38,5.34,0.38,-0.38,-0.47,-0.35,4.96,4.96,4.97
26.16,5.34,0.38,5.34,0.38,-0.39,-0.47,-0.36,4.95,4.95,4.96
26.43,5.34,0.39,5.34,0.38,-0.39,-0.48,-0.37,4.95,4.95,4.95
26.69,5.34,0.39,5.34,0.39,-0.39,-0.49,-0.37,4.95,4.95,4.95
26.96,5.34,0.40,5.34,0.40,-0.40,-0.50,-0.38,4.94,4.94,4.94
27.23,5.34,0.41,5.34,0.41,-0.40,-0.51,-0.39,4.94,4.94,4.93
27.50,5.34,0.41,5.34,0.41,-0.41,-0.52,-0.40,4.93,4.93,4.93
27.77,5.34,0.41,5.34,0.41,-0.41,-0.53,-0.41,4.93,4.93,4.93
28.05,5.34,0.41,5.34,0.42,-0.42,-0.55,-0.42,4.92,4.92,4.93
28.33,5.34,0.42,5.34,0.42,-0.41,-0.56,-0.43,4.93,4.93,4.93
28.62,5.34,0.43,5.34,0.42,-0.41,-0.57,-0.44,4.93,4.93,4.91
28.90,5.34,0.42,5.34,0.42,-0.41,-0.58,-0.45,4.93,4.93,4.92
29.19,5.34,0.42,5.34,0.42,-0.41,-0.59,-0.46,4.93,4.93,4.92
29.48,5.34,0.41,5.34,0.41,-0.42,-0.60,-0.47,4.93,4.92,4.93
29.78,5.33,0.40,5.33,0.40,-0.43,-0.61,-0.49,4.91,4.91,4.93
30.08,5.34,0.40,5.35,0.41,-0.44,-0.63,-0.50,4.90,4.91,4.94
30.38,5.37,0.44,5.37,0.45,-0.46,-0.64,-0.51,4.92,4.92,4.93
30.68,5.41,0.49,5.41,0.48,-0.48,-0.65,-0.52,4.94,4.93,4.92
30.99,5.44,0.53,5.43,0.52,-0.50,-0.66,-0.54,4.94,4.93,4.91
31.30,5.45,0.54,5.45,0.54,-0.53,-0.68,-0.55,4.92,4.92,4.91
31.61,5.46,0.55,5.46,0.56,-0.56,-0.69,-0.56,4.90,4.90,4.91
31.93,5.47,0.57,5.47,0.57,-0.59,-0.70,-0.58,4.88,4.89,4.90
32.24,5.49,0.60,5.49,0.60,-0.61,-0.72,-0.59,4.88,4.88,4.89
32.57,5.51,0.63,5.51,0.63,-0.63,-0.73,-0.61,4.88,4.88,4.88
32.89,5.53,0.66,5.53,0.66,-0.65,-0.75,-0.62,4.89,4.88,4.87
33.22,5.54,0.67,5.54,0.67,-0.66,-0.76,-0.64,4.88,4.88,4.87
33.55,5.54,0.68,5.54,0.68,-0.67,-0.78,-0.65,4.87,4.87,4.86
33.89,5.54,0.68,5.54,0.68,-0.68,-0.79,-0.67,4.86,4.86,4.86
34.23,5.54,0.69,5.54,0.69,-0.69,-0.81,-0.69,4.85,4.85,4.85
34.57,5.54,0.69,5.54,0.69,-0.70,-0.83,-0.71,4.84,4.84,4.85
34.92,5.54,0.71,5.54,0.70,-0.71,-0.84,-0.72,4.83,4.83,4.83
35.27,5.54,0.70,5.54,0.71,-0.71,-0.86,-0.74,4.83,4.83,4.84
35.62,5.54,0.72,5.54,0.72,-0.72,-0.88,-0.76,4.82,4.82,4.82
35.97,5.54,0.74,5.54,0.73,-0.73,-0.89,-0.78,4.81,4.81,4.80
36.33,5.54,0.75,5.54,0.75,-0.75,-0.91,-0.80,4.79,4.79,4.79
36.70,5.54,0.76,5.54,0.76,-0.76,-0.93,-0.83,4.78,4.78,4.78
37.06,5.54,0.78,5.54,0.78,-0.78,-0.95,-0.85,4.76,4.76,4.76
37.43,5.54,0.79,5.54,0.79,-0.80,-0.97,-0.87,4.74,4.74,4.75
37.81,5.54,0.82,5.54,0.81,-0.82,-0.98,-0.89,4.72,4.72,4.73
38.19,5.54,0.84,5.54,0.84,-0.84,-1.00,-0.92,4.70,4.70,4.70
38.57,5.54,0.86,5.54,0.86,-0.86,-1.02,-0.94,4.68,4.68,4.68
38.95,5.54,0.89,5.54,0.89,-0.89,-1.04,-0.97,4.65,4.65,4.65
39.34,5.54,0.91,5.54,0.91,-0.91,-1.06,-0.99,4.63,4.63,4.63
39.74,5.54,0.94,5.54,0.94,-0.93,-1.09,-1.02,4.61,4.61,4.60
40.14,5.54,0.96,5.54,0.96,-0.95,-1.11,-1.05,4.59,4.59,4.58
40.54,5.54,0.99,5.54,0.99,-0.98,-1.13,-1.08,4.56,4.56,4.55
40.94,5.54,1.01,5.54,1.01,-1.01,-1.15,-1.11,4.53,4.53,4.53
41.35,5.54,1.03,5.53,1.02,-1.04,-1.17,-1.14,4.50,4.49,4.51
41.76,5.53,1.05,5.54,1.05,-1.08,-1.20,-1.17,4.46,4.46,4.49
42.18,5.55,1.08,5.56,1.10,-1.11,-1.22,-1.20,4.44,4.45,4.47
42.60,5.60,1.16,5.60,1.15,-1.15,-1.24,-1.24,4.45,4.45,4.44
43.03,5.64,1.22,5.63,1.21,-1.19,-1.27,-1.27,4.45,4.44,4.42
43.46,5.64,1.24,5.64,1.25,-1.22,-1.29,-1.31,4.42,4.42,4.40
43.90,5.64,1.27,5.64,1.27,-1.26,-1.32,-1.34,4.38,4.38,4.37
44.33,5.64,1.30,5.64,1.29,-1.30,-1.34,-1.38,4.35,4.35,4.35
44.78,5.64,1.32,5.64,1.32,-1.33,-1.37,-1.42,4.31,4.31,4.32
45.23,5.64,1.34,5.64,1.35,-1.36,-1.39,-1.46,4.29,4.29,4.30
45.68,5.64,1.38,5.64,1.38,-1.38,-1.42,-1.50,4.26,4.26,4.26
46.13,5.64,1.42,5.64,1.41,-1.41,-1.45,-1.54,4.23,4.23,4.22
46.60,5.64,1.45,5.64,1.44,-1.44,-1.48,-1.58,4.20,4.20,4.19
47.06,5.64,1.48,5.64,1.48,-1.47,-1.51,-1.62,4.17,4.17,4.17
47.53,5.64,1.50,5.64,1.51,-1.52,-1.53,-1.67,4.12,4.12,4.14
48.01,5.64,1.56,5.64,1.55,-1.57,-1.56,-1.71,4.07,4.07,4.08
48.49,5.64,1.59,5.64,1.59,-1.62,-1.59,-1.76,4.02,4.02,4.05
48.97,5.64,1.64,5.66,1.66,-1.67,-1.62,-1.80,3.97,3.99,4.01
49.46,5.70,1.74,5.70,1.74,-1.73,-1.65,-1.85,3.97,3.97,3.96
49.96,5.75,1.84,5.73,1.81,-1.78,-1.69,-1.90,3.97,3.95,3.91
50.46,5.75,1.86,5.75,1.86,-1.83,-1.72,-1.94,3.92,3.92,3.89
50.96,5.74,1.88,5.75,1.89,-1.88,-1.75,-1.99,3.86,3.87,3.86
51.47,5.74,1.91,5.74,1.92,-1.92,-1.78,-2.04,3.82,3.82,3.83
51.99,5.74,1.96,5.74,1.95,-1.96,-1.82,-2.09,3.78,3.77,3.78
52.51,5.74,1.99,5.74,1.99,-2.00,-1.85,-2.14,3.74,3.74,3.75
53.03,5.74,2.03,5.74,2.03,-2.04,-1.89,-2.19,3.70,3.70,3.72
53.56,5.74,2.07,5.74,2.07,-2.07,-1.92,-2.24,3.67,3.67,3.67
54.10,5.74,2.11,5.74,2.11,-2.11,-1.96,-2.29,3.63,3.63,3.63
54.64,5.74,2.15,5.74,2.15,-2.15,-1.99,-2.34,3.59,3.59,3.59
55.18,5.74,2.20,5.74,2.19,-2.19,-2.03,-2.39,3.55,3.55,3.54
55.74,5.74,2.23,5.74,2.23,-2.23,-2.07,-2.43,3.51,3.51,3.51
56.29,5.74,2.26,5.74,2.26,-2.26,-2.10,-2.48,3.48,3.48,3.48
56.86,5.74,2.29,5.74,2.30,-2.30,-2.14,-2.53,3.45,3.45,3.45
57.42,5.74,2.35,5.74,2.33,-2.33,-2.18,-2.57,3.41,3.41,3.39
58.00,5.74,2.37,5.74,2.36,-2.36,-2.22,-2.61,3.38,3.38,3.38
58.58,5.74,2.38,5.74,2.39,-2.39,-2.26,-2.65,3.35,3.35,3.36
59.16,5.74,2.42,5.74,2.42,-2.42,-2.30,-2.69,3.32,3.32,3.33
59.76,5.74,2.45,5.74,2.45,-2.46,-2.34,-2.73,3.28,3.28,3.29
60.35,5.74,2.50,5.74,2.49,-2.50,-2.38,-2.77,3.24,3.24,3.24
60.96,5.74,2.53,5.74,2.53,-2.54,-2.42,-2.80,3.20,3.20,3.21
61.57,5.74,2.58,5.74,2.58,-2.59,-2.47,-2.83,3.15,3.15,3.16
62.18,5.74,2.64,5.74,2.63,-2.63,-2.51,-2.87,3.11,3.11,3.10
62.80,5.74,2.69,5.74,2.69,-2.68,-2.55,-2.89,3.06,3.06,3.05
63.43,5.74,2.74,5.74,2.74,-2.73,-2.60,-2.92,3.01,3.01,3.01
64.07,5.74,2.78,5.74,2.78,-2.77,-2.64,-2.94,2.97,2.97,2.96
64.71,5.74,2.82,5.74,2.82,-2.82,-2.69,-2.97,2.92,2.92,2.92
65.35,5.74,2.87,5.74,2.86,-2.87,-2.73,-2.99,2.88,2.88,2.88
66.01,5.74,2.90,5.74,2.90,-2.91,-2.78,-3.01,2.83,2.83,2.84
66.67,5.74,2.94,5.74,2.95,-2.95,-2.82,-3.02,2.79,2.79,2.80
67.33,5.74,3.00,5.74,3.00,-2.99,-2.87,-3.04,2.75,2.75,2.74
68.01,5.74,3.04,5.74,3.04,-3.04,-2.92,-3.06,2.70,2.70,2.70
68.69,5.74,3.08,5.74,3.09,-3.08,-2.96,-3.07,2.66,2.66,2.66
69.37,5.74,3.13,5.74,3.13,-3.13,-3.01,-3.08,2.61,2.61,2.61
70.07,5.74,3.18,5.74,3.18,-3.18,-3.06,-3.10,2.56,2.56,2.56
70.77,5.74,3.22,5.74,3.22,-3.23,-3.11,-3.11,2.52,2.52,2.52
71.48,5.74,3.27,5.74,3.27,-3.27,-3.16,-3.12,2.47,2.47,2.47
72.19,5.74,3.31,5.74,3.32,-3.32,-3.20,-3.14,2.42,2.42,2.43
72.91,5.74,3.37,5.74,3.37,-3.36,-3.25,-3.15,2.38,2.38,2.37
73.64,5.74,3.42,5.74,3.41,-3.41,-3.30,-3.16,2.33,2.33,2.32
74.38,5.74,3.46,5.74,3.46,-3.45,-3.35,-3.18,2.29,2.29,2.29
75.12,5.74,3.49,5.74,3.49,-3.49,-3.40,-3.19,2.25,2.25,2.25
75.87,5.74,3.52,5.74,3.53,-3.53,-3.45,-3.21,2.21,2.21,2.22
76.63,5.74,3.57,5.74,3.57,-3.57,-3.50,-3.23,2.17,2.17,2.17
77.40,5.74,3.61,5.74,3.61,-3.61,-3.55,-3.25,2.13,2.13,2.13
78.17,5.74,3.65,5.74,3.64,-3.64,-3.60,-3.27,2.10,2.10,2.09
78.95,5.74,3.67,5.74,3.67,-3.67,-3.65,-3.29,2.07,2.07,2.07
79.74,5.74,3.71,5.74,3.71,-3.71,-3.70,-3.32,2.03,2.03,2.03
80.54,5.74,3.74,5.74,3.74,-3.74,-3.75,-3.35,2.00,2.00,2.00
81.35,5.74,3.78,5.74,3.77,-3.78,-3.80,-3.38,1.96,1.96,1.96
82.16,5.74,3.80,5.74,3.81,-3.81,-3.85,-3.41,1.93,1.93,1.94
82.98,5.74,3.85,5.74,3.85,-3.85,-3.90,-3.44,1.89,1.89,1.89
83.81,5.74,3.89,5.74,3.89,-3.89,-3.95,-3.48,1.85,1.85,1.85
84.65,5.74,3.93,5.74,3.93,-3.93,-4.00,-3.52,1.82,1.82,1.81
85.50,5.74,3.97,5.74,3.97,-3.96,-4.05,-3.56,1.78,1.78,1.77
86.35,5.74,4.01,5.74,4.01,-4.01,-4.09,-3.61,1.74,1.74,1.73
87.22,5.74,4.05,5.74,4.05,-4.05,-4.14,-3.66,1.69,1.69,1.69
88.09,5.74,4.09,5.74,4.09,-4.09,-4.19,-3.71,1.65,1.65,1.65
88.97,5.74,4.13,5.74,4.13,-4.13,-4.24,-3.76,1.61,1.61,1.61
89.86,5.74,4.17,5.74,4.18,-4.18,-4.29,-3.82,1.56,1.56,1.57
90.76,5.74,4.22,5.74,4.22,-4.22,-4.33,-3.88,1.52,1.52,1.52
91.66,5.75,4.28,5.75,4.27,-4.27,-4.38,-3.94,1.48,1.47,1.47
92.58,5.75,4.33,5.75,4.32,-4.32,-4.42,-4.00,1.43,1.43,1.42
93.51,5.75,4.37,5.75,4.37,-4.37,-4.47,-4.07,1.38,1.38,1.38
94.44,5.75,4.42,5.75,4.42,-4.42,-4.52,-4.14,1.33,1.33,1.33
95.39,5.75,4.47,5.75,4.47,-4.47,-4.56,-4.21,1.28,1.28,1.28
96.34,5.74,4.52,5.75,4.52,-4.52,-4.60,-4.29,1.22,1.22,1.22
97.30,5.74,4.57,5.74,4.57,-4.57,-4.65,-4.37,1.17,1.17,1.17
98.28,5.73,4.62,5.73,4.62,-4.62,-4.69,-4.45,1.11,1.11,1.11
99.26,5.71,4.67,5.71,4.67,-4.66,-4.73,-4.53,1.05,1.05,1.04
100.25,5.70,4.72,5.70,4.71,-4.71,-4.77,-4.61,0.99,0.99,0.98
101.25,5.68,4.74,5.68,4.75,-4.75,-4.81,-4.70,0.93,0.93,0.94
102.27,5.67,4.79,5.67,4.79,-4.79,-4.85,-4.78,0.88,0.88,0.88
103.29,5.65,4.83,5.65,4.83,-4.83,-4.89,-4.87,0.82,0.83,0.82
104.32,5.63,4.86,5.63,4.86,-4.86,-4.93,-4.96,0.77,0.77,0.77
105.37,5.61,4.90,5.61,4.90,-4.90,-4.97,-5.05,0.71,0.71,0.71
106.42,5.58,4.92,5.58,4.93,-4.94,-5.01,-5.14,0.64,0.65,0.66
107.48,5.56,4.97,5.56,4.97,-4.97,-5.04,-5.22,0.59,0.59,0.59
108.56,5.54,5.00,5.54,5.00,-5.00,-5.08,-5.31,0.54,0.54,0.54
109.64,5.52,5.04,5.53,5.04,-5.03,-5.12,-5.40,0.49,0.50,0.49
110.74,5.50,5.07,5.51,5.08,-5.05,-5.15,-5.48,0.45,0.46,0.43
111.85,5.50,5.12,5.47,5.09,-5.08,-5.19,-5.56,0.43,0.40,0.38
112.97,5.43,5.10,5.43,5.10,-5.10,-5.22,-5.64,0.33,0.33,0.33
114.10,5.36,5.07,5.39,5.11,-5.13,-5.25,-5.72,0.23,0.26,0.29
115.24,5.36,5.14,5.36,5.13,-5.16,-5.29,-5.79,0.20,0.20,0.22
116.39,5.36,5.19,5.36,5.18,-5.20,-5.32,-5.86,0.16,0.16,0.17
117.55,5.37,5.24,5.37,5.24,-5.23,-5.35,-5.92,0.14,0.13,0.13
118.73,5.37,5.29,5.37,5.29,-5.28,-5.38,-5.98,0.10,0.10,0.08
119.92,5.38,5.34,5.38,5.34,-5.32,-5.41,-6.03,0.06,0.06,0.04
121.12,5.39,5.38,5.39,5.38,-5.37,-5.45,-6.08,0.02,0.01,0.02
122.33,5.39,5.42,5.39,5.42,-5.42,-5.48,-6.12,-0.03,-0.03,-0.03
123.55,5.40,5.46,5.40,5.46,-5.47,-5.51,-6.16,-0.07,-0.06,-0.06
124.79,5.41,5.50,5.41,5.51,-5.51,-5.54,-6.19,-0.10,-0.10,-0.09
126.03,5.42,5.56,5.42,5.55,-5.55,-5.57,-6.21,-0.13,-0.13,-0.14
127.29,5.42,5.60,5.42,5.60,-5.60,-5.60,-6.22,-0.17,-0.17,-0.18
128.57,5.43,5.65,5.43,5.64,-5.64,-5.63,-6.23,-0.21,-0.21,-0.22
129.85,5.43,5.68,5.43,5.68,-5.68,-5.65,-6.24,-0.25,-0.25,-0.25
131.15,5.44,5.73,5.44,5.73,-5.73,-5.68,-6.23,-0.29,-0.29,-0.29
132.46,5.44,5.76,5.44,5.77,-5.77,-5.71,-6.23,-0.33,-0.33,-0.32
133.79,5.45,5.82,5.45,5.82,-5.82,-5.74,-6.21,-0.37,-0.37,-0.37
135.12,5.45,5.86,5.45,5.86,-5.86,-5.77,-6.20,-0.41,-0.41,-0.41
136.48,5.46,5.90,5.46,5.91,-5.91,-5.80,-6.18,-0.45,-0.45,-0.44
137.84,5.46,5.94,5.46,5.94,-5.95,-5.83,-6.15,-0.49,-0.49,-0.48
139.22,5.46,5.99,5.46,5.98,-5.99,-5.86,-6.13,-0.52,-0.52,-0.53
140.61,5.46,6.02,5.47,6.03,-6.02,-5.88,-6.10,-0.56,-0.55,-0.56
142.02,5.46,6.06,5.46,6.06,-6.05,-5.91,-6.06,-0.59,-0.59,-0.60
143.44,5.46,6.10,5.44,6.08,-6.07,-5.94,-6.03,-0.61,-0.63,-0.64
144.87,5.40,6.07,5.41,6.09,-6.09,-5.97,-6.00,-0.69,-0.68,-0.67
146.32,5.37,6.08,5.38,6.10,-6.10,-6.00,-5.96,-0.73,-0.71,-0.71
147.78,5.36,6.11,5.36,6.11,-6.11,-6.03,-5.93,-0.75,-0.75,-0.75
149.26,5.35,6.14,5.33,6.12,-6.12,-6.06,-5.90,-0.77,-0.79,-0.79
150.75,5.30,6.14,5.30,6.14,-6.13,-6.09,-5.86,-0.83,-0.83,-0.84
152.26,5.26,6.12,5.28,6.14,-6.16,-6.12,-5.83,-0.89,-0.88,-0.86
153.78,5.26,6.17,5.26,6.16,-6.18,-6.14,-5.80,-0.92,-0.92,-0.91
155.32,5.26,6.20,5.26,6.20,-6.21,-6.17,-5.78,-0.95,-0.96,-0.94
156.88,5.26,6.24,5.26,6.24,-6.25,-6.20,-5.75,-0.99,-0.99,-0.98
158.44,5.26,6.28,5.26,6.28,-6.28,-6.23,-5.73,-1.02,-1.02,-1.02
160.03,5.26,6.33,5.27,6.34,-6.31,-6.26,-5.71,-1.05,-1.04,-1.06
161.63,5.27,6.38,5.26,6.37,-6.34,-6.29,-5.70,-1.07,-1.08,-1.11
163.24,5.26,6.42,5.24,6.39,-6.37,-6.32,-5.69,-1.11,-1.13,-1.16
164.88,5.19,6.39,5.20,6.40,-6.40,-6.35,-5.68,-1.21,-1.20,-1.20
166.53,5.16,6.41,5.17,6.41,-6.43,-6.38,-5.68,-1.27,-1.26,-1.25
168.19,5.14,6.43,5.14,6.43,-6.45,-6.41,-5.68,-1.31,-1.31,-1.28
169.87,5.14,6.47,5.13,6.47,-6.48,-6.44,-5.68,-1.34,-1.35,-1.33
171.57,5.13,6.51,5.13,6.50,-6.52,-6.47,-5.69,-1.39,-1.39,-1.38
173.29,5.12,6.54,5.12,6.54,-6.55,-6.49,-5.70,-1.43,-1.43,-1.42
175.02,5.12,6.58,5.12,6.58,-6.58,-6.52,-5.72,-1.46,-1.46,-1.46
176.77,5.12,6.63,5.12,6.62,-6.61,-6.55,-5.74,-1.49,-1.49,-1.50
178.54,5.12,6.66,5.13,6.67,-6.63,-6.58,-5.77,-1.51,-1.50,-1.54
180.32,5.12,6.70,5.10,6.69,-6.65,-6.60,-5.80,-1.53,-1.54,-1.58
182.13,5.08,6.71,5.06,6.68,-6.66,-6.63,-5.83,-1.58,-1.61,-1.62
183.95,4.97,6.63,5.00,6.66,-6.68,-6.66,-5.87,-1.71,-1.68,-1.66
185.79,4.95,6.65,4.96,6.66,-6.70,-6.68,-5.92,-1.75,-1.74,-1.70
187.65,4.96,6.69,4.95,6.68,-6.72,-6.71,-5.96,-1.76,-1.77,-1.73
189.52,4.98,6.75,4.97,6.73,-6.75,-6.73,-6.01,-1.77,-1.78,-1.77
191.42,4.99,6.78,4.99,6.78,-6.78,-6.75,-6.07,-1.79,-1.79,-1.79
193.33,5.00,6.83,5.01,6.84,-6.82,-6.78,-6.13,-1.82,-1.81,-1.83
195.27,5.02,6.88,5.01,6.87,-6.85,-6.80,-6.19,-1.83,-1.84,-1.86
197.22,5.02,6.92,5.00,6.90,-6.89,-6.82,-6.26,-1.87,-1.88,-1.90
199.19,4.97,6.90,4.98,6.92,-6.91,-6.84,-6.33,-1.94,-1.93,-1.93
201.18,4.95,6.91,4.96,6.92,-6.92,-6.86,-6.40,-1.97,-1.96,-1.96
203.19,4.95,6.94,4.94,6.93,-6.92,-6.87,-6.47,-1.97,-1.98,-1.99
205.23,4.93,6.95,4.92,6.94,-6.92,-6.89,-6.55,-1.99,-2.00,-2.01
207.28,4.88,6.92,4.87,6.92,-6.92,-6.90,-6.63,-2.04,-2.04,-2.04
209.35,4.81,6.89,4.82,6.90,-6.91,-6.92,-6.71,-2.10,-2.09,-2.08
211.44,4.76,6.87,4.77,6.88,-6.91,-6.93,-6.79,-2.15,-2.13,-2.11
213.56,4.75,6.89,4.75,6.89,-6.90,-6.94,-6.87,-2.15,-2.15,-2.14
215.69,4.74,6.90,4.74,6.90,-6.90,-6.95,-6.95,-2.16,-2.16,-2.16
217.85,4.74,6.93,4.72,6.92,-6.91,-6.95,-7.02,-2.17,-2.18,-2.19
220.03,4.69,6.92,4.69,6.91,-6.91,-6.96,-7.10,-2.22,-2.22,-2.23
222.23,4.65,6.90,4.66,6.91,-6.92,-6.96,-7.17,-2.27,-2.26,-2.25
224.45,4.63,6.90,4.64,6.91,-6.92,-6.96,-7.25,-2.29,-2.28,-2.27
226.70,4.63,6.92,4.63,6.92,-6.91,-6.96,-7.31,-2.28,-2.28,-2.29
228.96,4.64,6.94,4.62,6.93,-6.89,-6.96,-7.37,-2.25,-2.27,-2.30
231.25,4.58,6.90,4.59,6.91,-6.87,-6.96,-7.43,-2.29,-2.28,-2.32
233.57,4.54,6.87,4.52,6.86,-6.85,-6.95,-7.48,-2.31,-2.33,-2.33
235.90,4.44,6.79,4.45,6.80,-6.83,-6.94,-7.52,-2.39,-2.38,-2.35
238.26,4.39,6.75,4.41,6.76,-6.81,-6.93,-7.56,-2.42,-2.40,-2.36
240.64,4.40,6.75,4.39,6.75,-6.79,-6.92,-7.58,-2.39,-2.40,-2.35
243.05,4.41,6.77,4.41,6.77,-6.77,-6.91,-7.60,-2.36,-2.36,-2.36
245.48,4.43,6.78,4.43,6.79,-6.75,-6.89,-7.61,-2.32,-2.32,-2.35
247.93,4.44,6.80,4.42,6.77,-6.74,-6.87,-7.61,-2.29,-2.32,-2.36
250.41,4.39,6.74,4.39,6.74,-6.72,-6.85,-7.59,-2.33,-2.33,-2.35
252.92,4.33,6.68,4.35,6.71,-6.71,-6.83,-7.57,-2.38,-2.36,-2.35
255.45,4.31,6.67,4.31,6.66,-6.69,-6.80,-7.54,-2.38,-2.38,-2.36
258.00,4.29,6.66,4.27,6.64,-6.67,-6.77,-7.50,-2.38,-2.39,-2.37
260.58,4.23,6.61,4.25,6.63,-6.63,-6.75,-7.45,-2.40,-2.38,-2.38
263.19,4.22,6.60,4.23,6.61,-6.60,-6.71,-7.39,-2.38,-2.37,-2.38
265.82,4.22,6.61,4.19,6.58,-6.56,-6.68,-7.32,-2.34,-2.37,-2.39
268.48,4.14,6.54,4.15,6.55,-6.53,-6.65,-7.24,-2.38,-2.38,-2.40
271.16,4.08,6.50,4.08,6.50,-6.49,-6.61,-7.16,-2.41,-2.41,-2.42
273.87,4.01,6.43,4.00,6.43,-6.46,-6.57,-7.07,-2.45,-2.45,-2.42
276.61,3.94,6.38,3.96,6.40,-6.42,-6.53,-6.98,-2.48,-2.47,-2.44
279.38,3.91,6.36,3.92,6.37,-6.39,-6.49,-6.88,-2.47,-2.46,-2.45
282.17,3.91,6.36,3.89,6.34,-6.35,-6.44,-6.77,-2.44,-2.46,-2.45
284.99,3.87,6.32,3.88,6.33,-6.31,-6.39,-6.66,-2.44,-2.43,-2.45
287.84,3.82,6.27,3.84,6.30,-6.27,-6.35,-6.55,-2.45,-2.43,-2.45
290.72,3.83,6.29,3.78,6.24,-6.23,-6.30,-6.44,-2.40,-2.45,-2.46
293.63,3.70,6.17,3.73,6.19,-6.18,-6.25,-6.33,-2.48,-2.45,-2.47
296.57,3.65,6.11,3.69,6.15,-6.14,-6.19,-6.21,-2.49,-2.45,-2.46
299.53,3.68,6.13,3.62,6.08,-6.09,-6.14,-6.10,-2.41,-2.47,-2.45
302.53,3.57,6.03,3.57,6.03,-6.05,-6.08,-5.98,-2.48,-2.48,-2.46
305.55,3.48,5.94,3.53,5.98,-6.00,-6.03,-5.87,-2.52,-2.48,-2.46
308.61,3.49,5.94,3.47,5.93,-5.96,-5.97,-5.76,-2.47,-2.48,-2.45
311.69,3.48,5.94,3.46,5.92,-5.91,-5.91,-5.65,-2.43,-2.45,-2.46
314.81,3.42,5.88,3.45,5.91,-5.87,-5.85,-5.54,-2.45,-2.42,-2.46
317.96,3.42,5.88,3.40,5.86,-5.84,-5.79,-5.43,-2.41,-2.44,-2.46
321.14,3.36,5.83,3.32,5.79,-5.80,-5.73,-5.33,-2.43,-2.48,-2.47
324.35,3.20,5.67,3.26,5.72,-5.74,-5.66,-5.22,-2.54,-2.49,-2.47
327.59,3.18,5.64,3.19,5.66,-5.68,-5.60,-5.12,-2.50,-2.49,-2.46
330.87,3.19,5.65,3.17,5.63,-5.62,-5.54,-5.03,-2.43,-2.45,-2.46
334.18,3.13,5.61,3.14,5.60,-5.55,-5.47,-4.93,-2.42,-2.41,-2.48
337.52,3.08,5.55,3.04,5.51,-5.48,-5.40,-4.85,-2.39,-2.44,-2.47
340.90,2.91,5.37,2.92,5.38,-5.41,-5.34,-4.76,-2.50,-2.49,-2.46
344.30,2.79,5.24,2.84,5.30,-5.35,-5.27,-4.68,-2.56,-2.51,-2.45
347.75,2.78,5.24,2.79,5.24,-5.28,-5.20,-4.60,-2.50,-2.49,-2.45
351.23,2.80,5.26,2.76,5.21,-5.21,-5.14,-4.52,-2.41,-2.46,-2.46
354.74,2.73,5.17,2.71,5.16,-5.14,-5.07,-4.45,-2.41,-2.43,-2.44
358.28,2.62,5.06,2.68,5.11,-5.07,-5.00,-4.38,-2.45,-2.40,-2.44
361.87,2.60,5.03,2.61,5.04,-5.01,-4.93,-4.31,-2.41,-2.40,-2.43
365.49,2.61,5.03,2.53,4.95,-4.94,-4.86,-4.25,-2.33,-2.41,-2.42
369.14,2.41,4.83,2.45,4.87,-4.87,-4.79,-4.19,-2.46,-2.42,-2.42
372.83,2.34,4.75,2.37,4.79,-4.81,-4.72,-4.13,-2.47,-2.43,-2.41
376.56,2.32,4.74,2.31,4.72,-4.74,-4.65,-4.08,-2.42,-2.44,-2.42
380.33,2.28,4.69,2.26,4.67,-4.69,-4.58,-4.03,-2.41,-2.43,-2.41
384.13,2.21,4.62,2.19,4.60,-4.63,-4.52,-3.98,-2.42,-2.44,-2.41
387.97,2.09,4.49,2.17,4.57,-4.57,-4.45,-3.93,-2.48,-2.41,-2.40
391.85,2.13,4.53,2.15,4.56,-4.52,-4.38,-3.89,-2.39,-2.37,-2.40
395.77,2.20,4.62,2.09,4.50,-4.46,-4.31,-3.85,-2.26,-2.37,-2.42
399.73,2.00,4.43,2.01,4.43,-4.40,-4.24,-3.82,-2.40,-2.39,-2.43
403.72,1.83,4.25,1.93,4.35,-4.34,-4.17,-3.78,-2.51,-2.42,-2.42
407.76,1.84,4.27,1.81,4.24,-4.28,-4.10,-3.75,-2.44,-2.47,-2.43
411.84,1.82,4.26,1.72,4.16,-4.22,-4.03,-3.72,-2.40,-2.49,-2.44
415.96,1.61,4.05,1.69,4.13,-4.14,-3.97,-3.69,-2.53,-2.45,-2.44
420.12,1.56,4.01,1.66,4.10,-4.06,-3.90,-3.66,-2.50,-2.41,-2.45
424.32,1.72,4.16,1.60,4.04,-4.00,-3.83,-3.63,-2.28,-2.40,-2.44
428.56,1.59,4.01,1.53,3.96,-3.94,-3.76,-3.61,-2.35,-2.41,-2.42
432.85,1.35,3.76,1.46,3.86,-3.89,-3.70,-3.58,-2.54,-2.43,-2.40
437.18,1.34,3.73,1.37,3.76,-3.83,-3.63,-3.56,-2.49,-2.46,-2.39
441.55,1.43,3.79,1.37,3.73,-3.76,-3.56,-3.54,-2.33,-2.39,-2.36
445.96,1.41,3.73,1.42,3.73,-3.68,-3.50,-3.51,-2.27,-2.27,-2.32
450.42,1.40,3.67,1.42,3.69,-3.61,-3.43,-3.49,-2.21,-2.19,-2.27
454.93,1.40,3.62,1.36,3.58,-3.54,-3.37,-3.46,-2.14,-2.18,-2.22
459.48,1.31,3.48,1.31,3.47,-3.48,-3.31,-3.44,-2.17,-2.17,-2.17
464.07,1.23,3.33,1.27,3.37,-3.42,-3.24,-3.41,-2.19,-2.16,-2.10
468.71,1.25,3.29,1.26,3.30,-3.36,-3.18,-3.39,-2.11,-2.11,-2.04
473.40,1.30,3.29,1.29,3.28,-3.30,-3.12,-3.36,-2.00,-2.01,-1.99
478.13,1.33,3.26,1.32,3.25,-3.23,-3.05,-3.33,-1.90,-1.91,-1.93
482.91,1.34,3.22,1.33,3.21,-3.18,-2.99,-3.29,-1.84,-1.84,-1.88
487.74,1.30,3.13,1.32,3.15,-3.12,-2.93,-3.26,-1.82,-1.80,-1.83
492.62,1.30,3.09,1.29,3.08,-3.06,-2.87,-3.22,-1.76,-1.77,-1.79
497.55,1.25,3.01,1.25,3.00,-3.00,-2.81,-3.19,-1.75,-1.76,-1.76
502.52,1.19,2.92,1.20,2.93,-2.94,-2.75,-3.15,-1.75,-1.74,-1.73
507.55,1.14,2.84,1.14,2.85,-2.87,-2.69,-3.10,-1.73,-1.73,-1.70
