frequency,raw,error,smoothed,error_smoothed,equalization,parametric_eq,fixed_band_eq,equalized_raw,equalized_smoothed,target
20.00,-0.13,-4.03,-0.13,-4.03,4.01,3.92,0.97,3.88,3.88,3.90
20.20,-0.07,-4.01,-0.06,-4.01,4.00,3.88,1.00,3.93,3.94,3.94
20.40,-0.01,-3.99,-0.00,-3.98,3.99,3.83,1.03,3.98,3.98,3.98
20.61,0.05,-3.95,0.06,-3.95,3.97,3.78,1.07,4.02,4.02,4.00
20.81,0.11,-3.93,0.12,-3.93,3.94,3.73,1.10,4.06,4.06,4.04
21.02,0.17,-3.91,0.17,-3.90,3.91,3.68,1.13,4.09,4.09,4.08
21.23,0.22,-3.87,0.22,-3.87,3.88,3.63,1.17,4.10,4.10,4.09
21.44,0.26,-3.84,0.27,-3.84,3.84,3.58,1.21,4.11,4.11,4.11
21.66,0.30,-3.81,0.31,-3.81,3.80,3.54,1.24,4.11,4.11,4.12
21.87,0.36,-3.76,0.35,-3.77,3.75,3.49,1.28,4.11,4.11,4.12
22.09,0.41,-3.72,0.41,-3.72,3.70,3.44,1.32,4.10,4.11,4.13
22.31,0.48,-3.65,0.47,-3.65,3.64,3.39,1.36,4.12,4.12,4.13
22.54,0.54,-3.58,0.55,-3.58,3.58,3.34,1.40,4.12,4.13,4.13
22.76,0.61,-3.50,0.61,-3.50,3.52,3.30,1.45,4.13,4.13,4.12
22.99,0.68,-3.42,0.68,-3.43,3.46,3.25,1.49,4.14,4.13,4.11
23.22,0.72,-3.38,0.73,-3.37,3.39,3.20,1.54,4.12,4.12,4.11
23.45,0.77,-3.32,0.77,-3.32,3.33,3.15,1.58,4.11,4.11,4.10
23.69,0.81,-3.28,0.81,-3.28,3.27,3.10,1.63,4.09,4.09,4.09
23.92,0.87,-3.23,0.87,-3.23,3.21,3.06,1.68,4.08,4.08,4.09
24.16,0.93,-3.18,0.93,-3.17,3.15,3.01,1.73,4.07,4.08,4.10
24.40,1.01,-3.10,1.00,-3.10,3.09,2.96,1.77,4.09,4.09,4.10
24.65,1.07,-3.02,1.08,-3.02,3.02,2.92,1.82,4.10,4.10,4.09
24.89,1.16,-2.94,1.15,-2.94,2.96,2.87,1.87,4.11,4.11,4.09
25.14,1.22,-2.88,1.21,-2.88,2.89,2.82,1.92,4.11,4.10,4.09
25.39,1.27,-2.83,1.27,-2.82,2.82,2.77,1.97,4.09,4.09,4.09
25.65,1.31,-2.77,1.31,-2.77,2.76,2.73,2.02,4.07,4.08,4.08
25.91,1.36,-2.71,1.36,-2.71,2.70,2.68,2.07,4.06,4.07,4.07
26.16,1.42,-2.65,1.42,-2.65,2.65,2.63,2.12,4.06,4.06,4.07
26.43,1.47,-2.59,1.47,-2.59,2.60,2.59,2.17,4.07,4.07,4.07
26.69,1.52,-2.54,1.52,-2.54,2.55,2.54,2.22,4.07,4.07,4.07
26.96,1.57,-2.48,1.57,-2.49,2.50,2.50,2.27,4.08,4.07,4.06
27.23,1.60,-2.45,1.61,-2.45,2.46,2.45,2.31,4.06,4.07,4.06
27.50,1.63,-2.42,1.63,-2.42,2.42,2.41,2.35,4.05,4.05,4.05
27.77,1.66,-2.38,1.66,-2.38,2.37,2.36,2.39,4.03,4.03,4.04
28.05,1.69,-2.35,1.70,-2.34,2.32,2.31,2.43,4.02,4.02,4.04
28.33,1.75,-2.28,1.75,-2.28,2.27,2.27,2.47,4.03,4.02,4.03
28.62,1.80,-2.23,1.80,-2.23,2.22,2.22,2.50,4.02,4.02,4.03
28.90,1.86,-2.17,1.86,-2.17,2.16,2.18,2.53,4.03,4.03,4.03
29.19,1.92,-2.10,1.93,-2.11,2.11,2.14,2.55,4.04,4.04,4.03
29.48,1.98,-2.05,1.99,-2.05,2.06,2.09,2.57,4.05,4.05,4.04
29.78,2.04,-1.98,2.04,-1.99,2.02,2.05,2.59,4.06,4.06,4.03
30.08,2.08,-1.95,2.08,-1.95,1.97,2.00,2.60,4.06,4.05,4.04
30.38,2.09,-1.92,2.09,-1.93,1.93,1.96,2.61,4.02,4.02,4.01
30.68,2.10,-1.91,2.10,-1.91,1.89,1.92,2.61,3.99,3.99,4.01
30.99,2.11,-1.89,2.13,-1.88,1.85,1.87,2.61,3.96,3.97,4.00
31.30,2.17,-1.83,2.17,-1.83,1.80,1.83,2.60,3.98,3.98,4.00
31.61,2.23,-1.76,2.23,-1.76,1.76,1.79,2.59,4.00,4.00,4.00
31.93,2.30,-1.67,2.29,-1.69,1.72,1.74,2.57,4.02,4.01,3.98
32.24,2.33,-1.63,2.33,-1.64,1.66,1.70,2.55,4.00,3.99,3.97
32.57,2.35,-1.61,2.36,-1.60,1.60,1.66,2.52,3.96,3.96,3.96
32.89,2.37,-1.58,2.38,-1.57,1.54,1.61,2.49,3.92,3.93,3.95
33.22,2.42,-1.51,2.43,-1.51,1.48,1.57,2.46,3.91,3.91,3.93
33.55,2.50,-1.43,2.49,-1.43,1.42,1.53,2.42,3.92,3.92,3.93
33.89,2.56,-1.34,2.56,-1.35,1.37,1.49,2.37,3.93,3.92,3.91
34.23,2.61,-1.29,2.61,-1.29,1.31,1.45,2.32,3.92,3.92,3.91
34.57,2.64,-1.24,2.65,-1.24,1.25,1.41,2.27,3.90,3.90,3.88
34.92,2.68,-1.19,2.68,-1.19,1.19,1.36,2.22,3.88,3.88,3.87
35.27,2.71,-1.15,2.72,-1.14,1.14,1.32,2.16,3.85,3.86,3.87
35.62,2.75,-1.09,2.75,-1.10,1.09,1.28,2.10,3.85,3.84,3.85
35.97,2.78,-1.05,2.79,-1.05,1.05,1.24,2.03,3.83,3.83,3.83
36.33,2.82,-1.01,2.83,-1.00,1.00,1.20,1.97,3.83,3.83,3.83
36.70,2.86,-0.96,2.86,-0.96,0.96,1.16,1.90,3.82,3.82,3.82
37.06,2.90,-0.90,2.90,-0.91,0.91,1.12,1.83,3.82,3.81,3.81
37.43,2.93,-0.88,2.94,-0.87,0.87,1.08,1.76,3.80,3.81,3.81
37.81,2.97,-0.83,2.97,-0.83,0.82,1.04,1.69,3.80,3.80,3.80
38.19,3.01,-0.77,3.01,-0.78,0.78,1.00,1.62,3.79,3.79,3.79
38.57,3.05,-0.74,3.05,-0.74,0.74,0.96,1.55,3.79,3.79,3.80
38.95,3.09,-0.69,3.09,-0.69,0.69,0.92,1.48,3.79,3.79,3.78
39.34,3.12,-0.65,3.13,-0.65,0.65,0.88,1.41,3.77,3.77,3.78
39.74,3.16,-0.60,3.16,-0.60,0.60,0.84,1.33,3.76,3.76,3.77
40.14,3.20,-0.56,3.20,-0.56,0.55,0.80,1.26,3.76,3.75,3.76
40.54,3.24,-0.51,3.24,-0.51,0.51,0.76,1.19,3.75,3.75,3.76
40.94,3.28,-0.47,3.29,-0.46,0.47,0.72,1.12,3.75,3.76,3.75
41.35,3.33,-0.41,3.33,-0.41,0.43,0.69,1.04,3.76,3.76,3.74
41.76,3.37,-0.35,3.37,-0.36,0.38,0.65,0.97,3.76,3.75,3.73
42.18,3.39,-0.33,3.38,-0.34,0.34,0.61,0.90,3.73,3.72,3.72
42.60,3.39,-0.31,3.39,-0.32,0.29,0.57,0.83,3.69,3.69,3.71
43.03,3.39,-0.31,3.42,-0.28,0.24,0.53,0.76,3.64,3.66,3.70
43.46,3.46,-0.21,3.46,-0.22,0.20,0.49,0.69,3.66,3.66,3.68
43.90,3.52,-0.13,3.51,-0.14,0.15,0.45,0.62,3.68,3.67,3.65
44.33,3.56,-0.07,3.56,-0.07,0.11,0.41,0.55,3.67,3.67,3.64
44.78,3.58,-0.03,3.58,-0.03,0.06,0.37,0.48,3.64,3.64,3.61
45.23,3.59,-0.00,3.59,-0.01,0.01,0.34,0.42,3.60,3.60,3.60
45.68,3.59,0.01,3.60,0.02,-0.03,0.30,0.35,3.56,3.57,3.58
46.13,3.60,0.04,3.62,0.05,-0.06,0.26,0.28,3.55,3.57,3.57
46.60,3.66,0.10,3.66,0.10,-0.08,0.22,0.22,3.58,3.57,3.56
47.06,3.70,0.15,3.69,0.13,-0.10,0.18,0.15,3.60,3.58,3.56
47.53,3.69,0.15,3.70,0.15,-0.13,0.14,0.09,3.56,3.57,3.55
48.01,3.69,0.15,3.68,0.15,-0.17,0.10,0.02,3.52,3.51,3.54
48.49,3.68,0.16,3.68,0.15,-0.21,0.06,-0.04,3.47,3.46,3.53
48.97,3.67,0.17,3.72,0.21,-0.25,0.02,-0.10,3.42,3.47,3.51
49.46,3.78,0.28,3.79,0.29,-0.29,-0.02,-0.17,3.50,3.50,3.50
49.96,3.90,0.42,3.86,0.37,-0.32,-0.06,-0.23,3.58,3.53,3.48
50.46,3.90,0.41,3.91,0.42,-0.36,-0.10,-0.29,3.54,3.55,3.50
50.96,3.89,0.41,3.91,0.42,-0.40,-0.14,-0.35,3.50,3.51,3.49
51.47,3.89,0.42,3.89,0.41,-0.44,-0.18,-0.41,3.46,3.46,3.48
51.99,3.89,0.42,3.91,0.43,-0.47,-0.22,-0.47,3.43,3.44,3.47
52.51,3.93,0.46,3.93,0.46,-0.49,-0.26,-0.53,3.45,3.45,3.47
53.03,3.97,0.50,3.97,0.50,-0.50,-0.30,-0.59,3.47,3.46,3.47
53.56,3.99,0.53,3.99,0.53,-0.52,-0.34,-0.65,3.48,3.48,3.46
54.10,4.00,0.55,4.00,0.54,-0.53,-0.38,-0.71,3.48,3.47,3.45
54.64,3.99,0.54,4.00,0.55,-0.54,-0.43,-0.76,3.45,3.46,3.45
55.18,3.99,0.55,4.00,0.56,-0.56,-0.47,-0.82,3.44,3.44,3.44
55.74,3.99,0.56,3.98,0.55,-0.56,-0.51,-0.88,3.43,3.42,3.43
56.29,3.97,0.55,3.96,0.54,-0.56,-0.56,-0.93,3.42,3.41,3.43
56.86,3.92,0.52,3.95,0.54,-0.54,-0.60,-0.98,3.38,3.40,3.41
57.42,3.92,0.53,3.93,0.54,-0.52,-0.64,-1.03,3.40,3.41,3.39
58.00,3.93,0.55,3.92,0.54,-0.50,-0.69,-1.08,3.44,3.42,3.38
58.58,3.88,0.52,3.87,0.50,-0.47,-0.73,-1.13,3.41,3.40,3.37
59.16,3.81,0.46,3.79,0.44,-0.45,-0.78,-1.18,3.36,3.34,3.35
59.76,3.69,0.35,3.72,0.39,-0.43,-0.82,-1.23,3.26,3.30,3.33
60.35,3.65,0.35,3.68,0.37,-0.41,-0.87,-1.27,3.25,3.27,3.31
60.96,3.69,0.41,3.65,0.38,-0.39,-0.92,-1.32,3.30,3.26,3.28
61.57,3.63,0.40,3.63,0.39,-0.38,-0.97,-1.36,3.26,3.25,3.24
62.18,3.57,0.37,3.58,0.38,-0.37,-1.01,-1.40,3.21,3.21,3.20
62.80,3.52,0.36,3.54,0.38,-0.36,-1.06,-1.44,3.16,3.18,3.17
63.43,3.51,0.39,3.52,0.39,-0.36,-1.11,-1.48,3.15,3.16,3.13
64.07,3.52,0.43,3.49,0.39,-0.37,-1.16,-1.52,3.16,3.12,3.09
64.71,3.43,0.38,3.44,0.39,-0.37,-1.21,-1.56,3.06,3.07,3.05
65.35,3.38,0.36,3.40,0.37,-0.39,-1.26,-1.59,2.99,3.00,3.03
66.01,3.36,0.38,3.37,0.38,-0.43,-1.31,-1.63,2.94,2.94,2.99
66.67,3.39,0.45,3.40,0.45,-0.48,-1.37,-1.66,2.91,2.92,2.95
67.33,3.45,0.54,3.45,0.53,-0.55,-1.42,-1.69,2.90,2.90,2.92
68.01,3.52,0.65,3.51,0.63,-0.64,-1.47,-1.73,2.89,2.87,2.88
68.69,3.57,0.74,3.59,0.75,-0.73,-1.53,-1.76,2.84,2.86,2.84
69.37,3.66,0.86,3.67,0.87,-0.84,-1.58,-1.79,2.81,2.83,2.80
70.07,3.77,1.02,3.75,0.99,-0.96,-1.64,-1.82,2.81,2.79,2.76
70.77,3.82,1.10,3.83,1.11,-1.09,-1.69,-1.85,2.73,2.73,2.72
71.48,3.88,1.20,3.89,1.21,-1.22,-1.75,-1.89,2.66,2.66,2.68
72.19,3.95,1.32,3.95,1.32,-1.36,-1.81,-1.92,2.60,2.59,2.64
72.91,4.03,1.44,4.05,1.46,-1.49,-1.87,-1.95,2.53,2.56,2.58
73.64,4.17,1.64,4.17,1.63,-1.63,-1.93,-1.98,2.55,2.55,2.54
74.38,4.30,1.81,4.29,1.80,-1.76,-1.99,-2.02,2.54,2.52,2.49
75.12,4.40,1.96,4.39,1.94,-1.90,-2.05,-2.05,2.50,2.48,2.45
75.87,4.44,2.03,4.46,2.05,-2.05,-2.11,-2.09,2.40,2.42,2.41
76.63,4.53,2.16,4.54,2.16,-2.19,-2.17,-2.13,2.35,2.35,2.37
77.40,4.62,2.29,4.63,2.29,-2.32,-2.23,-2.16,2.30,2.30,2.34
78.17,4.73,2.44,4.75,2.45,-2.45,-2.29,-2.20,2.29,2.30,2.30
78.95,4.87,2.59,4.86,2.59,-2.57,-2.36,-2.24,2.30,2.29,2.27
79.74,4.97,2.73,4.95,2.71,-2.69,-2.42,-2.29,2.29,2.26,2.24
80.54,5.01,2.80,5.03,2.82,-2.80,-2.48,-2.33,2.21,2.23,2.21
81.35,5.07,2.89,5.10,2.92,-2.92,-2.55,-2.38,2.16,2.18,2.18
82.16,5.19,3.04,5.17,3.02,-3.03,-2.62,-2.42,2.16,2.14,2.15
82.98,5.25,3.12,5.25,3.12,-3.13,-2.68,-2.47,2.12,2.11,2.13
83.81,5.30,3.22,5.31,3.22,-3.23,-2.75,-2.52,2.07,2.08,2.09
84.65,5.37,3.32,5.38,3.32,-3.33,-2.81,-2.58,2.05,2.05,2.06
85.50,5.45,3.42,5.46,3.43,-3.42,-2.88,-2.63,2.03,2.04,2.03
86.35,5.54,3.54,5.53,3.54,-3.52,-2.95,-2.69,2.03,2.02,2.00
87.22,5.60,3.64,5.58,3.61,-3.61,-3.02,-2.75,1.99,1.97,1.97
88.09,5.60,3.67,5.62,3.69,-3.70,-3.09,-2.81,1.91,1.92,1.93
88.97,5.63,3.73,5.67,3.77,-3.78,-3.15,-2.87,1.85,1.89,1.91
89.86,5.76,3.89,5.73,3.86,-3.86,-3.22,-2.94,1.90,1.87,1.87
90.76,5.80,3.97,5.79,3.95,-3.94,-3.29,-3.01,1.87,1.85,1.84
91.66,5.81,4.00,5.83,4.02,-4.00,-3.36,-3.08,1.81,1.82,1.81
92.58,5.83,4.06,5.85,4.07,-4.07,-3.43,-3.15,1.77,1.78,1.78
93.51,5.88,4.13,5.88,4.13,-4.13,-3.50,-3.22,1.76,1.75,1.75
94.44,5.91,4.19,5.90,4.18,-4.18,-3.57,-3.30,1.74,1.72,1.72
95.39,5.91,4.22,5.91,4.22,-4.23,-3.64,-3.38,1.69,1.69,1.70
96.34,5.91,4.26,5.91,4.25,-4.27,-3.71,-3.46,1.65,1.65,1.66
97.30,5.91,4.28,5.93,4.30,-4.31,-3.78,-3.54,1.61,1.62,1.63
98.28,5.94,4.34,5.95,4.34,-4.34,-3.85,-3.62,1.60,1.61,1.60
99.26,5.98,4.40,5.96,4.38,-4.37,-3.92,-3.71,1.61,1.59,1.59
100.25,5.96,4.41,5.97,4.41,-4.40,-3.99,-3.79,1.57,1.57,1.56
101.25,5.94,4.41,5.95,4.43,-4.42,-4.06,-3.88,1.53,1.54,1.53
102.27,5.93,4.43,5.94,4.44,-4.44,-4.12,-3.97,1.50,1.50,1.50
103.29,5.92,4.47,5.92,4.46,-4.45,-4.19,-4.06,1.47,1.47,1.45
104.32,5.90,4.47,5.90,4.47,-4.47,-4.26,-4.15,1.43,1.43,1.43
105.37,5.87,4.48,5.87,4.48,-4.49,-4.33,-4.24,1.38,1.38,1.40
106.42,5.85,4.49,5.85,4.49,-4.51,-4.39,-4.33,1.34,1.34,1.37
107.48,5.83,4.50,5.85,4.52,-4.54,-4.46,-4.41,1.30,1.31,1.33
108.56,5.86,4.57,5.86,4.57,-4.56,-4.52,-4.50,1.30,1.30,1.29
109.64,5.88,4.63,5.87,4.61,-4.59,-4.59,-4.59,1.29,1.27,1.25
110.74,5.86,4.64,5.87,4.64,-4.62,-4.65,-4.67,1.24,1.24,1.23
111.85,5.84,4.65,5.85,4.66,-4.65,-4.72,-4.75,1.19,1.20,1.20
112.97,5.83,4.68,5.84,4.68,-4.69,-4.78,-4.83,1.15,1.15,1.15
114.10,5.83,4.70,5.83,4.71,-4.72,-4.84,-4.91,1.12,1.12,1.13
115.24,5.83,4.74,5.83,4.74,-4.74,-4.90,-4.98,1.09,1.09,1.09
116.39,5.83,4.77,5.83,4.77,-4.77,-4.96,-5.05,1.07,1.07,1.07
117.55,5.83,4.79,5.84,4.80,-4.79,-5.02,-5.11,1.04,1.05,1.04
118.73,5.84,4.83,5.84,4.82,-4.82,-5.08,-5.17,1.03,1.02,1.01
119.92,5.84,4.84,5.85,4.85,-4.85,-5.14,-5.22,1.00,1.00,1.01
121.12,5.85,4.87,5.86,4.87,-4.87,-5.20,-5.27,0.98,0.98,0.98
122.33,5.86,4.90,5.86,4.89,-4.89,-5.25,-5.31,0.97,0.97,0.97
123.55,5.87,4.91,5.87,4.92,-4.92,-5.30,-5.35,0.96,0.96,0.96
124.79,5.87,4.94,5.88,4.94,-4.93,-5.36,-5.37,0.94,0.94,0.94
126.03,5.88,4.96,5.89,4.96,-4.96,-5.41,-5.40,0.93,0.93,0.92
127.29,5.89,4.98,5.88,4.98,-4.98,-5.46,-5.42,0.92,0.90,0.91
128.57,5.88,5.00,5.88,4.99,-5.00,-5.51,-5.43,0.89,0.88,0.89
129.85,5.85,4.98,5.88,5.01,-5.02,-5.55,-5.44,0.83,0.86,0.87
131.15,5.90,5.04,5.89,5.03,-5.04,-5.60,-5.44,0.86,0.85,0.86
132.46,5.91,5.07,5.91,5.06,-5.05,-5.65,-5.44,0.86,0.85,0.85
133.79,5.91,5.07,5.93,5.09,-5.07,-5.69,-5.43,0.85,0.86,0.85
135.12,5.92,5.11,5.92,5.09,-5.08,-5.73,-5.42,0.85,0.84,0.82
136.48,5.92,5.11,5.91,5.10,-5.09,-5.77,-5.40,0.84,0.82,0.82
137.84,5.87,5.08,5.88,5.09,-5.09,-5.81,-5.38,0.78,0.79,0.80
139.22,5.84,5.08,5.85,5.08,-5.09,-5.85,-5.36,0.76,0.76,0.77
140.61,5.82,5.08,5.83,5.08,-5.08,-5.89,-5.34,0.74,0.75,0.75
142.02,5.83,5.08,5.83,5.09,-5.07,-5.92,-5.31,0.76,0.76,0.75
143.44,5.83,5.10,5.82,5.09,-5.06,-5.95,-5.28,0.77,0.76,0.73
144.87,5.80,5.10,5.79,5.08,-5.07,-5.99,-5.26,0.74,0.73,0.71
146.32,5.74,5.06,5.76,5.07,-5.09,-6.02,-5.23,0.66,0.67,0.68
147.78,5.72,5.07,5.73,5.08,-5.12,-6.05,-5.20,0.61,0.61,0.65
149.26,5.72,5.11,5.73,5.12,-5.17,-6.07,-5.17,0.56,0.56,0.62
150.75,5.76,5.20,5.76,5.19,-5.23,-6.10,-5.14,0.53,0.53,0.56
152.26,5.81,5.29,5.81,5.29,-5.30,-6.12,-5.12,0.51,0.50,0.52
153.78,5.85,5.39,5.86,5.40,-5.38,-6.15,-5.09,0.47,0.48,0.47
155.32,5.90,5.50,5.90,5.50,-5.46,-6.17,-5.07,0.44,0.44,0.40
156.88,5.93,5.58,5.93,5.59,-5.53,-6.19,-5.05,0.40,0.40,0.35
158.44,5.93,5.66,5.93,5.64,-5.60,-6.21,-5.03,0.34,0.33,0.28
160.03,5.90,5.69,5.90,5.68,-5.65,-6.22,-5.02,0.25,0.24,0.22
161.63,5.84,5.68,5.86,5.70,-5.70,-6.24,-5.00,0.14,0.16,0.17
163.24,5.82,5.72,5.83,5.71,-5.75,-6.25,-4.99,0.07,0.08,0.11
164.88,5.82,5.75,5.82,5.75,-5.80,-6.26,-4.99,0.02,0.02,0.08
166.53,5.84,5.81,5.85,5.81,-5.86,-6.28,-4.98,-0.02,-0.01,0.04
168.19,5.89,5.89,5.90,5.89,-5.92,-6.29,-4.99,-0.02,-0.02,0.01
169.87,5.95,5.97,5.97,5.99,-5.98,-6.29,-4.99,-0.02,-0.01,-0.02
171.57,6.05,6.09,6.03,6.07,-6.03,-6.30,-5.00,0.03,0.01,-0.04
173.29,6.08,6.13,6.08,6.12,-6.07,-6.31,-5.01,0.02,0.01,-0.04
175.02,6.09,6.15,6.10,6.16,-6.10,-6.31,-5.03,-0.00,0.01,-0.05
176.77,6.08,6.14,6.09,6.15,-6.11,-6.31,-5.05,-0.03,-0.02,-0.06
178.54,6.08,6.15,6.06,6.12,-6.12,-6.31,-5.07,-0.04,-0.06,-0.06
180.32,6.02,6.07,6.03,6.08,-6.13,-6.31,-5.10,-0.10,-0.10,-0.05
182.13,5.99,6.04,6.02,6.07,-6.13,-6.31,-5.13,-0.13,-0.11,-0.04
183.95,6.03,6.08,6.04,6.09,-6.14,-6.31,-5.16,-0.10,-0.09,-0.05
185.79,6.10,6.16,6.09,6.14,-6.15,-6.31,-5.20,-0.04,-0.06,-0.05
187.65,6.13,6.20,6.13,6.19,-6.17,-6.30,-5.24,-0.03,-0.04,-0.07
189.52,6.14,6.21,6.15,6.22,-6.19,-6.29,-5.29,-0.05,-0.04,-0.07
191.42,6.15,6.24,6.16,6.24,-6.22,-6.29,-5.34,-0.07,-0.06,-0.08
193.33,6.17,6.27,6.16,6.25,-6.25,-6.28,-5.39,-0.07,-0.09,-0.09
195.27,6.14,6.25,6.14,6.25,-6.26,-6.27,-5.45,-0.12,-0.12,-0.11
197.22,6.11,6.24,6.13,6.26,-6.26,-6.26,-5.51,-0.14,-0.13,-0.13
199.19,6.11,6.26,6.12,6.26,-6.25,-6.25,-5.57,-0.13,-0.13,-0.15
201.18,6.11,6.27,6.10,6.26,-6.24,-6.23,-5.63,-0.12,-0.14,-0.16
203.19,6.06,6.23,6.06,6.23,-6.22,-6.22,-5.70,-0.16,-0.16,-0.17
205.23,6.00,6.20,6.01,6.20,-6.21,-6.21,-5.77,-0.21,-0.21,-0.20
207.28,5.94,6.14,5.96,6.16,-6.20,-6.19,-5.83,-0.26,-0.24,-0.20
209.35,5.92,6.15,5.93,6.16,-6.18,-6.17,-5.90,-0.26,-0.26,-0.23
211.44,5.92,6.17,5.93,6.17,-6.17,-6.16,-5.97,-0.24,-0.24,-0.25
213.56,5.92,6.18,5.92,6.17,-6.15,-6.14,-6.04,-0.23,-0.23,-0.26
215.69,5.91,6.18,5.88,6.15,-6.13,-6.12,-6.11,-0.22,-0.25,-0.27
217.85,5.81,6.09,5.85,6.13,-6.11,-6.10,-6.18,-0.30,-0.26,-0.27
220.03,5.79,6.09,5.81,6.10,-6.10,-6.08,-6.25,-0.30,-0.29,-0.29
222.23,5.80,6.10,5.76,6.05,-6.07,-6.06,-6.32,-0.27,-0.31,-0.30
224.45,5.71,6.00,5.74,6.03,-6.03,-6.04,-6.38,-0.32,-0.30,-0.29
226.70,5.67,5.96,5.71,5.99,-5.99,-6.02,-6.44,-0.32,-0.28,-0.28
228.96,5.71,5.99,5.68,5.96,-5.95,-5.99,-6.49,-0.23,-0.27,-0.28
231.25,5.65,5.92,5.65,5.92,-5.90,-5.97,-6.54,-0.25,-0.25,-0.27
233.57,5.61,5.87,5.62,5.87,-5.86,-5.95,-6.58,-0.24,-0.24,-0.25
235.90,5.54,5.78,5.57,5.81,-5.81,-5.92,-6.62,-0.27,-0.24,-0.24
238.26,5.55,5.77,5.53,5.74,-5.76,-5.90,-6.65,-0.21,-0.24,-0.22
240.64,5.50,5.70,5.52,5.71,-5.72,-5.87,-6.67,-0.21,-0.20,-0.19
243.05,5.48,5.64,5.51,5.67,-5.67,-5.84,-6.69,-0.19,-0.16,-0.16
245.48,5.54,5.68,5.50,5.63,-5.63,-5.82,-6.70,-0.09,-0.13,-0.13
247.93,5.48,5.59,5.49,5.60,-5.60,-5.79,-6.70,-0.11,-0.10,-0.11
250.41,5.46,5.56,5.48,5.56,-5.57,-5.76,-6.69,-0.10,-0.09,-0.09
252.92,5.46,5.52,5.46,5.52,-5.54,-5.74,-6.67,-0.08,-0.08,-0.06
255.45,5.47,5.51,5.47,5.51,-5.53,-5.71,-6.64,-0.05,-0.05,-0.03
258.00,5.48,5.50,5.48,5.50,-5.51,-5.68,-6.61,-0.02,-0.02,-0.02
260.58,5.49,5.50,5.49,5.49,-5.49,-5.65,-6.57,0.01,0.00,-0.00
263.19,5.49,5.47,5.49,5.47,-5.47,-5.63,-6.52,0.03,0.03,0.02
265.82,5.49,5.45,5.49,5.45,-5.44,-5.60,-6.46,0.05,0.05,0.04
268.48,5.48,5.42,5.50,5.43,-5.41,-5.57,-6.40,0.08,0.09,0.07
271.16,5.48,5.39,5.48,5.40,-5.36,-5.54,-6.33,0.12,0.12,0.09
273.87,5.48,5.38,5.44,5.33,-5.32,-5.51,-6.25,0.17,0.12,0.11
276.61,5.37,5.24,5.40,5.27,-5.27,-5.48,-6.17,0.11,0.13,0.13
279.38,5.33,5.17,5.37,5.21,-5.22,-5.46,-6.09,0.12,0.15,0.16
282.17,5.37,5.20,5.34,5.16,-5.18,-5.43,-6.00,0.19,0.16,0.18
284.99,5.35,5.14,5.33,5.12,-5.15,-5.40,-5.91,0.20,0.18,0.21
287.84,5.33,5.09,5.36,5.11,-5.13,-5.37,-5.81,0.20,0.23,0.24
290.72,5.34,5.07,5.39,5.11,-5.13,-5.34,-5.72,0.22,0.26,0.28
293.63,5.49,5.19,5.43,5.12,-5.13,-5.32,-5.62,0.36,0.30,0.31
296.57,5.49,5.15,5.50,5.16,-5.14,-5.29,-5.52,0.35,0.35,0.34
299.53,5.50,5.14,5.56,5.19,-5.16,-5.26,-5.42,0.34,0.39,0.36
302.53,5.63,5.25,5.58,5.19,-5.19,-5.23,-5.32,0.45,0.39,0.39
305.55,5.64,5.22,5.64,5.23,-5.22,-5.21,-5.23,0.43,0.43,0.43
308.61,5.65,5.21,5.70,5.26,-5.25,-5.18,-5.13,0.40,0.45,0.44
311.69,5.77,5.31,5.73,5.26,-5.29,-5.16,-5.04,0.49,0.44,0.46
314.81,5.78,5.29,5.78,5.29,-5.32,-5.13,-4.94,0.46,0.46,0.50
317.96,5.80,5.30,5.86,5.35,-5.35,-5.11,-4.85,0.45,0.50,0.51
321.14,5.94,5.42,5.92,5.39,-5.39,-5.08,-4.76,0.56,0.53,0.52
324.35,5.99,5.46,5.97,5.44,-5.41,-5.06,-4.68,0.58,0.56,0.53
327.59,5.99,5.44,6.00,5.45,-5.43,-5.04,-4.59,0.57,0.57,0.55
330.87,5.98,5.43,5.99,5.43,-5.43,-5.01,-4.51,0.55,0.56,0.56
334.18,5.98,5.42,5.99,5.42,-5.42,-4.99,-4.43,0.56,0.57,0.57
337.52,5.98,5.41,5.99,5.41,-5.39,-4.97,-4.36,0.59,0.60,0.58
340.90,5.98,5.39,5.97,5.38,-5.36,-4.95,-4.28,0.62,0.61,0.59
344.30,5.93,5.33,5.92,5.31,-5.32,-4.93,-4.21,0.62,0.60,0.60
347.75,5.83,5.22,5.86,5.25,-5.26,-4.91,-4.15,0.57,0.59,0.61
351.23,5.78,5.16,5.80,5.19,-5.20,-4.89,-4.08,0.58,0.60,0.62
354.74,5.78,5.17,5.77,5.15,-5.15,-4.87,-4.02,0.64,0.62,0.62
358.28,5.74,5.12,5.74,5.11,-5.09,-4.85,-3.96,0.66,0.65,0.63
361.87,5.69,5.07,5.69,5.06,-5.04,-4.84,-3.91,0.66,0.65,0.63
365.49,5.61,4.98,5.61,4.98,-5.00,-4.82,-3.86,0.61,0.61,0.63
369.14,5.55,4.92,5.55,4.92,-4.97,-4.80,-3.81,0.59,0.58,0.63
372.83,5.50,4.87,5.54,4.91,-4.95,-4.79,-3.76,0.56,0.60,0.63
376.56,5.54,4.91,5.55,4.91,-4.93,-4.77,-3.72,0.61,0.62,0.63
380.33,5.62,4.97,5.56,4.92,-4.91,-4.75,-3.68,0.71,0.65,0.65
384.13,5.52,4.89,5.56,4.92,-4.89,-4.74,-3.64,0.64,0.67,0.64
387.97,5.51,4.88,5.54,4.90,-4.86,-4.72,-3.61,0.66,0.68,0.64
391.85,5.52,4.89,5.49,4.85,-4.83,-4.70,-3.58,0.70,0.67,0.64
395.77,5.46,4.82,5.47,4.83,-4.79,-4.69,-3.55,0.67,0.68,0.65
399.73,5.39,4.75,5.40,4.76,-4.75,-4.67,-3.52,0.65,0.65,0.64
403.72,5.33,4.70,5.30,4.66,-4.71,-4.65,-3.49,0.63,0.59,0.63
407.76,5.20,4.57,5.24,4.60,-4.66,-4.63,-3.47,0.54,0.58,0.63
411.84,5.17,4.53,5.23,4.59,-4.62,-4.61,-3.45,0.55,0.61,0.64
415.96,5.27,4.64,5.22,4.59,-4.59,-4.58,-3.43,0.68,0.63,0.63
420.12,5.26,4.63,5.22,4.59,-4.57,-4.56,-3.41,0.70,0.66,0.63
424.32,5.15,4.51,5.20,4.57,-4.54,-4.53,-3.39,0.61,0.66,0.64
428.56,5.14,4.50,5.15,4.51,-4.51,-4.50,-3.37,0.63,0.64,0.64
432.85,5.16,4.51,5.13,4.47,-4.47,-4.46,-3.36,0.69,0.65,0.66
437.18,5.10,4.43,5.14,4.46,-4.43,-4.43,-3.34,0.68,0.71,0.68
441.55,5.11,4.40,5.12,4.41,-4.37,-4.39,-3.32,0.74,0.75,0.72
445.96,5.14,4.40,5.08,4.34,-4.32,-4.35,-3.31,0.82,0.76,0.75
450.42,5.00,4.23,5.02,4.24,-4.28,-4.30,-3.29,0.73,0.75,0.78
454.93,4.96,4.13,4.98,4.15,-4.23,-4.25,-3.27,0.74,0.75,0.84
459.48,4.94,4.07,5.01,4.13,-4.18,-4.20,-3.25,0.77,0.83,0.88
464.07,5.09,4.16,5.06,4.13,-4.12,-4.14,-3.24,0.98,0.95,0.93
468.71,5.17,4.19,5.08,4.10,-4.05,-4.08,-3.22,1.13,1.04,0.98
473.40,5.01,3.98,5.08,4.04,-3.97,-4.02,-3.19,1.05,1.11,1.03
478.13,4.98,3.90,5.03,3.95,-3.89,-3.95,-3.17,1.10,1.14,1.08
482.91,4.99,3.87,4.94,3.81,-3.81,-3.88,-3.14,1.19,1.13,1.12
487.74,4.90,3.73,4.85,3.68,-3.72,-3.80,-3.12,1.19,1.13,1.17
492.62,4.70,3.49,4.79,3.58,-3.63,-3.72,-3.09,1.08,1.16,1.21
497.55,4.67,3.43,4.73,3.49,-3.54,-3.64,-3.05,1.13,1.19,1.24
502.52,4.81,3.54,4.68,3.42,-3.46,-3.55,-3.02,1.35,1.22,1.27
507.55,4.65,3.37,4.69,3.41,-3.39,-3.47,-2.98,1.27,1.30,1.28
512.62,4.57,3.28,4.66,3.37,-3.32,-3.37,-2.94,1.25,1.34,1.29
517.75,4.67,3.37,4.59,3.29,-3.27,-3.28,-2.90,1.41,1.32,1.30
522.93,4.54,3.25,4.53,3.24,-3.22,-3.18,-2.86,1.33,1.31,1.29
528.16,4.38,3.13,4.42,3.15,-3.16,-3.08,-2.81,1.22,1.26,1.26
533.44,4.27,3.04,4.28,3.04,-3.10,-2.98,-2.76,1.18,1.18,1.24
538.77,4.17,2.98,4.19,2.99,-3.02,-2.88,-2.71,1.15,1.17,1.20
544.16,4.12,2.97,4.13,2.96,-2.94,-2.77,-2.66,1.19,1.19,1.16
