frequency,raw,error,smoothed,error_smoothed,equalization,parametric_eq,fixed_band_eq,equalized_raw,equalized_smoothed,target
20.00,-9.87,-6.90,-9.87,-6.90,6.00,5.90,2.69,-3.87,-3.87,-2.97
20.20,-9.93,-6.93,-9.93,-6.93,6.00,5.90,2.77,-3.93,-3.93,-3.00
20.40,-9.99,-6.97,-9.99,-6.98,6.00,5.90,2.84,-3.99,-3.99,-3.02
20.61,-10.07,-7.03,-10.07,-7.03,6.00,5.90,2.92,-4.07,-4.07,-3.04
20.81,-10.16,-7.10,-10.16,-7.10,6.00,5.91,3.01,-4.16,-4.16,-3.06
21.02,-10.25,-7.17,-10.25,-7.17,6.00,5.91,3.09,-4.25,-4.25,-3.08
21.23,-10.35,-7.25,-10.35,-7.25,6.00,5.91,3.18,-4.35,-4.35,-3.10
21.44,-10.46,-7.34,-10.46,-7.34,6.00,5.91,3.27,-4.46,-4.46,-3.12
21.66,-10.58,-7.44,-10.58,-7.45,6.00,5.91,3.36,-4.58,-4.58,-3.14
21.87,-10.71,-7.57,-10.70,-7.55,6.00,5.91,3.46,-4.71,-4.70,-3.15
22.09,-10.84,-7.67,-10.84,-7.68,6.00,5.92,3.56,-4.84,-4.84,-3.17
22.31,-10.99,-7.82,-11.01,-7.83,6.00,5.92,3.66,-4.99,-5.01,-3.18
22.54,-11.19,-8.00,-11.19,-8.01,6.00,5.92,3.76,-5.19,-5.19,-3.19
22.76,-11.41,-8.21,-11.40,-8.20,6.00,5.92,3.87,-5.41,-5.40,-3.20
22.99,-11.61,-8.40,-11.61,-8.40,6.00,5.92,3.97,-5.61,-5.61,-3.21
23.22,-11.80,-8.58,-11.80,-8.58,6.00,5.92,4.09,-5.80,-5.80,-3.22
23.45,-11.98,-8.75,-11.98,-8.75,6.00,5.93,4.20,-5.98,-5.98,-3.23
23.69,-12.14,-8.90,-12.14,-8.90,6.00,5.93,4.31,-6.14,-6.14,-3.24
23.92,-12.28,-9.04,-12.28,-9.04,6.00,5.93,4.43,-6.28,-6.28,-3.24
24.16,-12.41,-9.16,-12.41,-9.16,6.00,5.93,4.55,-6.41,-6.41,-3.25
24.40,-12.52,-9.27,-12.52,-9.28,6.00,5.93,4.67,-6.52,-6.52,-3.25
24.65,-12.63,-9.37,-12.63,-9.37,6.00,5.94,4.80,-6.63,-6.63,-3.26
24.89,-12.72,-9.46,-12.72,-9.46,6.00,5.94,4.93,-6.72,-6.72,-3.26
25.14,-12.80,-9.53,-12.81,-9.54,6.00,5.94,5.05,-6.80,-6.81,-3.27
25.39,-12.89,-9.61,-12.89,-9.62,6.00,5.94,5.18,-6.89,-6.89,-3.28
25.65,-12.97,-9.69,-12.97,-9.69,6.00,5.94,5.31,-6.97,-6.97,-3.28
25.91,-13.06,-9.77,-13.06,-9.77,6.00,5.95,5.44,-7.06,-7.06,-3.29
26.16,-13.14,-9.85,-13.14,-9.86,6.00,5.95,5.57,-7.14,-7.14,-3.29
26.43,-13.24,-9.95,-13.24,-9.95,6.00,5.95,5.70,-7.24,-7.24,-3.29
26.69,-13.33,-10.03,-13.33,-10.04,6.00,5.95,5.83,-7.33,-7.33,-3.30
26.96,-13.44,-10.14,-13.44,-10.14,6.00,5.96,5.96,-7.44,-7.44,-3.30
27.23,-13.54,-10.23,-13.54,-10.23,6.00,5.96,6.08,-7.54,-7.54,-3.31
27.50,-13.63,-10.32,-13.63,-10.32,6.00,5.96,6.21,-7.63,-7.63,-3.31
27.77,-13.71,-10.40,-13.71,-10.40,6.00,5.96,6.32,-7.71,-7.71,-3.31
28.05,-13.77,-10.45,-13.77,-10.46,6.00,5.96,6.44,-7.77,-7.77,-3.32
28.33,-13.83,-10.51,-13.82,-10.51,6.00,5.97,6.55,-7.83,-7.82,-3.32
28.62,-13.87,-10.55,-13.87,-10.55,6.00,5.97,6.66,-7.87,-7.87,-3.32
28.90,-13.91,-10.58,-13.91,-10.59,6.00,5.97,6.75,-7.91,-7.91,-3.33
29.19,-13.96,-10.63,-13.95,-10.63,6.00,5.97,6.85,-7.96,-7.95,-3.33
29.48,-14.00,-10.67,-14.00,-10.67,6.00,5.98,6.93,-8.00,-8.00,-3.33
29.78,-14.05,-10.72,-14.05,-10.73,6.00,5.98,7.01,-8.05,-8.05,-3.33
30.08,-14.13,-10.80,-14.13,-10.80,6.00,5.98,7.07,-8.13,-8.13,-3.33
30.38,-14.23,-10.89,-14.23,-10.90,6.00,5.98,7.13,-8.23,-8.23,-3.34
30.68,-14.36,-11.02,-14.36,-11.02,6.00,5.99,7.18,-8.36,-8.36,-3.34
30.99,-14.51,-11.17,-14.51,-11.17,6.00,5.99,7.22,-8.51,-8.51,-3.34
31.30,-14.69,-11.35,-14.69,-11.35,6.00,5.99,7.25,-8.69,-8.69,-3.34
31.61,-14.90,-11.55,-14.90,-11.56,6.00,5.99,7.27,-8.90,-8.90,-3.35
31.93,-15.14,-11.79,-15.14,-11.79,6.00,6.00,7.28,-9.14,-9.14,-3.35
32.24,-15.40,-12.06,-15.40,-12.05,6.00,6.00,7.28,-9.40,-9.40,-3.35
32.57,-15.67,-12.31,-15.67,-12.32,6.00,6.00,7.27,-9.67,-9.67,-3.36
32.89,-15.94,-12.59,-15.95,-12.59,6.00,6.01,7.25,-9.94,-9.95,-3.36
33.22,-16.22,-12.86,-16.22,-12.86,6.00,6.01,7.23,-10.22,-10.22,-3.36
33.55,-16.48,-13.12,-16.47,-13.11,6.00,6.01,7.19,-10.48,-10.47,-3.37
33.89,-16.71,-13.34,-16.71,-13.35,6.00,6.01,7.15,-10.71,-10.71,-3.37
34.23,-16.93,-13.56,-16.93,-13.56,6.00,6.02,7.11,-10.93,-10.93,-3.37
34.57,-17.14,-13.76,-17.14,-13.77,6.00,6.02,7.05,-11.14,-11.14,-3.38
34.92,-17.33,-13.95,-17.32,-13.95,6.00,6.02,7.00,-11.33,-11.32,-3.38
35.27,-17.49,-14.11,-17.49,-14.11,6.00,6.02,6.93,-11.49,-11.49,-3.38
35.62,-17.63,-14.24,-17.63,-14.25,6.00,6.03,6.87,-11.63,-11.63,-3.39
35.97,-17.76,-14.37,-17.76,-14.37,6.00,6.03,6.80,-11.76,-11.76,-3.39
36.33,-17.86,-14.47,-17.86,-14.47,6.00,6.03,6.73,-11.86,-11.86,-3.39
36.70,-17.94,-14.55,-17.94,-14.55,6.00,6.04,6.67,-11.94,-11.94,-3.39
37.06,-18.01,-14.62,-18.01,-14.62,6.00,6.04,6.60,-12.01,-12.01,-3.39
37.43,-18.07,-14.67,-18.07,-14.68,6.00,6.04,6.53,-12.07,-12.07,-3.40
37.81,-18.13,-14.73,-18.12,-14.73,6.00,6.04,6.46,-12.13,-12.12,-3.40
38.19,-18.17,-14.77,-18.17,-14.77,6.00,6.05,6.39,-12.17,-12.17,-3.40
38.57,-18.22,-14.81,-18.22,-14.82,6.00,6.05,6.32,-12.22,-12.22,-3.41
38.95,-18.27,-14.86,-18.27,-14.86,6.00,6.05,6.26,-12.27,-12.27,-3.41
39.34,-18.33,-14.91,-18.33,-14.91,6.00,6.06,6.20,-12.33,-12.33,-3.42
39.74,-18.38,-14.96,-18.38,-14.96,6.00,6.06,6.14,-12.38,-12.38,-3.42
40.14,-18.43,-15.00,-18.43,-15.01,6.00,6.06,6.08,-12.43,-12.43,-3.43
40.54,-18.49,-15.06,-18.49,-15.06,6.00,6.06,6.03,-12.49,-12.49,-3.43
40.94,-18.55,-15.12,-18.54,-15.12,6.00,6.07,5.98,-12.55,-12.54,-3.43
41.35,-18.59,-15.16,-18.59,-15.16,6.00,6.07,5.93,-12.59,-12.59,-3.43
41.76,-18.62,-15.19,-18.62,-15.19,6.00,6.07,5.89,-12.62,-12.62,-3.43
42.18,-18.65,-15.22,-18.66,-15.23,6.00,6.07,5.86,-12.65,-12.66,-3.43
42.60,-18.69,-15.26,-18.69,-15.27,6.00,6.08,5.82,-12.69,-12.69,-3.43
43.03,-18.74,-15.32,-18.73,-15.31,6.00,6.08,5.79,-12.74,-12.73,-3.42
43.46,-18.77,-15.35,-18.77,-15.35,6.00,6.08,5.77,-12.77,-12.77,-3.42
43.90,-18.79,-15.37,-18.80,-15.38,6.00,6.08,5.75,-12.79,-12.80,-3.42
44.33,-18.83,-15.41,-18.83,-15.41,6.00,6.09,5.73,-12.83,-12.83,-3.42
44.78,-18.87,-15.45,-18.87,-15.45,6.00,6.09,5.72,-12.87,-12.87,-3.42
45.23,-18.92,-15.50,-18.92,-15.51,6.00,6.09,5.71,-12.92,-12.92,-3.42
45.68,-18.98,-15.56,-18.98,-15.56,6.00,6.09,5.71,-12.98,-12.98,-3.42
46.13,-19.03,-15.61,-19.03,-15.61,6.00,6.09,5.71,-13.03,-13.03,-3.42
46.60,-19.07,-15.65,-19.07,-15.65,6.00,6.10,5.71,-13.07,-13.07,-3.42
47.06,-19.11,-15.69,-19.11,-15.69,6.00,6.10,5.72,-13.11,-13.11,-3.42
47.53,-19.16,-15.73,-19.16,-15.74,6.00,6.10,5.73,-13.16,-13.16,-3.43
48.01,-19.23,-15.80,-19.23,-15.80,6.00,6.10,5.75,-13.23,-13.23,-3.43
48.49,-19.30,-15.87,-19.30,-15.87,6.00,6.10,5.77,-13.30,-13.30,-3.43
48.97,-19.37,-15.94,-19.37,-15.95,6.00,6.10,5.79,-13.37,-13.37,-3.43
49.46,-19.44,-16.01,-19.44,-16.01,6.00,6.10,5.82,-13.44,-13.44,-3.43
49.96,-19.50,-16.07,-19.49,-16.07,6.00,6.11,5.85,-13.50,-13.49,-3.43
50.46,-19.54,-16.11,-19.54,-16.12,6.00,6.11,5.88,-13.54,-13.54,-3.43
50.96,-19.59,-16.16,-19.59,-16.17,6.00,6.11,5.92,-13.59,-13.59,-3.43
51.47,-19.63,-16.21,-19.63,-16.21,6.00,6.11,5.96,-13.63,-13.63,-3.42
51.99,-19.67,-16.25,-19.67,-16.25,6.00,6.11,6.00,-13.67,-13.67,-3.42
52.51,-19.71,-16.29,-19.71,-16.29,6.00,6.11,6.04,-13.71,-13.71,-3.42
53.03,-19.75,-16.33,-19.75,-16.33,6.00,6.11,6.08,-13.75,-13.75,-3.42
53.56,-19.79,-16.37,-19.79,-16.38,6.00,6.11,6.12,-13.79,-13.79,-3.42
54.10,-19.84,-16.43,-19.84,-16.43,6.00,6.11,6.17,-13.84,-13.84,-3.41
54.64,-19.89,-16.48,-19.89,-16.48,6.00,6.11,6.21,-13.89,-13.89,-3.41
55.18,-19.95,-16.54,-19.95,-16.55,6.00,6.11,6.25,-13.95,-13.95,-3.41
55.74,-20.02,-16.61,-20.01,-16.61,6.00,6.11,6.30,-14.02,-14.01,-3.41
56.29,-20.08,-16.68,-20.08,-16.68,6.00,6.11,6.34,-14.08,-14.08,-3.40
56.86,-20.13,-16.73,-20.13,-16.74,6.00,6.11,6.37,-14.13,-14.13,-3.40
57.42,-20.19,-16.79,-20.19,-16.80,6.00,6.11,6.41,-14.19,-14.19,-3.40
58.00,-20.24,-16.85,-20.24,-16.85,6.00,6.11,6.44,-14.24,-14.24,-3.39
58.58,-20.29,-16.90,-20.29,-16.91,6.00,6.10,6.47,-14.29,-14.29,-3.39
59.16,-20.34,-16.95,-20.34,-16.96,6.00,6.10,6.50,-14.34,-14.34,-3.39
59.76,-20.38,-17.00,-20.38,-17.00,6.00,6.10,6.52,-14.38,-14.38,-3.38
60.35,-20.41,-17.03,-20.41,-17.03,6.00,6.10,6.54,-14.41,-14.41,-3.38
60.96,-20.43,-17.05,-20.43,-17.05,6.00,6.10,6.55,-14.43,-14.43,-3.38
61.57,-20.44,-17.06,-20.44,-17.07,6.00,6.09,6.55,-14.44,-14.44,-3.38
62.18,-20.45,-17.07,-20.45,-17.07,6.00,6.09,6.55,-14.45,-14.45,-3.38
62.80,-20.46,-17.08,-20.46,-17.08,6.00,6.09,6.55,-14.46,-14.46,-3.38
63.43,-20.46,-17.08,-20.47,-17.09,6.00,6.08,6.54,-14.46,-14.47,-3.38
64.07,-20.48,-17.10,-20.48,-17.10,6.00,6.08,6.53,-14.48,-14.48,-3.38
64.71,-20.49,-17.11,-20.49,-17.11,6.00,6.08,6.51,-14.49,-14.49,-3.38
65.35,-20.51,-17.13,-20.51,-17.14,6.00,6.07,6.48,-14.51,-14.51,-3.38
66.01,-20.54,-17.16,-20.54,-17.16,6.00,6.07,6.45,-14.54,-14.54,-3.38
66.67,-20.58,-17.20,-20.58,-17.20,6.00,6.06,6.42,-14.58,-14.58,-3.38
67.33,-20.63,-17.25,-20.63,-17.26,6.00,6.06,6.38,-14.63,-14.63,-3.38
68.01,-20.70,-17.32,-20.70,-17.32,6.00,6.05,6.34,-14.70,-14.70,-3.38
68.69,-20.77,-17.39,-20.77,-17.39,6.00,6.05,6.29,-14.77,-14.77,-3.38
69.37,-20.84,-17.46,-20.84,-17.47,6.00,6.04,6.25,-14.84,-14.84,-3.38
70.07,-20.92,-17.54,-20.92,-17.54,6.00,6.04,6.20,-14.92,-14.92,-3.38
70.77,-21.00,-17.62,-21.00,-17.63,6.00,6.03,6.14,-15.00,-15.00,-3.38
71.48,-21.08,-17.71,-21.08,-17.71,6.00,6.03,6.09,-15.08,-15.08,-3.37
72.19,-21.15,-17.78,-21.14,-17.78,6.00,6.02,6.04,-15.15,-15.14,-3.37
72.91,-21.20,-17.83,-21.21,-17.84,6.00,6.01,5.99,-15.20,-15.21,-3.37
73.64,-21.26,-17.89,-21.26,-17.89,6.00,6.01,5.93,-15.26,-15.26,-3.37
74.38,-21.31,-17.95,-21.31,-17.95,6.00,6.00,5.88,-15.31,-15.31,-3.36
75.12,-21.35,-17.99,-21.35,-18.00,6.00,5.99,5.83,-15.35,-15.35,-3.36
75.87,-21.40,-18.05,-21.40,-18.05,6.00,5.99,5.78,-15.40,-15.40,-3.35
76.63,-21.45,-18.10,-21.45,-18.11,6.00,5.98,5.73,-15.45,-15.45,-3.35
77.40,-21.51,-18.16,-21.50,-18.16,6.00,5.97,5.68,-15.51,-15.50,-3.35
78.17,-21.54,-18.20,-21.54,-18.20,6.00,5.97,5.64,-15.54,-15.54,-3.34
78.95,-21.57,-18.23,-21.57,-18.24,6.00,5.96,5.60,-15.57,-15.57,-3.34
79.74,-21.60,-18.26,-21.60,-18.26,6.00,5.95,5.56,-15.60,-15.60,-3.34
80.54,-21.61,-18.28,-21.61,-18.28,6.00,5.94,5.52,-15.61,-15.61,-3.33
81.35,-21.62,-18.29,-21.61,-18.29,6.00,5.94,5.49,-15.62,-15.61,-3.33
82.16,-21.61,-18.28,-21.62,-18.29,6.00,5.93,5.46,-15.61,-15.62,-3.33
82.98,-21.62,-18.29,-21.62,-18.30,6.00,5.92,5.44,-15.62,-15.62,-3.33
83.81,-21.63,-18.30,-21.62,-18.30,6.00,5.92,5.42,-15.63,-15.62,-3.33
84.65,-21.62,-18.30,-21.62,-18.30,6.00,5.91,5.40,-15.62,-15.62,-3.32
85.50,-21.61,-18.29,-21.61,-18.29,6.00,5.90,5.38,-15.61,-15.61,-3.32
86.35,-21.58,-18.26,-21.58,-18.26,6.00,5.90,5.37,-15.58,-15.58,-3.32
87.22,-21.54,-18.22,-21.54,-18.22,6.00,5.89,5.37,-15.54,-15.54,-3.32
88.09,-21.49,-18.17,-21.49,-18.18,6.00,5.88,5.36,-15.49,-15.49,-3.32
88.97,-21.44,-18.12,-21.44,-18.12,6.00,5.88,5.37,-15.44,-15.44,-3.32
89.86,-21.38,-18.06,-21.38,-18.06,6.00,5.87,5.37,-15.38,-15.38,-3.32
90.76,-21.32,-18.00,-21.32,-18.01,6.00,5.87,5.38,-15.32,-15.32,-3.32
91.66,-21.27,-17.95,-21.27,-17.95,6.00,5.86,5.39,-15.27,-15.27,-3.32
92.58,-21.22,-17.90,-21.22,-17.91,6.00,5.86,5.41,-15.22,-15.22,-3.32
93.51,-21.19,-17.87,-21.19,-17.87,6.00,5.85,5.43,-15.19,-15.19,-3.32
94.44,-21.17,-17.85,-21.17,-17.85,6.00,5.85,5.46,-15.17,-15.17,-3.32
95.39,-21.16,-17.84,-21.16,-17.84,6.00,5.84,5.49,-15.16,-15.16,-3.32
96.34,-21.16,-17.84,-21.16,-17.84,6.00,5.84,5.52,-15.16,-15.16,-3.32
97.30,-21.16,-17.85,-21.16,-17.85,6.00,5.84,5.55,-15.16,-15.16,-3.31
98.28,-21.17,-17.86,-21.17,-17.87,6.00,5.84,5.59,-15.17,-15.17,-3.31
99.26,-21.19,-17.88,-21.19,-17.88,6.00,5.84,5.63,-15.19,-15.19,-3.31
100.25,-21.21,-17.90,-21.20,-17.90,6.00,5.84,5.68,-15.21,-15.20,-3.31
101.25,-21.22,-17.91,-21.22,-17.92,6.00,5.84,5.72,-15.22,-15.22,-3.31
102.27,-21.24,-17.93,-21.24,-17.94,6.00,5.84,5.77,-15.24,-15.24,-3.31
103.29,-21.27,-17.96,-21.26,-17.96,6.00,5.84,5.82,-15.27,-15.26,-3.31
104.32,-21.28,-17.98,-21.28,-17.98,6.00,5.84,5.88,-15.28,-15.28,-3.30
105.37,-21.28,-17.98,-21.28,-17.99,6.00,5.84,5.93,-15.28,-15.28,-3.30
106.42,-21.28,-17.98,-21.28,-17.99,6.00,5.85,5.98,-15.28,-15.28,-3.30
107.48,-21.27,-17.98,-21.27,-17.98,6.00,5.85,6.04,-15.27,-15.27,-3.29
108.56,-21.26,-17.97,-21.26,-17.98,6.00,5.86,6.09,-15.26,-15.26,-3.29
109.64,-21.25,-17.96,-21.25,-17.96,6.00,5.86,6.15,-15.25,-15.25,-3.29
110.74,-21.24,-17.95,-21.23,-17.95,6.00,5.87,6.20,-15.24,-15.23,-3.29
111.85,-21.21,-17.92,-21.21,-17.93,6.00,5.88,6.25,-15.21,-15.21,-3.29
112.97,-21.18,-17.90,-21.19,-17.91,6.00,5.88,6.30,-15.18,-15.19,-3.28
114.10,-21.16,-17.88,-21.16,-17.88,6.00,5.89,6.35,-15.16,-15.16,-3.28
115.24,-21.13,-17.85,-21.13,-17.85,6.00,5.90,6.39,-15.13,-15.13,-3.28
116.39,-21.09,-17.81,-21.09,-17.82,6.00,5.91,6.43,-15.09,-15.09,-3.28
117.55,-21.06,-17.79,-21.06,-17.79,6.00,5.92,6.46,-15.06,-15.06,-3.27
118.73,-21.02,-17.75,-21.02,-17.75,6.00,5.93,6.50,-15.02,-15.02,-3.27
119.92,-20.98,-17.71,-20.98,-17.72,6.00,5.94,6.52,-14.98,-14.98,-3.27
121.12,-20.94,-17.67,-20.94,-17.68,6.00,5.95,6.54,-14.94,-14.94,-3.27
122.33,-20.90,-17.64,-20.90,-17.64,6.00,5.97,6.56,-14.90,-14.90,-3.26
123.55,-20.85,-17.59,-20.84,-17.59,6.00,5.98,6.57,-14.85,-14.84,-3.26
124.79,-20.78,-17.53,-20.78,-17.53,6.00,5.99,6.57,-14.78,-14.78,-3.25
126.03,-20.71,-17.46,-20.71,-17.47,6.00,6.00,6.57,-14.71,-14.71,-3.25
127.29,-20.64,-17.40,-20.64,-17.40,6.00,6.01,6.56,-14.64,-14.64,-3.24
128.57,-20.57,-17.33,-20.57,-17.33,6.00,6.03,6.55,-14.57,-14.57,-3.24
129.85,-20.51,-17.27,-20.51,-17.27,6.00,6.04,6.53,-14.51,-14.51,-3.24
131.15,-20.45,-17.21,-20.45,-17.21,6.00,6.05,6.51,-14.45,-14.45,-3.24
132.46,-20.39,-17.16,-20.39,-17.16,6.00,6.06,6.48,-14.39,-14.39,-3.23
133.79,-20.33,-17.10,-20.33,-17.11,6.00,6.07,6.44,-14.33,-14.33,-3.23
135.12,-20.28,-17.05,-20.28,-17.05,6.00,6.08,6.41,-14.28,-14.28,-3.23
136.48,-20.23,-17.00,-20.23,-17.00,6.00,6.09,6.36,-14.23,-14.23,-3.23
137.84,-20.18,-16.95,-20.18,-16.96,6.00,6.10,6.32,-14.18,-14.18,-3.23
139.22,-20.14,-16.91,-20.14,-16.92,6.00,6.11,6.27,-14.14,-14.14,-3.23
140.61,-20.10,-16.87,-20.10,-16.88,6.00,6.12,6.22,-14.10,-14.10,-3.23
142.02,-20.06,-16.84,-20.05,-16.83,6.00,6.12,6.17,-14.06,-14.05,-3.22
143.44,-20.00,-16.78,-20.00,-16.79,6.00,6.13,6.12,-14.00,-14.00,-3.22
144.87,-19.95,-16.73,-19.95,-16.74,6.00,6.13,6.06,-13.95,-13.95,-3.22
146.32,-19.90,-16.69,-19.90,-16.69,6.00,6.14,6.01,-13.90,-13.90,-3.21
147.78,-19.85,-16.64,-19.85,-16.64,6.00,6.14,5.96,-13.85,-13.85,-3.21
149.26,-19.80,-16.59,-19.80,-16.60,6.00,6.14,5.90,-13.80,-13.80,-3.21
150.75,-19.76,-16.56,-19.75,-16.55,6.00,6.14,5.85,-13.76,-13.75,-3.20
152.26,-19.70,-16.50,-19.70,-16.50,6.00,6.14,5.80,-13.70,-13.70,-3.20
153.78,-19.64,-16.44,-19.64,-16.45,6.00,6.14,5.75,-13.64,-13.64,-3.20
155.32,-19.58,-16.39,-19.58,-16.39,6.00,6.13,5.71,-13.58,-13.58,-3.19
156.88,-19.52,-16.33,-19.52,-16.33,6.00,6.13,5.66,-13.52,-13.52,-3.19
158.44,-19.45,-16.26,-19.45,-16.26,6.00,6.12,5.62,-13.45,-13.45,-3.19
160.03,-19.38,-16.19,-19.38,-16.19,6.00,6.11,5.58,-13.38,-13.38,-3.19
161.63,-19.30,-16.11,-19.30,-16.12,6.00,6.11,5.55,-13.30,-13.30,-3.19
163.24,-19.23,-16.05,-19.22,-16.04,6.00,6.10,5.51,-13.23,-13.22,-3.18
164.88,-19.14,-15.96,-19.14,-15.96,6.00,6.09,5.49,-13.14,-13.14,-3.18
166.53,-19.05,-15.87,-19.05,-15.88,6.00,6.07,5.46,-13.05,-13.05,-3.18
168.19,-18.96,-15.78,-18.96,-15.79,6.00,6.06,5.44,-12.96,-12.96,-3.18
169.87,-18.87,-15.70,-18.87,-15.70,6.00,6.05,5.42,-12.87,-12.87,-3.17
171.57,-18.79,-15.62,-18.79,-15.62,6.00,6.04,5.41,-12.79,-12.79,-3.17
173.29,-18.71,-15.54,-18.71,-15.54,6.00,6.02,5.40,-12.71,-12.71,-3.17
175.02,-18.63,-15.46,-18.63,-15.47,6.00,6.01,5.39,-12.63,-12.63,-3.17
176.77,-18.55,-15.39,-18.55,-15.39,6.00,5.99,5.39,-12.55,-12.55,-3.16
178.54,-18.48,-15.32,-18.48,-15.32,6.00,5.98,5.39,-12.48,-12.48,-3.16
180.32,-18.41,-15.25,-18.41,-15.25,6.00,5.96,5.40,-12.41,-12.41,-3.16
182.13,-18.34,-15.18,-18.34,-15.18,6.00,5.95,5.41,-12.34,-12.34,-3.16
183.95,-18.27,-15.11,-18.27,-15.11,6.00,5.93,5.42,-12.27,-12.27,-3.16
185.79,-18.20,-15.04,-18.20,-15.04,6.00,5.92,5.44,-12.20,-12.20,-3.16
187.65,-18.13,-14.97,-18.13,-14.98,6.00,5.90,5.46,-12.13,-12.13,-3.16
189.52,-18.07,-14.91,-18.07,-14.91,6.00,5.89,5.49,-12.07,-12.07,-3.16
191.42,-18.00,-14.84,-18.00,-14.84,6.00,5.87,5.52,-12.00,-12.00,-3.16
193.33,-17.93,-14.77,-17.93,-14.78,6.00,5.86,5.55,-11.93,-11.93,-3.16
195.27,-17.87,-14.71,-17.87,-14.71,6.00,5.85,5.59,-11.87,-11.87,-3.16
197.22,-17.80,-14.64,-17.80,-14.64,6.00,5.84,5.63,-11.80,-11.80,-3.16
199.19,-17.73,-14.57,-17.73,-14.58,6.00,5.82,5.67,-11.73,-11.73,-3.16
201.18,-17.66,-14.51,-17.66,-14.51,6.00,5.81,5.71,-11.66,-11.66,-3.15
203.19,-17.59,-14.44,-17.59,-14.44,6.00,5.80,5.76,-11.59,-11.59,-3.15
205.23,-17.51,-14.37,-17.51,-14.37,6.00,5.79,5.81,-11.51,-11.51,-3.14
207.28,-17.44,-14.30,-17.44,-14.30,6.00,5.78,5.86,-11.44,-11.44,-3.14
209.35,-17.36,-14.22,-17.36,-14.23,6.00,5.78,5.91,-11.36,-11.36,-3.14
211.44,-17.29,-14.16,-17.29,-14.16,6.00,5.77,5.97,-11.29,-11.29,-3.13
213.56,-17.23,-14.10,-17.23,-14.10,6.00,5.76,6.02,-11.23,-11.23,-3.13
215.69,-17.16,-14.03,-17.16,-14.03,6.00,5.76,6.07,-11.16,-11.16,-3.13
217.85,-17.09,-13.96,-17.09,-13.96,6.00,5.76,6.13,-11.09,-11.09,-3.13
220.03,-17.01,-13.89,-17.01,-13.89,6.00,5.75,6.18,-11.01,-11.01,-3.12
222.23,-16.93,-13.81,-16.93,-13.81,6.00,5.75,6.24,-10.93,-10.93,-3.12
224.45,-16.85,-13.73,-16.84,-13.73,6.00,5.75,6.29,-10.85,-10.84,-3.12
226.70,-16.75,-13.63,-16.75,-13.64,6.00,5.75,6.34,-10.75,-10.75,-3.12
228.96,-16.65,-13.54,-16.66,-13.55,6.00,5.75,6.38,-10.65,-10.66,-3.11
231.25,-16.56,-13.45,-16.56,-13.45,6.00,5.76,6.42,-10.56,-10.56,-3.11
233.57,-16.46,-13.35,-16.46,-13.35,6.00,5.76,6.46,-10.46,-10.46,-3.11
235.90,-16.35,-13.25,-16.35,-13.25,6.00,5.77,6.50,-10.35,-10.35,-3.10
238.26,-16.23,-13.13,-16.23,-13.14,6.00,5.77,6.53,-10.23,-10.23,-3.10
240.64,-16.12,-13.03,-16.12,-13.04,6.00,5.78,6.56,-10.12,-10.12,-3.09
243.05,-16.01,-12.93,-16.01,-12.93,6.00,5.79,6.58,-10.01,-10.01,-3.08
245.48,-15.91,-12.84,-15.90,-12.83,6.00,5.80,6.59,-9.91,-9.90,-3.07
247.93,-15.79,-12.72,-15.79,-12.73,6.00,5.80,6.60,-9.79,-9.79,-3.07
250.41,-15.68,-12.62,-15.68,-12.63,6.00,5.82,6.60,-9.68,-9.68,-3.06
252.92,-15.58,-12.53,-15.58,-12.53,6.00,5.83,6.60,-9.58,-9.58,-3.05
255.45,-15.48,-12.44,-15.48,-12.44,6.00,5.84,6.60,-9.48,-9.48,-3.04
258.00,-15.39,-12.35,-15.39,-12.36,6.00,5.85,6.58,-9.39,-9.39,-3.04
260.58,-15.30,-12.27,-15.30,-12.27,6.00,5.87,6.56,-9.30,-9.30,-3.03
263.19,-15.21,-12.18,-15.21,-12.18,6.00,5.88,6.54,-9.21,-9.21,-3.03
265.82,-15.12,-12.09,-15.12,-12.10,6.00,5.90,6.51,-9.12,-9.12,-3.03
268.48,-15.03,-12.01,-15.04,-12.02,6.00,5.91,6.48,-9.03,-9.04,-3.02
271.16,-14.96,-11.94,-14.95,-11.94,6.00,5.93,6.44,-8.96,-8.95,-3.02
273.87,-14.87,-11.85,-14.87,-11.86,6.00,5.95,6.40,-8.87,-8.87,-3.02
276.61,-14.78,-11.77,-14.78,-11.78,6.00,5.96,6.36,-8.78,-8.78,-3.01
279.38,-14.70,-11.69,-14.70,-11.70,6.00,5.98,6.32,-8.70,-8.70,-3.01
282.17,-14.62,-11.62,-14.62,-11.62,6.00,6.00,6.27,-8.62,-8.62,-3.00
284.99,-14.54,-11.54,-14.54,-11.54,6.00,6.02,6.22,-8.54,-8.54,-3.00
287.84,-14.46,-11.46,-14.46,-11.46,6.00,6.04,6.17,-8.46,-8.46,-3.00
290.72,-14.37,-11.37,-14.38,-11.38,6.00,6.06,6.12,-8.37,-8.38,-3.00
293.63,-14.30,-11.30,-14.30,-11.30,6.00,6.08,6.07,-8.30,-8.30,-3.00
296.57,-14.23,-11.23,-14.23,-11.24,6.00,6.10,6.02,-8.23,-8.23,-3.00
299.53,-14.16,-11.17,-14.15,-11.16,6.00,6.12,5.97,-8.16,-8.15,-2.99
302.53,-14.08,-11.09,-14.08,-11.09,6.00,6.14,5.93,-8.08,-8.08,-2.99
305.55,-14.00,-11.01,-14.01,-11.02,6.00,6.15,5.88,-8.00,-8.01,-2.99
308.61,-13.94,-10.96,-13.93,-10.95,6.00,6.17,5.84,-7.94,-7.93,-2.98
311.69,-13.86,-10.88,-13.86,-10.89,6.00,6.19,5.80,-7.86,-7.86,-2.98
314.81,-13.79,-10.82,-13.79,-10.82,6.00,6.21,5.76,-7.79,-7.79,-2.97
317.96,-13.72,-10.75,-13.72,-10.76,6.00,6.23,5.73,-7.72,-7.72,-2.97
321.14,-13.65,-10.69,-13.65,-10.69,6.00,6.25,5.70,-7.65,-7.65,-2.96
324.35,-13.57,-10.61,-13.57,-10.61,6.00,6.27,5.67,-7.57,-7.57,-2.96
327.59,-13.49,-10.53,-13.49,-10.54,6.00,6.28,5.64,-7.49,-7.49,-2.96
330.87,-13.40,-10.45,-13.40,-10.46,6.00,6.30,5.62,-7.40,-7.40,-2.95
334.18,-13.32,-10.38,-13.32,-10.38,6.00,6.32,5.61,-7.32,-7.32,-2.94
337.52,-13.23,-10.29,-13.23,-10.30,6.00,6.33,5.59,-7.23,-7.23,-2.94
340.90,-13.14,-10.21,-13.14,-10.21,6.00,6.34,5.58,-7.14,-7.14,-2.93
344.30,-13.04,-10.11,-13.04,-10.11,6.00,6.36,5.58,-7.04,-7.04,-2.93
347.75,-12.94,-10.01,-12.94,-10.02,6.00,6.37,5.58,-6.94,-6.94,-2.93
351.23,-12.85,-9.92,-12.85,-9.93,6.00,6.38,5.58,-6.85,-6.85,-2.93
