frequency,raw,error,smoothed,error_smoothed,equalization,parametric_eq,fixed_band_eq,equalized_raw,equalized_smoothed,target
20.00,2.27,1.28,2.27,1.28,-1.28,0.10,0.06,0.99,0.99,1.00
20.20,2.27,1.24,2.27,1.24,-1.24,0.10,0.06,1.03,1.03,1.03
20.40,2.27,1.20,2.27,1.20,-1.20,0.10,0.07,1.07,1.07,1.07
20.61,2.27,1.18,2.27,1.17,-1.17,0.10,0.07,1.11,1.11,1.09
20.81,2.27,1.14,2.27,1.14,-1.14,0.10,0.07,1.14,1.14,1.13
21.02,2.27,1.10,2.27,1.11,-1.11,0.10,0.07,1.17,1.17,1.17
21.23,2.27,1.08,2.27,1.08,-1.08,0.10,0.08,1.19,1.19,1.19
21.44,2.27,1.06,2.27,1.06,-1.06,0.10,0.08,1.21,1.21,1.21
21.66,2.27,1.04,2.27,1.04,-1.04,0.11,0.08,1.23,1.23,1.23
21.87,2.27,1.03,2.27,1.03,-1.03,0.11,0.08,1.25,1.25,1.24
22.09,2.27,1.01,2.27,1.01,-1.02,0.11,0.09,1.26,1.26,1.26
22.31,2.27,1.00,2.27,1.00,-1.01,0.11,0.09,1.27,1.27,1.27
22.54,2.27,1.00,2.27,1.00,-1.00,0.11,0.09,1.27,1.27,1.27
22.76,2.27,0.99,2.27,0.99,-1.00,0.11,0.09,1.27,1.27,1.28
22.99,2.27,0.99,2.28,0.99,-1.00,0.12,0.10,1.28,1.28,1.28
23.22,2.28,0.99,2.28,0.99,-0.99,0.12,0.10,1.29,1.29,1.29
23.45,2.29,0.99,2.29,0.99,-0.98,0.12,0.10,1.31,1.31,1.30
23.69,2.29,0.98,2.29,0.98,-0.97,0.12,0.11,1.32,1.32,1.31
23.92,2.29,0.96,2.29,0.96,-0.96,0.12,0.11,1.34,1.34,1.33
24.16,2.28,0.94,2.28,0.94,-0.94,0.13,0.11,1.35,1.35,1.35
24.40,2.26,0.91,2.27,0.91,-0.91,0.13,0.12,1.35,1.36,1.36
24.65,2.24,0.89,2.24,0.88,-0.88,0.13,0.12,1.36,1.36,1.36
24.89,2.22,0.85,2.22,0.85,-0.85,0.13,0.12,1.37,1.37,1.38
25.14,2.19,0.81,2.20,0.81,-0.82,0.14,0.13,1.38,1.38,1.39
25.39,2.17,0.78,2.17,0.77,-0.78,0.14,0.13,1.39,1.39,1.39
25.65,2.14,0.74,2.15,0.74,-0.75,0.14,0.13,1.40,1.40,1.40
25.91,2.12,0.71,2.12,0.71,-0.71,0.15,0.14,1.42,1.42,1.41
26.16,2.10,0.68,2.10,0.67,-0.67,0.15,0.14,1.44,1.43,1.42
26.43,2.06,0.63,2.07,0.63,-0.62,0.15,0.14,1.44,1.45,1.43
26.69,2.03,0.58,2.03,0.58,-0.58,0.16,0.15,1.46,1.46,1.45
26.96,1.99,0.53,1.99,0.53,-0.53,0.16,0.15,1.46,1.46,1.46
27.23,1.94,0.47,1.95,0.47,-0.48,0.17,0.15,1.46,1.46,1.47
27.50,1.90,0.41,1.91,0.42,-0.44,0.17,0.15,1.47,1.47,1.49
27.77,1.87,0.38,1.87,0.38,-0.39,0.18,0.16,1.48,1.48,1.49
28.05,1.84,0.34,1.85,0.34,-0.35,0.18,0.16,1.49,1.50,1.51
28.33,1.82,0.32,1.82,0.31,-0.30,0.19,0.16,1.52,1.52,1.51
28.62,1.79,0.27,1.79,0.27,-0.26,0.19,0.16,1.53,1.53,1.52
28.90,1.76,0.23,1.76,0.23,-0.22,0.20,0.16,1.55,1.54,1.53
29.19,1.72,0.18,1.72,0.17,-0.17,0.21,0.17,1.55,1.55,1.54
29.48,1.67,0.11,1.68,0.12,-0.12,0.22,0.17,1.55,1.56,1.56
29.78,1.63,0.06,1.63,0.06,-0.07,0.23,0.17,1.56,1.57,1.57
30.08,1.59,0.01,1.59,0.01,-0.01,0.23,0.17,1.58,1.58,1.58
30.38,1.55,-0.03,1.55,-0.04,0.04,0.24,0.17,1.59,1.59,1.59
30.68,1.50,-0.09,1.50,-0.09,0.10,0.26,0.17,1.60,1.60,1.60
30.99,1.45,-0.15,1.45,-0.15,0.15,0.27,0.17,1.60,1.60,1.61
31.30,1.40,-0.21,1.41,-0.21,0.20,0.28,0.16,1.61,1.61,1.61
31.61,1.36,-0.27,1.36,-0.26,0.26,0.29,0.16,1.62,1.62,1.63
31.93,1.32,-0.31,1.32,-0.31,0.31,0.31,0.16,1.63,1.63,1.63
32.24,1.28,-0.36,1.28,-0.36,0.36,0.32,0.16,1.65,1.65,1.64
32.57,1.24,-0.40,1.24,-0.41,0.42,0.34,0.15,1.66,1.66,1.65
32.89,1.19,-0.47,1.19,-0.47,0.47,0.36,0.15,1.66,1.66,1.67
33.22,1.14,-0.52,1.15,-0.52,0.52,0.38,0.15,1.66,1.67,1.66
33.55,1.10,-0.58,1.10,-0.58,0.57,0.40,0.14,1.68,1.67,1.68
33.89,1.05,-0.63,1.06,-0.63,0.63,0.42,0.14,1.68,1.68,1.68
34.23,1.01,-0.69,1.01,-0.68,0.68,0.45,0.14,1.69,1.69,1.70
34.57,0.97,-0.72,0.97,-0.73,0.73,0.47,0.13,1.70,1.70,1.70
34.92,0.93,-0.77,0.93,-0.78,0.78,0.50,0.12,1.72,1.71,1.70
35.27,0.88,-0.83,0.88,-0.82,0.83,0.53,0.12,1.71,1.71,1.71
35.62,0.83,-0.88,0.84,-0.88,0.87,0.56,0.11,1.71,1.71,1.71
35.97,0.79,-0.92,0.80,-0.92,0.91,0.59,0.11,1.71,1.71,1.71
36.33,0.76,-0.96,0.76,-0.96,0.95,0.63,0.10,1.72,1.71,1.73
36.70,0.73,-0.99,0.73,-0.99,0.99,0.66,0.10,1.72,1.72,1.72
37.06,0.70,-1.01,0.71,-1.01,1.02,0.70,0.09,1.72,1.73,1.71
37.43,0.68,-1.04,0.68,-1.04,1.05,0.73,0.08,1.73,1.72,1.72
37.81,0.65,-1.06,0.65,-1.06,1.07,0.76,0.08,1.72,1.72,1.72
38.19,0.63,-1.08,0.64,-1.08,1.08,0.80,0.07,1.71,1.71,1.71
38.57,0.62,-1.10,0.62,-1.09,1.08,0.83,0.06,1.70,1.70,1.72
38.95,0.62,-1.08,0.62,-1.09,1.07,0.85,0.05,1.69,1.69,1.71
39.34,0.63,-1.07,0.63,-1.07,1.05,0.87,0.05,1.69,1.69,1.70
39.74,0.65,-1.04,0.66,-1.04,1.03,0.88,0.04,1.68,1.69,1.69
40.14,0.69,-1.00,0.69,-1.00,1.00,0.89,0.03,1.70,1.69,1.70
40.54,0.72,-0.96,0.73,-0.96,0.97,0.89,0.03,1.70,1.70,1.68
40.94,0.76,-0.93,0.76,-0.92,0.94,0.89,0.02,1.70,1.70,1.69
41.35,0.79,-0.89,0.79,-0.89,0.91,0.87,0.01,1.70,1.70,1.68
41.76,0.81,-0.87,0.81,-0.87,0.88,0.86,0.00,1.69,1.69,1.68
42.18,0.83,-0.85,0.84,-0.85,0.84,0.83,-0.00,1.68,1.68,1.69
42.60,0.86,-0.82,0.86,-0.82,0.81,0.80,-0.01,1.68,1.67,1.68
43.03,0.89,-0.79,0.89,-0.79,0.78,0.77,-0.02,1.67,1.67,1.69
43.46,0.92,-0.76,0.93,-0.76,0.75,0.73,-0.03,1.67,1.67,1.68
43.90,0.96,-0.72,0.96,-0.72,0.71,0.70,-0.03,1.68,1.68,1.68
44.33,0.99,-0.68,1.00,-0.68,0.68,0.66,-0.04,1.67,1.68,1.67
44.78,1.03,-0.64,1.03,-0.64,0.65,0.62,-0.05,1.68,1.68,1.67
45.23,1.06,-0.61,1.06,-0.60,0.62,0.58,-0.06,1.68,1.68,1.67
45.68,1.09,-0.57,1.09,-0.58,0.59,0.55,-0.06,1.68,1.68,1.67
46.13,1.11,-0.56,1.11,-0.56,0.56,0.51,-0.07,1.68,1.68,1.67
46.60,1.13,-0.55,1.14,-0.54,0.54,0.48,-0.08,1.67,1.67,1.69
47.06,1.16,-0.52,1.16,-0.52,0.51,0.45,-0.09,1.67,1.67,1.68
47.53,1.19,-0.49,1.19,-0.50,0.49,0.42,-0.10,1.68,1.68,1.68
48.01,1.22,-0.47,1.22,-0.47,0.46,0.39,-0.10,1.68,1.68,1.70
48.49,1.24,-0.45,1.25,-0.44,0.43,0.36,-0.11,1.68,1.68,1.69
48.97,1.27,-0.40,1.27,-0.40,0.41,0.34,-0.12,1.68,1.68,1.67
49.46,1.29,-0.37,1.29,-0.37,0.38,0.31,-0.13,1.67,1.67,1.66
49.96,1.30,-0.34,1.31,-0.35,0.36,0.29,-0.13,1.67,1.67,1.65
50.46,1.31,-0.35,1.31,-0.34,0.35,0.27,-0.14,1.66,1.66,1.66
50.96,1.32,-0.33,1.32,-0.33,0.34,0.25,-0.15,1.66,1.65,1.65
51.47,1.31,-0.32,1.31,-0.33,0.33,0.23,-0.16,1.64,1.64,1.63
51.99,1.30,-0.33,1.31,-0.33,0.32,0.21,-0.16,1.63,1.63,1.63
52.51,1.30,-0.33,1.30,-0.33,0.32,0.20,-0.17,1.63,1.62,1.63
53.03,1.29,-0.33,1.30,-0.33,0.32,0.18,-0.18,1.61,1.61,1.63
53.56,1.29,-0.32,1.29,-0.32,0.31,0.16,-0.19,1.61,1.61,1.62
54.10,1.29,-0.30,1.29,-0.31,0.31,0.15,-0.19,1.60,1.60,1.60
54.64,1.29,-0.29,1.29,-0.29,0.29,0.13,-0.20,1.59,1.59,1.58
55.18,1.29,-0.28,1.29,-0.28,0.28,0.12,-0.21,1.57,1.57,1.57
55.74,1.29,-0.26,1.29,-0.27,0.27,0.11,-0.21,1.56,1.56,1.55
56.29,1.29,-0.26,1.29,-0.25,0.25,0.10,-0.22,1.54,1.54,1.55
56.86,1.29,-0.24,1.29,-0.24,0.24,0.08,-0.23,1.53,1.53,1.53
57.42,1.29,-0.21,1.29,-0.22,0.22,0.07,-0.23,1.52,1.52,1.51
58.00,1.29,-0.20,1.29,-0.20,0.21,0.06,-0.24,1.50,1.50,1.50
58.58,1.29,-0.19,1.29,-0.19,0.19,0.05,-0.24,1.48,1.48,1.48
59.16,1.29,-0.18,1.29,-0.18,0.17,0.04,-0.25,1.47,1.47,1.47
59.76,1.29,-0.16,1.29,-0.16,0.15,0.02,-0.25,1.45,1.45,1.45
60.35,1.29,-0.14,1.29,-0.14,0.13,0.01,-0.25,1.42,1.42,1.43
60.96,1.29,-0.11,1.29,-0.11,0.11,0.00,-0.26,1.40,1.40,1.41
61.57,1.29,-0.08,1.29,-0.08,0.08,-0.01,-0.26,1.37,1.37,1.37
62.18,1.29,-0.05,1.29,-0.05,0.06,-0.02,-0.26,1.35,1.35,1.35
62.80,1.29,-0.03,1.29,-0.02,0.03,-0.03,-0.27,1.32,1.32,1.32
63.43,1.29,0.00,1.29,0.00,0.01,-0.05,-0.27,1.30,1.30,1.29
64.07,1.29,0.03,1.29,0.03,-0.02,-0.06,-0.27,1.28,1.28,1.27
64.71,1.29,0.05,1.29,0.04,-0.04,-0.07,-0.27,1.25,1.25,1.25
65.35,1.28,0.06,1.28,0.06,-0.06,-0.08,-0.27,1.22,1.22,1.22
66.01,1.27,0.07,1.28,0.08,-0.08,-0.10,-0.27,1.19,1.19,1.20
66.67,1.27,0.10,1.27,0.10,-0.11,-0.11,-0.27,1.17,1.16,1.17
67.33,1.27,0.13,1.27,0.13,-0.14,-0.12,-0.27,1.14,1.14,1.14
68.01,1.28,0.16,1.29,0.17,-0.17,-0.14,-0.27,1.11,1.12,1.12
68.69,1.30,0.21,1.30,0.21,-0.21,-0.15,-0.27,1.10,1.09,1.09
69.37,1.32,0.25,1.32,0.25,-0.25,-0.17,-0.27,1.07,1.07,1.07
70.07,1.34,0.29,1.35,0.30,-0.30,-0.18,-0.27,1.04,1.05,1.05
70.77,1.37,0.35,1.37,0.35,-0.35,-0.20,-0.27,1.02,1.02,1.03
71.48,1.40,0.40,1.40,0.40,-0.40,-0.22,-0.27,1.00,1.00,1.00
72.19,1.43,0.45,1.43,0.45,-0.45,-0.24,-0.27,0.98,0.98,0.98
72.91,1.46,0.51,1.46,0.51,-0.51,-0.26,-0.26,0.96,0.96,0.96
73.64,1.49,0.56,1.49,0.56,-0.56,-0.28,-0.26,0.94,0.94,0.93
74.38,1.52,0.61,1.52,0.61,-0.60,-0.30,-0.26,0.92,0.92,0.92
75.12,1.55,0.65,1.55,0.65,-0.65,-0.32,-0.26,0.90,0.90,0.90
75.87,1.58,0.69,1.58,0.69,-0.69,-0.34,-0.26,0.89,0.89,0.89
76.63,1.60,0.73,1.60,0.73,-0.72,-0.37,-0.25,0.88,0.88,0.88
77.40,1.62,0.75,1.62,0.75,-0.75,-0.40,-0.25,0.87,0.87,0.87
78.17,1.63,0.78,1.63,0.78,-0.77,-0.42,-0.25,0.86,0.86,0.85
78.95,1.64,0.79,1.64,0.79,-0.79,-0.45,-0.25,0.86,0.86,0.85
79.74,1.64,0.80,1.64,0.80,-0.80,-0.48,-0.25,0.85,0.85,0.85
80.54,1.64,0.81,1.64,0.80,-0.81,-0.52,-0.25,0.84,0.83,0.84
81.35,1.63,0.81,1.63,0.81,-0.81,-0.55,-0.25,0.82,0.82,0.83
82.16,1.62,0.81,1.63,0.81,-0.82,-0.58,-0.24,0.81,0.81,0.81
82.98,1.62,0.81,1.62,0.82,-0.82,-0.62,-0.24,0.80,0.80,0.81
83.81,1.62,0.83,1.62,0.82,-0.83,-0.66,-0.24,0.80,0.80,0.79
84.65,1.62,0.83,1.62,0.83,-0.83,-0.69,-0.24,0.79,0.79,0.79
85.50,1.62,0.84,1.62,0.84,-0.84,-0.73,-0.24,0.79,0.79,0.79
86.35,1.62,0.85,1.62,0.85,-0.85,-0.77,-0.24,0.78,0.78,0.77
87.22,1.62,0.85,1.62,0.85,-0.85,-0.81,-0.24,0.77,0.77,0.77
88.09,1.62,0.87,1.62,0.86,-0.86,-0.84,-0.24,0.76,0.76,0.76
88.97,1.62,0.86,1.62,0.87,-0.87,-0.88,-0.24,0.75,0.75,0.76
89.86,1.62,0.88,1.62,0.88,-0.88,-0.91,-0.24,0.74,0.74,0.75
90.76,1.62,0.89,1.63,0.89,-0.89,-0.94,-0.24,0.73,0.73,0.73
91.66,1.63,0.90,1.63,0.90,-0.90,-0.97,-0.24,0.73,0.73,0.74
92.58,1.64,0.92,1.64,0.92,-0.91,-0.99,-0.24,0.73,0.73,0.72
93.51,1.64,0.92,1.65,0.92,-0.92,-1.01,-0.25,0.72,0.73,0.72
94.44,1.64,0.93,1.64,0.93,-0.92,-1.02,-0.25,0.72,0.72,0.72
95.39,1.63,0.92,1.63,0.93,-0.92,-1.03,-0.25,0.71,0.71,0.71
96.34,1.61,0.93,1.62,0.93,-0.92,-1.03,-0.25,0.69,0.69,0.68
97.30,1.59,0.92,1.59,0.92,-0.92,-1.03,-0.25,0.68,0.68,0.67
98.28,1.57,0.91,1.57,0.91,-0.91,-1.02,-0.25,0.66,0.66,0.67
99.26,1.54,0.89,1.55,0.89,-0.90,-1.01,-0.26,0.64,0.65,0.65
100.25,1.52,0.88,1.52,0.88,-0.89,-0.98,-0.26,0.63,0.63,0.64
101.25,1.50,0.88,1.50,0.88,-0.88,-0.96,-0.26,0.62,0.62,0.62
102.27,1.47,0.87,1.47,0.87,-0.86,-0.94,-0.26,0.61,0.61,0.60
103.29,1.44,0.87,1.44,0.86,-0.85,-0.91,-0.27,0.59,0.59,0.58
104.32,1.40,0.83,1.40,0.84,-0.83,-0.88,-0.27,0.57,0.57,0.57
105.37,1.36,0.82,1.36,0.82,-0.82,-0.84,-0.27,0.54,0.55,0.54
106.42,1.32,0.80,1.32,0.80,-0.81,-0.81,-0.27,0.52,0.51,0.52
107.48,1.27,0.78,1.28,0.79,-0.79,-0.78,-0.28,0.48,0.48,0.49
108.56,1.23,0.78,1.24,0.78,-0.79,-0.74,-0.28,0.45,0.45,0.46
109.64,1.20,0.78,1.20,0.78,-0.78,-0.71,-0.28,0.42,0.42,0.43
110.74,1.17,0.78,1.17,0.78,-0.78,-0.68,-0.29,0.39,0.39,0.39
111.85,1.14,0.78,1.14,0.79,-0.79,-0.65,-0.29,0.35,0.36,0.36
112.97,1.11,0.80,1.11,0.80,-0.80,-0.62,-0.29,0.32,0.32,0.31
114.10,1.08,0.81,1.08,0.80,-0.80,-0.59,-0.29,0.28,0.28,0.28
115.24,1.04,0.80,1.05,0.81,-0.81,-0.57,-0.30,0.24,0.24,0.24
116.39,1.01,0.82,1.01,0.82,-0.81,-0.54,-0.30,0.20,0.20,0.19
117.55,0.97,0.82,0.97,0.82,-0.81,-0.52,-0.30,0.16,0.16,0.15
118.73,0.92,0.81,0.92,0.81,-0.81,-0.49,-0.30,0.11,0.12,0.11
119.92,0.87,0.80,0.87,0.80,-0.80,-0.47,-0.31,0.07,0.07,0.07
121.12,0.82,0.79,0.83,0.79,-0.80,-0.45,-0.31,0.03,0.03,0.04
122.33,0.78,0.78,0.78,0.78,-0.79,-0.44,-0.31,-0.00,-0.00,0.00
123.55,0.74,0.77,0.74,0.77,-0.77,-0.42,-0.31,-0.03,-0.03,-0.02
124.79,0.70,0.76,0.70,0.76,-0.76,-0.40,-0.32,-0.06,-0.06,-0.06
126.03,0.65,0.75,0.65,0.75,-0.74,-0.39,-0.32,-0.09,-0.09,-0.09
127.29,0.59,0.72,0.60,0.73,-0.72,-0.38,-0.32,-0.13,-0.12,-0.13
128.57,0.54,0.71,0.54,0.70,-0.69,-0.36,-0.32,-0.15,-0.16,-0.17
129.85,0.47,0.67,0.47,0.67,-0.66,-0.35,-0.32,-0.19,-0.19,-0.19
131.15,0.40,0.63,0.41,0.63,-0.63,-0.34,-0.32,-0.23,-0.22,-0.23
132.46,0.34,0.59,0.34,0.59,-0.59,-0.33,-0.32,-0.25,-0.25,-0.25
133.79,0.27,0.54,0.27,0.55,-0.55,-0.32,-0.32,-0.28,-0.28,-0.27
135.12,0.20,0.50,0.21,0.50,-0.51,-0.32,-0.33,-0.30,-0.30,-0.30
136.48,0.14,0.46,0.14,0.46,-0.46,-0.31,-0.33,-0.32,-0.32,-0.32
137.84,0.07,0.41,0.07,0.42,-0.41,-0.30,-0.33,-0.34,-0.34,-0.34
139.22,-0.01,0.37,-0.01,0.36,-0.36,-0.29,-0.33,-0.36,-0.36,-0.38
140.61,-0.10,0.30,-0.09,0.30,-0.30,-0.29,-0.33,-0.40,-0.39,-0.40
142.02,-0.18,0.23,-0.17,0.24,-0.24,-0.28,-0.33,-0.42,-0.41,-0.41
143.44,-0.26,0.18,-0.26,0.18,-0.18,-0.28,-0.33,-0.43,-0.44,-0.43
144.87,-0.34,0.12,-0.34,0.11,-0.11,-0.27,-0.33,-0.45,-0.46,-0.46
146.32,-0.44,0.05,-0.43,0.05,-0.05,-0.27,-0.33,-0.49,-0.48,-0.49
147.78,-0.53,-0.03,-0.53,-0.02,0.02,-0.27,-0.33,-0.51,-0.51,-0.50
149.26,-0.62,-0.09,-0.62,-0.09,0.08,-0.27,-0.33,-0.53,-0.53,-0.53
150.75,-0.71,-0.14,-0.71,-0.15,0.15,-0.26,-0.33,-0.56,-0.56,-0.56
152.26,-0.80,-0.20,-0.80,-0.20,0.21,-0.26,-0.34,-0.58,-0.58,-0.60
153.78,-0.89,-0.27,-0.89,-0.27,0.27,-0.26,-0.34,-0.61,-0.62,-0.62
155.32,-0.99,-0.33,-0.99,-0.34,0.33,-0.26,-0.34,-0.66,-0.65,-0.65
156.88,-1.08,-0.40,-1.07,-0.40,0.38,-0.26,-0.34,-0.69,-0.69,-0.68
158.44,-1.16,-0.45,-1.16,-0.45,0.43,-0.26,-0.34,-0.72,-0.72,-0.71
160.03,-1.23,-0.48,-1.23,-0.48,0.48,-0.26,-0.35,-0.75,-0.75,-0.75
161.63,-1.30,-0.52,-1.30,-0.51,0.52,-0.26,-0.35,-0.78,-0.78,-0.78
163.24,-1.36,-0.54,-1.36,-0.55,0.56,-0.26,-0.35,-0.80,-0.80,-0.82
164.88,-1.43,-0.59,-1.43,-0.58,0.59,-0.26,-0.35,-0.84,-0.84,-0.84
166.53,-1.49,-0.61,-1.49,-0.61,0.62,-0.26,-0.36,-0.87,-0.87,-0.88
168.19,-1.56,-0.65,-1.55,-0.64,0.64,-0.26,-0.36,-0.92,-0.91,-0.91
169.87,-1.61,-0.66,-1.61,-0.66,0.66,-0.26,-0.36,-0.95,-0.95,-0.95
171.57,-1.66,-0.67,-1.66,-0.68,0.67,-0.26,-0.37,-0.99,-0.99,-0.98
173.29,-1.71,-0.68,-1.71,-0.68,0.68,-0.27,-0.37,-1.03,-1.03,-1.03
175.02,-1.76,-0.69,-1.75,-0.68,0.68,-0.27,-0.38,-1.08,-1.07,-1.07
176.77,-1.79,-0.67,-1.79,-0.67,0.67,-0.27,-0.38,-1.11,-1.12,-1.11
178.54,-1.83,-0.66,-1.83,-0.66,0.66,-0.27,-0.39,-1.17,-1.17,-1.17
180.32,-1.86,-0.64,-1.86,-0.64,0.64,-0.28,-0.39,-1.21,-1.22,-1.21
182.13,-1.89,-0.63,-1.88,-0.62,0.62,-0.28,-0.40,-1.27,-1.26,-1.26
183.95,-1.91,-0.59,-1.90,-0.59,0.60,-0.28,-0.41,-1.31,-1.31,-1.31
185.79,-1.92,-0.56,-1.92,-0.56,0.57,-0.29,-0.41,-1.35,-1.35,-1.36
187.65,-1.94,-0.53,-1.94,-0.53,0.53,-0.29,-0.42,-1.40,-1.40,-1.41
189.52,-1.96,-0.50,-1.95,-0.50,0.50,-0.30,-0.43,-1.46,-1.46,-1.45
191.42,-1.97,-0.47,-1.97,-0.47,0.46,-0.30,-0.43,-1.51,-1.51,-1.50
193.33,-1.97,-0.43,-1.97,-0.43,0.42,-0.31,-0.44,-1.55,-1.55,-1.54
195.27,-1.97,-0.39,-1.96,-0.38,0.38,-0.31,-0.45,-1.59,-1.59,-1.58
197.22,-1.96,-0.32,-1.96,-0.33,0.34,-0.32,-0.45,-1.62,-1.62,-1.63
199.19,-1.96,-0.27,-1.96,-0.28,0.29,-0.33,-0.46,-1.66,-1.66,-1.68
201.18,-1.96,-0.23,-1.96,-0.24,0.25,-0.33,-0.47,-1.70,-1.71,-1.72
203.19,-1.97,-0.21,-1.96,-0.21,0.21,-0.34,-0.48,-1.76,-1.76,-1.76
205.23,-1.97,-0.17,-1.97,-0.18,0.16,-0.35,-0.49,-1.80,-1.80,-1.80
207.28,-1.97,-0.14,-1.97,-0.13,0.12,-0.36,-0.50,-1.85,-1.85,-1.83
209.35,-1.96,-0.08,-1.95,-0.08,0.07,-0.37,-0.50,-1.89,-1.88,-1.87
211.44,-1.94,-0.01,-1.94,-0.02,0.02,-0.38,-0.51,-1.91,-1.92,-1.92
213.56,-1.92,0.04,-1.92,0.04,-0.03,-0.39,-0.52,-1.95,-1.95,-1.95
215.69,-1.90,0.08,-1.90,0.09,-0.08,-0.40,-0.53,-1.98,-1.98,-1.98
217.85,-1.88,0.14,-1.88,0.14,-0.14,-0.41,-0.54,-2.02,-2.02,-2.02
220.03,-1.86,0.20,-1.85,0.20,-0.20,-0.42,-0.55,-2.06,-2.05,-2.06
222.23,-1.83,0.26,-1.82,0.26,-0.26,-0.44,-0.55,-2.08,-2.08,-2.09
224.45,-1.79,0.32,-1.79,0.32,-0.32,-0.45,-0.56,-2.10,-2.10,-2.10
226.70,-1.75,0.37,-1.75,0.38,-0.38,-0.47,-0.57,-2.12,-2.12,-2.12
228.96,-1.71,0.44,-1.71,0.43,-0.44,-0.49,-0.58,-2.14,-2.14,-2.15
231.25,-1.67,0.49,-1.66,0.49,-0.50,-0.50,-0.59,-2.16,-2.16,-2.15
233.57,-1.62,0.55,-1.62,0.55,-0.56,-0.52,-0.59,-2.17,-2.17,-2.17
235.90,-1.57,0.61,-1.56,0.62,-0.62,-0.55,-0.60,-2.18,-2.18,-2.18
238.26,-1.51,0.69,-1.51,0.68,-0.67,-0.57,-0.60,-2.18,-2.18,-2.19
240.64,-1.45,0.74,-1.45,0.74,-0.73,-0.59,-0.61,-2.18,-2.18,-2.19
243.05,-1.40,0.79,-1.40,0.79,-0.78,-0.62,-0.61,-2.18,-2.18,-2.18
245.48,-1.35,0.84,-1.35,0.84,-0.84,-0.65,-0.62,-2.18,-2.19,-2.19
247.93,-1.31,0.88,-1.30,0.89,-0.89,-0.68,-0.62,-2.20,-2.19,-2.18
250.41,-1.25,0.94,-1.24,0.94,-0.95,-0.71,-0.63,-2.19,-2.19,-2.19
252.92,-1.18,0.99,-1.18,0.99,-1.00,-0.74,-0.63,-2.18,-2.18,-2.16
255.45,-1.11,1.04,-1.11,1.05,-1.05,-0.78,-0.63,-2.16,-2.16,-2.15
258.00,-1.04,1.11,-1.04,1.10,-1.10,-0.82,-0.63,-2.14,-2.14,-2.14
260.58,-0.98,1.16,-0.97,1.16,-1.15,-0.86,-0.64,-2.13,-2.13,-2.14
263.19,-0.92,1.21,-0.91,1.21,-1.20,-0.90,-0.64,-2.12,-2.11,-2.12
265.82,-0.86,1.26,-0.86,1.25,-1.24,-0.94,-0.64,-2.10,-2.10,-2.12
268.48,-0.82,1.27,-0.82,1.28,-1.28,-0.98,-0.64,-2.09,-2.09,-2.09
271.16,-0.78,1.30,-0.77,1.30,-1.31,-1.02,-0.64,-2.08,-2.08,-2.07
273.87,-0.74,1.33,-0.74,1.33,-1.33,-1.06,-0.64,-2.07,-2.07,-2.07
276.61,-0.71,1.34,-0.71,1.35,-1.35,-1.09,-0.64,-2.05,-2.05,-2.05
279.38,-0.68,1.37,-0.68,1.36,-1.36,-1.12,-0.64,-2.04,-2.04,-2.04
282.17,-0.67,1.36,-0.66,1.37,-1.37,-1.13,-0.64,-2.04,-2.03,-2.03
284.99,-0.65,1.36,-0.64,1.37,-1.38,-1.15,-0.63,-2.02,-2.02,-2.01
287.84,-0.63,1.38,-0.63,1.37,-1.38,-1.15,-0.63,-2.00,-2.01,-2.00
290.72,-0.62,1.37,-0.61,1.38,-1.37,-1.15,-0.63,-1.99,-1.99,-1.99
293.63,-0.61,1.37,-0.61,1.37,-1.36,-1.15,-0.63,-1.97,-1.97,-1.98
296.57,-0.61,1.36,-0.61,1.35,-1.35,-1.13,-0.63,-1.95,-1.96,-1.96
299.53,-0.63,1.33,-0.63,1.33,-1.32,-1.11,-0.63,-1.95,-1.95,-1.96
302.53,-0.65,1.30,-0.64,1.30,-1.30,-1.09,-0.63,-1.94,-1.94,-1.95
305.55,-0.67,1.26,-0.67,1.27,-1.27,-1.06,-0.63,-1.94,-1.94,-1.93
308.61,-0.69,1.24,-0.69,1.23,-1.24,-1.04,-0.63,-1.92,-1.93,-1.92
311.69,-0.72,1.19,-0.71,1.19,-1.20,-1.01,-0.63,-1.92,-1.91,-1.91
314.81,-0.74,1.15,-0.74,1.16,-1.16,-0.98,-0.63,-1.90,-1.90,-1.89
317.96,-0.76,1.12,-0.76,1.12,-1.13,-0.96,-0.63,-1.88,-1.88,-1.88
321.14,-0.78,1.09,-0.78,1.09,-1.09,-0.93,-0.63,-1.86,-1.87,-1.87
324.35,-0.81,1.06,-0.81,1.05,-1.05,-0.91,-0.63,-1.85,-1.85,-1.86
327.59,-0.85,1.01,-0.84,1.01,-1.00,-0.89,-0.63,-1.85,-1.85,-1.86
330.87,-0.89,0.96,-0.89,0.96,-0.96,-0.87,-0.63,-1.84,-1.84,-1.85
334.18,-0.93,0.91,-0.93,0.91,-0.91,-0.86,-0.64,-1.84,-1.84,-1.84
337.52,-0.98,0.86,-0.97,0.86,-0.86,-0.84,-0.64,-1.84,-1.83,-1.84
340.90,-1.02,0.81,-1.02,0.81,-0.81,-0.83,-0.64,-1.83,-1.83,-1.82
344.30,-1.06,0.77,-1.06,0.76,-0.77,-0.82,-0.65,-1.82,-1.83,-1.82
347.75,-1.10,0.72,-1.10,0.72,-0.72,-0.81,-0.65,-1.82,-1.82,-1.82
351.23,-1.14,0.68,-1.13,0.68,-0.69,-0.81,-0.66,-1.82,-1.82,-1.82
354.74,-1.17,0.65,-1.16,0.65,-0.65,-0.80,-0.66,-1.82,-1.82,-1.82
358.28,-1.19,0.62,-1.19,0.62,-0.62,-0.80,-0.67,-1.81,-1.81,-1.81
361.87,-1.22,0.59,-1.21,0.60,-0.59,-0.79,-0.67,-1.81,-1.81,-1.81
365.49,-1.24,0.58,-1.24,0.57,-0.57,-0.79,-0.68,-1.81,-1.81,-1.81
369.14,-1.27,0.56,-1.27,0.56,-0.55,-0.79,-0.69,-1.82,-1.82,-1.82
372.83,-1.29,0.54,-1.29,0.53,-0.53,-0.79,-0.70,-1.82,-1.82,-1.82
376.56,-1.31,0.52,-1.31,0.52,-0.52,-0.79,-0.70,-1.83,-1.83,-1.83
380.33,-1.32,0.50,-1.31,0.51,-0.52,-0.80,-0.71,-1.83,-1.83,-1.82
384.13,-1.32,0.51,-1.32,0.51,-0.51,-0.80,-0.72,-1.83,-1.83,-1.83
387.97,-1.32,0.51,-1.32,0.51,-0.52,-0.81,-0.73,-1.83,-1.83,-1.83
391.85,-1.32,0.52,-1.31,0.52,-0.52,-0.81,-0.74,-1.84,-1.83,-1.84
395.77,-1.31,0.52,-1.31,0.53,-0.52,-0.82,-0.75,-1.83,-1.83,-1.83
399.73,-1.30,0.54,-1.30,0.54,-0.53,-0.82,-0.76,-1.83,-1.83,-1.84
403.72,-1.30,0.55,-1.30,0.54,-0.54,-0.83,-0.77,-1.83,-1.83,-1.84
407.76,-1.30,0.55,-1.30,0.54,-0.54,-0.84,-0.79,-1.84,-1.84,-1.84
411.84,-1.30,0.54,-1.30,0.54,-0.54,-0.85,-0.80,-1.84,-1.84,-1.83
415.96,-1.30,0.54,-1.30,0.54,-0.54,-0.86,-0.81,-1.84,-1.84,-1.83
420.12,-1.30,0.54,-1.30,0.54,-0.54,-0.86,-0.82,-1.84,-1.84,-1.84
424.32,-1.30,0.54,-1.30,0.54,-0.54,-0.87,-0.83,-1.84,-1.84,-1.84
428.56,-1.30,0.55,-1.30,0.55,-0.54,-0.88,-0.85,-1.84,-1.84,-1.85
432.85,-1.30,0.55,-1.30,0.55,-0.55,-0.89,-0.86,-1.84,-1.84,-1.85
437.18,-1.30,0.55,-1.30,0.55,-0.55,-0.91,-0.87,-1.84,-1.84,-1.85
441.55,-1.30,0.54,-1.30,0.55,-0.55,-0.92,-0.88,-1.84,-1.84,-1.84
445.96,-1.30,0.54,-1.30,0.55,-0.55,-0.93,-0.90,-1.85,-1.85,-1.84
450.42,-1.30,0.55,-1.30,0.55,-0.55,-0.94,-0.91,-1.84,-1.84,-1.85
454.93,-1.30,0.54,-1.30,0.55,-0.55,-0.95,-0.92,-1.84,-1.84,-1.84
459.48,-1.30,0.54,-1.30,0.55,-0.54,-0.97,-0.93,-1.84,-1.84,-1.84
464.07,-1.30,0.54,-1.30,0.54,-0.54,-0.98,-0.94,-1.83,-1.83,-1.84
468.71,-1.30,0.54,-1.30,0.54,-0.53,-0.99,-0.96,-1.83,-1.83,-1.83
473.40,-1.31,0.54,-1.31,0.53,-0.53,-1.01,-0.97,-1.83,-1.83,-1.84
478.13,-1.32,0.52,-1.31,0.52,-0.52,-1.02,-0.98,-1.84,-1.84,-1.83
482.91,-1.32,0.52,-1.32,0.52,-0.52,-1.04,-0.99,-1.84,-1.84,-1.83
487.74,-1.32,0.52,-1.32,0.52,-0.52,-1.05,-1.00,-1.84,-1.84,-1.83
492.62,-1.31,0.52,-1.31,0.52,-0.53,-1.07,-1.01,-1.83,-1.83,-1.82
