frequency,raw,error,smoothed,error_smoothed,equalization,parametric_eq,fixed_band_eq,equalized_raw,equalized_smoothed,target
20.00,-8.55,-6.05,-8.54,-6.04,5.94,5.82,1.66,-2.61,-2.60,-2.50
20.20,-8.57,-6.08,-8.58,-6.09,5.99,5.80,1.71,-2.58,-2.59,-2.49
20.40,-8.59,-6.11,-8.61,-6.13,6.03,5.77,1.76,-2.56,-2.58,-2.48
20.61,-8.61,-6.13,-8.62,-6.15,6.05,5.74,1.82,-2.56,-2.57,-2.48
20.81,-8.63,-6.16,-8.64,-6.16,6.05,5.71,1.87,-2.58,-2.59,-2.47
21.02,-8.64,-6.17,-8.62,-6.15,6.03,5.67,1.93,-2.61,-2.58,-2.47
21.23,-8.55,-6.09,-8.56,-6.10,6.00,5.63,1.99,-2.55,-2.56,-2.46
21.44,-8.46,-6.00,-8.48,-6.01,5.95,5.58,2.05,-2.52,-2.53,-2.46
21.66,-8.37,-5.91,-8.38,-5.92,5.88,5.53,2.11,-2.50,-2.50,-2.46
21.87,-8.28,-5.82,-8.27,-5.82,5.78,5.47,2.17,-2.50,-2.49,-2.46
22.09,-8.16,-5.71,-8.15,-5.70,5.67,5.42,2.24,-2.49,-2.48,-2.45
22.31,-8.00,-5.55,-8.01,-5.56,5.54,5.36,2.30,-2.46,-2.47,-2.45
22.54,-7.86,-5.40,-7.85,-5.39,5.40,5.29,2.37,-2.46,-2.45,-2.46
22.76,-7.69,-5.22,-7.69,-5.22,5.26,5.23,2.44,-2.44,-2.43,-2.47
22.99,-7.53,-5.06,-7.56,-5.09,5.12,5.16,2.51,-2.42,-2.44,-2.47
23.22,-7.45,-4.98,-7.45,-4.97,5.00,5.09,2.59,-2.45,-2.45,-2.47
23.45,-7.37,-4.89,-7.36,-4.88,4.90,5.02,2.66,-2.47,-2.46,-2.48
23.69,-7.30,-4.81,-7.29,-4.81,4.83,4.95,2.74,-2.47,-2.46,-2.48
23.92,-7.21,-4.73,-7.23,-4.75,4.77,4.87,2.82,-2.44,-2.46,-2.48
24.16,-7.18,-4.70,-7.19,-4.71,4.73,4.80,2.90,-2.45,-2.46,-2.48
24.40,-7.17,-4.69,-7.17,-4.69,4.69,4.72,2.98,-2.49,-2.48,-2.48
24.65,-7.15,-4.67,-7.16,-4.68,4.64,4.64,3.06,-2.51,-2.52,-2.48
24.89,-7.14,-4.66,-7.13,-4.64,4.59,4.57,3.14,-2.55,-2.53,-2.48
25.14,-7.07,-4.59,-7.07,-4.58,4.54,4.49,3.22,-2.54,-2.53,-2.48
25.39,-6.97,-4.48,-6.98,-4.49,4.47,4.41,3.31,-2.50,-2.51,-2.49
25.65,-6.88,-4.39,-6.88,-4.39,4.40,4.33,3.39,-2.48,-2.48,-2.49
25.91,-6.79,-4.29,-6.79,-4.30,4.33,4.25,3.47,-2.46,-2.46,-2.49
26.16,-6.70,-4.21,-6.71,-4.22,4.25,4.18,3.56,-2.45,-2.46,-2.49
26.43,-6.65,-4.16,-6.65,-4.16,4.18,4.10,3.64,-2.47,-2.46,-2.49
26.69,-6.59,-4.10,-6.59,-4.10,4.12,4.02,3.72,-2.47,-2.47,-2.49
26.96,-6.54,-4.05,-6.54,-4.05,4.06,3.94,3.80,-2.48,-2.48,-2.49
27.23,-6.49,-4.00,-6.50,-4.00,4.00,3.87,3.88,-2.49,-2.50,-2.49
27.50,-6.44,-3.95,-6.45,-3.96,3.93,3.79,3.95,-2.52,-2.52,-2.49
27.77,-6.39,-3.90,-6.39,-3.90,3.84,3.72,4.02,-2.55,-2.55,-2.49
28.05,-6.32,-3.83,-6.30,-3.81,3.75,3.64,4.09,-2.57,-2.55,-2.49
28.33,-6.18,-3.69,-6.18,-3.69,3.66,3.57,4.15,-2.52,-2.52,-2.49
28.62,-6.04,-3.55,-6.03,-3.55,3.57,3.50,4.21,-2.46,-2.46,-2.49
28.90,-5.88,-3.40,-5.91,-3.42,3.49,3.43,4.26,-2.39,-2.42,-2.48
29.19,-5.82,-3.34,-5.83,-3.35,3.42,3.36,4.31,-2.40,-2.41,-2.48
29.48,-5.80,-3.32,-5.79,-3.32,3.36,3.29,4.35,-2.44,-2.43,-2.48
29.78,-5.78,-3.31,-5.78,-3.31,3.31,3.22,4.39,-2.47,-2.47,-2.47
30.08,-5.76,-3.29,-5.76,-3.29,3.27,3.15,4.42,-2.50,-2.50,-2.47
30.38,-5.74,-3.27,-5.75,-3.28,3.23,3.08,4.44,-2.52,-2.52,-2.47
30.68,-5.72,-3.25,-5.72,-3.25,3.19,3.02,4.46,-2.53,-2.53,-2.47
30.99,-5.69,-3.22,-5.68,-3.21,3.16,2.95,4.46,-2.53,-2.52,-2.47
31.30,-5.60,-3.13,-5.60,-3.13,3.13,2.89,4.46,-2.47,-2.46,-2.47
31.61,-5.51,-3.04,-5.51,-3.04,3.11,2.83,4.45,-2.40,-2.40,-2.47
31.93,-5.42,-2.94,-5.45,-2.98,3.08,2.77,4.44,-2.33,-2.37,-2.47
32.24,-5.45,-2.97,-5.47,-3.00,3.04,2.71,4.41,-2.41,-2.43,-2.48
32.57,-5.53,-3.05,-5.53,-3.05,3.01,2.65,4.38,-2.53,-2.52,-2.48
32.89,-5.60,-3.12,-5.57,-3.08,2.97,2.59,4.35,-2.63,-2.60,-2.48
33.22,-5.54,-3.05,-5.52,-3.03,2.94,2.53,4.30,-2.60,-2.58,-2.49
33.55,-5.41,-2.92,-5.42,-2.92,2.92,2.48,4.25,-2.49,-2.49,-2.49
33.89,-5.27,-2.77,-5.31,-2.81,2.90,2.42,4.19,-2.37,-2.41,-2.50
34.23,-5.25,-2.75,-5.27,-2.77,2.87,2.37,4.13,-2.39,-2.40,-2.50
34.57,-5.27,-2.77,-5.27,-2.77,2.81,2.32,4.07,-2.46,-2.46,-2.50
34.92,-5.29,-2.79,-5.27,-2.77,2.73,2.27,4.00,-2.56,-2.54,-2.50
35.27,-5.24,-2.74,-5.25,-2.74,2.64,2.22,3.92,-2.60,-2.60,-2.50
35.62,-5.15,-2.65,-5.17,-2.67,2.56,2.17,3.84,-2.59,-2.61,-2.50
35.97,-5.07,-2.57,-5.04,-2.54,2.48,2.12,3.76,-2.59,-2.56,-2.50
36.33,-4.88,-2.38,-4.87,-2.37,2.40,2.07,3.68,-2.48,-2.47,-2.50
36.70,-4.71,-2.20,-4.71,-2.21,2.32,2.03,3.59,-2.39,-2.40,-2.50
37.06,-4.55,-2.05,-4.62,-2.12,2.23,1.98,3.51,-2.33,-2.39,-2.50
37.43,-4.60,-2.10,-4.60,-2.11,2.15,1.94,3.42,-2.45,-2.45,-2.50
37.81,-4.65,-2.16,-4.62,-2.12,2.09,1.90,3.33,-2.56,-2.53,-2.49
38.19,-4.63,-2.14,-4.61,-2.11,2.05,1.85,3.24,-2.58,-2.56,-2.49
38.57,-4.53,-2.04,-4.54,-2.05,2.02,1.81,3.16,-2.52,-2.52,-2.49
38.95,-4.43,-1.95,-4.47,-1.99,1.99,1.77,3.07,-2.45,-2.49,-2.48
39.34,-4.42,-1.94,-4.43,-1.95,1.94,1.73,2.98,-2.48,-2.49,-2.48
39.74,-4.42,-1.94,-4.41,-1.93,1.89,1.69,2.89,-2.53,-2.51,-2.48
40.14,-4.38,-1.90,-4.36,-1.87,1.85,1.65,2.81,-2.54,-2.51,-2.48
40.54,-4.27,-1.79,-4.28,-1.80,1.81,1.62,2.72,-2.46,-2.46,-2.48
40.94,-4.17,-1.69,-4.21,-1.73,1.79,1.58,2.64,-2.38,-2.41,-2.48
41.35,-4.17,-1.69,-4.18,-1.69,1.78,1.54,2.55,-2.39,-2.40,-2.48
41.76,-4.20,-1.71,-4.20,-1.71,1.76,1.51,2.47,-2.45,-2.44,-2.49
42.18,-4.24,-1.75,-4.26,-1.77,1.73,1.48,2.39,-2.52,-2.53,-2.49
42.60,-4.29,-1.80,-4.30,-1.80,1.69,1.44,2.31,-2.60,-2.60,-2.49
43.03,-4.32,-1.83,-4.26,-1.76,1.66,1.41,2.23,-2.67,-2.60,-2.49
43.46,-4.15,-1.66,-4.16,-1.66,1.62,1.38,2.16,-2.53,-2.54,-2.49
43.90,-4.00,-1.49,-4.04,-1.54,1.59,1.35,2.08,-2.41,-2.46,-2.50
44.33,-3.94,-1.44,-3.95,-1.45,1.55,1.32,2.01,-2.40,-2.40,-2.50
44.78,-3.93,-1.43,-3.92,-1.42,1.50,1.29,1.94,-2.44,-2.42,-2.50
45.23,-3.92,-1.42,-3.92,-1.42,1.45,1.26,1.87,-2.47,-2.47,-2.50
45.68,-3.92,-1.42,-3.93,-1.43,1.40,1.23,1.80,-2.52,-2.52,-2.50
46.13,-3.92,-1.43,-3.93,-1.44,1.37,1.20,1.74,-2.55,-2.56,-2.49
46.60,-3.92,-1.43,-3.92,-1.43,1.36,1.17,1.67,-2.56,-2.56,-2.49
47.06,-3.90,-1.42,-3.86,-1.38,1.36,1.14,1.61,-2.54,-2.49,-2.48
47.53,-3.78,-1.31,-3.78,-1.31,1.36,1.12,1.55,-2.42,-2.42,-2.47
48.01,-3.66,-1.20,-3.74,-1.28,1.36,1.09,1.49,-2.31,-2.38,-2.46
48.49,-3.74,-1.29,-3.74,-1.29,1.34,1.07,1.43,-2.40,-2.40,-2.45
48.97,-3.82,-1.38,-3.79,-1.35,1.32,1.04,1.38,-2.50,-2.47,-2.44
49.46,-3.82,-1.39,-3.83,-1.41,1.31,1.02,1.32,-2.51,-2.52,-2.43
49.96,-3.82,-1.41,-3.78,-1.36,1.31,0.99,1.27,-2.52,-2.47,-2.41
50.46,-3.69,-1.29,-3.69,-1.29,1.31,0.97,1.21,-2.39,-2.38,-2.40
50.96,-3.55,-1.17,-3.63,-1.24,1.30,0.95,1.16,-2.26,-2.33,-2.38
51.47,-3.59,-1.22,-3.59,-1.22,1.27,0.92,1.11,-2.32,-2.32,-2.37
51.99,-3.64,-1.28,-3.60,-1.24,1.24,0.90,1.06,-2.40,-2.36,-2.36
52.51,-3.59,-1.24,-3.60,-1.24,1.20,0.88,1.02,-2.39,-2.40,-2.35
53.03,-3.53,-1.19,-3.53,-1.19,1.16,0.86,0.97,-2.38,-2.37,-2.34
53.56,-3.44,-1.11,-3.45,-1.12,1.12,0.84,0.93,-2.33,-2.33,-2.33
54.10,-3.36,-1.05,-3.37,-1.06,1.07,0.82,0.88,-2.30,-2.31,-2.31
54.64,-3.31,-1.01,-3.32,-1.01,1.01,0.80,0.84,-2.31,-2.31,-2.30
55.18,-3.26,-0.97,-3.27,-0.98,0.95,0.78,0.80,-2.32,-2.32,-2.29
55.74,-3.22,-0.93,-3.20,-0.91,0.89,0.76,0.76,-2.33,-2.30,-2.29
56.29,-3.13,-0.85,-3.11,-0.83,0.86,0.74,0.72,-2.28,-2.25,-2.28
56.86,-3.00,-0.73,-3.06,-0.79,0.85,0.72,0.68,-2.16,-2.21,-2.27
57.42,-3.03,-0.76,-3.05,-0.78,0.85,0.70,0.65,-2.18,-2.20,-2.27
58.00,-3.11,-0.84,-3.07,-0.80,0.86,0.68,0.61,-2.26,-2.21,-2.27
58.58,-3.12,-0.85,-3.14,-0.87,0.86,0.66,0.58,-2.26,-2.27,-2.27
59.16,-3.15,-0.88,-3.20,-0.93,0.87,0.64,0.55,-2.28,-2.33,-2.27
59.76,-3.26,-0.99,-3.23,-0.95,0.87,0.63,0.52,-2.39,-2.36,-2.27
60.35,-3.24,-0.96,-3.21,-0.93,0.86,0.61,0.49,-2.39,-2.35,-2.28
60.96,-3.13,-0.84,-3.13,-0.84,0.81,0.59,0.46,-2.32,-2.31,-2.29
61.57,-3.00,-0.70,-3.05,-0.74,0.75,0.57,0.43,-2.25,-2.30,-2.30
62.18,-2.94,-0.62,-3.00,-0.68,0.67,0.56,0.40,-2.27,-2.33,-2.32
62.80,-3.02,-0.68,-2.93,-0.59,0.59,0.54,0.38,-2.43,-2.34,-2.34
63.43,-2.90,-0.53,-2.87,-0.50,0.52,0.52,0.35,-2.38,-2.35,-2.37
64.07,-2.72,-0.33,-2.81,-0.42,0.47,0.51,0.33,-2.26,-2.34,-2.39
64.71,-2.77,-0.35,-2.77,-0.35,0.43,0.49,0.31,-2.34,-2.35,-2.42
65.35,-2.83,-0.39,-2.82,-0.38,0.41,0.47,0.29,-2.42,-2.41,-2.44
66.01,-2.91,-0.45,-2.91,-0.45,0.41,0.46,0.27,-2.50,-2.50,-2.46
66.67,-2.96,-0.48,-2.95,-0.47,0.43,0.44,0.25,-2.54,-2.52,-2.48
67.33,-2.98,-0.49,-2.97,-0.47,0.46,0.43,0.23,-2.52,-2.51,-2.49
68.01,-2.96,-0.45,-2.99,-0.48,0.50,0.41,0.21,-2.46,-2.49,-2.51
68.69,-3.02,-0.50,-3.04,-0.52,0.55,0.39,0.19,-2.47,-2.49,-2.52
69.37,-3.11,-0.58,-3.11,-0.58,0.59,0.38,0.18,-2.52,-2.52,-2.53
70.07,-3.20,-0.66,-3.18,-0.64,0.63,0.36,0.16,-2.58,-2.55,-2.54
70.77,-3.22,-0.67,-3.22,-0.67,0.66,0.34,0.15,-2.56,-2.56,-2.55
71.48,-3.23,-0.68,-3.26,-0.71,0.69,0.33,0.13,-2.54,-2.57,-2.55
72.19,-3.26,-0.70,-3.27,-0.71,0.71,0.31,0.12,-2.55,-2.56,-2.56
72.91,-3.32,-0.75,-3.25,-0.68,0.70,0.29,0.10,-2.62,-2.55,-2.57
73.64,-3.19,-0.61,-3.27,-0.68,0.66,0.28,0.09,-2.53,-2.60,-2.58
74.38,-3.20,-0.61,-3.26,-0.66,0.60,0.26,0.08,-2.61,-2.66,-2.59
75.12,-3.30,-0.70,-3.19,-0.58,0.52,0.24,0.07,-2.78,-2.66,-2.60
75.87,-3.09,-0.47,-3.08,-0.47,0.43,0.23,0.05,-2.66,-2.66,-2.62
76.63,-2.88,-0.25,-2.96,-0.32,0.33,0.21,0.04,-2.55,-2.63,-2.63
77.40,-2.79,-0.14,-2.80,-0.15,0.23,0.19,0.03,-2.56,-2.57,-2.65
78.17,-2.80,-0.14,-2.74,-0.08,0.14,0.17,0.02,-2.66,-2.60,-2.66
78.95,-2.66,0.02,-2.73,-0.05,0.07,0.15,0.00,-2.60,-2.66,-2.68
79.74,-2.73,-0.04,-2.71,-0.02,0.02,0.13,-0.01,-2.71,-2.69,-2.69
80.54,-2.72,-0.01,-2.66,0.05,-0.01,0.11,-0.02,-2.73,-2.67,-2.71
81.35,-2.65,0.07,-2.70,0.02,-0.01,0.09,-0.03,-2.67,-2.71,-2.72
82.16,-2.62,0.11,-2.71,0.02,-0.00,0.07,-0.04,-2.63,-2.72,-2.73
82.98,-2.88,-0.14,-2.74,0.00,0.00,0.05,-0.06,-2.88,-2.73,-2.74
83.81,-2.72,0.03,-2.78,-0.03,-0.01,0.03,-0.07,-2.73,-2.79,-2.75
84.65,-2.74,0.01,-2.79,-0.04,-0.03,0.00,-0.08,-2.78,-2.82,-2.75
85.50,-2.77,-0.01,-2.71,0.06,-0.08,-0.02,-0.09,-2.85,-2.79,-2.76
86.35,-2.68,0.09,-2.68,0.09,-0.14,-0.04,-0.11,-2.83,-2.82,-2.77
87.22,-2.52,0.26,-2.61,0.17,-0.22,-0.07,-0.12,-2.74,-2.83,-2.78
88.09,-2.56,0.23,-2.49,0.30,-0.29,-0.10,-0.13,-2.85,-2.77,-2.79
88.97,-2.42,0.37,-2.38,0.41,-0.35,-0.13,-0.14,-2.77,-2.73,-2.79
89.86,-2.20,0.60,-2.31,0.49,-0.41,-0.15,-0.16,-2.61,-2.72,-2.80
90.76,-2.28,0.53,-2.26,0.55,-0.46,-0.18,-0.17,-2.74,-2.71,-2.81
91.66,-2.30,0.51,-2.30,0.51,-0.49,-0.22,-0.18,-2.80,-2.80,-2.81
92.58,-2.36,0.45,-2.37,0.44,-0.53,-0.25,-0.20,-2.89,-2.90,-2.81
93.51,-2.41,0.41,-2.36,0.46,-0.55,-0.28,-0.21,-2.96,-2.91,-2.82
94.44,-2.32,0.50,-2.32,0.50,-0.56,-0.31,-0.23,-2.88,-2.87,-2.82
95.39,-2.20,0.62,-2.26,0.57,-0.56,-0.35,-0.24,-2.76,-2.81,-2.82
96.34,-2.21,0.61,-2.21,0.62,-0.55,-0.38,-0.26,-2.77,-2.76,-2.82
97.30,-2.21,0.61,-2.20,0.62,-0.55,-0.42,-0.27,-2.77,-2.75,-2.82
98.28,-2.22,0.61,-2.22,0.61,-0.56,-0.45,-0.28,-2.78,-2.78,-2.83
99.26,-2.24,0.59,-2.26,0.57,-0.56,-0.49,-0.30,-2.80,-2.82,-2.83
100.25,-2.30,0.53,-2.32,0.51,-0.55,-0.52,-0.31,-2.86,-2.87,-2.83
101.25,-2.39,0.44,-2.36,0.48,-0.55,-0.56,-0.33,-2.94,-2.90,-2.83
102.27,-2.37,0.47,-2.35,0.49,-0.55,-0.59,-0.34,-2.92,-2.90,-2.84
103.29,-2.28,0.57,-2.30,0.55,-0.56,-0.62,-0.36,-2.85,-2.87,-2.85
104.32,-2.22,0.64,-2.26,0.60,-0.59,-0.65,-0.37,-2.81,-2.85,-2.86
105.37,-2.24,0.62,-2.24,0.63,-0.62,-0.67,-0.39,-2.86,-2.85,-2.86
106.42,-2.25,0.62,-2.21,0.66,-0.64,-0.69,-0.40,-2.90,-2.85,-2.87
107.48,-2.18,0.70,-2.19,0.69,-0.67,-0.71,-0.42,-2.85,-2.85,-2.88
108.56,-2.12,0.77,-2.18,0.72,-0.68,-0.72,-0.43,-2.80,-2.86,-2.89
109.64,-2.20,0.70,-2.19,0.71,-0.68,-0.73,-0.44,-2.88,-2.87,-2.90
110.74,-2.25,0.65,-2.23,0.67,-0.67,-0.73,-0.46,-2.92,-2.91,-2.90
111.85,-2.27,0.63,-2.27,0.63,-0.66,-0.73,-0.47,-2.93,-2.93,-2.90
112.97,-2.28,0.62,-2.28,0.62,-0.64,-0.72,-0.48,-2.92,-2.93,-2.90
114.10,-2.28,0.62,-2.29,0.61,-0.62,-0.71,-0.49,-2.91,-2.91,-2.90
115.24,-2.29,0.60,-2.29,0.60,-0.61,-0.69,-0.50,-2.90,-2.90,-2.89
116.39,-2.29,0.60,-2.29,0.60,-0.59,-0.68,-0.51,-2.88,-2.88,-2.89
117.55,-2.28,0.59,-2.29,0.59,-0.58,-0.66,-0.52,-2.87,-2.87,-2.87
118.73,-2.28,0.58,-2.28,0.58,-0.57,-0.63,-0.53,-2.86,-2.86,-2.86
119.92,-2.27,0.57,-2.27,0.57,-0.56,-0.61,-0.53,-2.84,-2.84,-2.84
121.12,-2.26,0.56,-2.27,0.56,-0.55,-0.58,-0.54,-2.81,-2.82,-2.82
122.33,-2.25,0.55,-2.26,0.54,-0.54,-0.56,-0.55,-2.79,-2.80,-2.80
123.55,-2.25,0.53,-2.25,0.53,-0.54,-0.53,-0.55,-2.79,-2.79,-2.78
124.79,-2.24,0.52,-2.24,0.52,-0.53,-0.50,-0.55,-2.78,-2.78,-2.76
126.03,-2.23,0.51,-2.25,0.50,-0.53,-0.48,-0.56,-2.76,-2.77,-2.74
127.29,-2.23,0.49,-2.23,0.49,-0.51,-0.45,-0.56,-2.75,-2.74,-2.72
128.57,-2.22,0.48,-2.18,0.52,-0.49,-0.43,-0.56,-2.71,-2.67,-2.70
129.85,-2.13,0.55,-2.16,0.52,-0.46,-0.41,-0.56,-2.60,-2.62,-2.68
131.15,-2.11,0.55,-2.17,0.49,-0.44,-0.38,-0.55,-2.55,-2.61,-2.66
132.46,-2.24,0.41,-2.21,0.43,-0.42,-0.36,-0.55,-2.66,-2.63,-2.65
133.79,-2.30,0.33,-2.28,0.35,-0.40,-0.34,-0.55,-2.71,-2.69,-2.63
135.12,-2.30,0.32,-2.31,0.31,-0.39,-0.32,-0.54,-2.69,-2.70,-2.62
136.48,-2.29,0.31,-2.27,0.33,-0.37,-0.30,-0.54,-2.67,-2.65,-2.60
137.84,-2.21,0.38,-2.22,0.38,-0.36,-0.29,-0.53,-2.58,-2.58,-2.59
139.22,-2.14,0.44,-2.18,0.40,-0.36,-0.27,-0.53,-2.50,-2.54,-2.58
140.61,-2.16,0.41,-2.16,0.41,-0.36,-0.26,-0.52,-2.52,-2.52,-2.57
142.02,-2.19,0.37,-2.18,0.39,-0.37,-0.24,-0.51,-2.56,-2.54,-2.56
143.44,-2.19,0.37,-2.19,0.37,-0.38,-0.23,-0.50,-2.57,-2.57,-2.56
144.87,-2.19,0.37,-2.20,0.36,-0.39,-0.22,-0.50,-2.58,-2.58,-2.56
146.32,-2.19,0.37,-2.19,0.37,-0.39,-0.21,-0.49,-2.58,-2.58,-2.56
147.78,-2.19,0.38,-2.19,0.38,-0.39,-0.20,-0.48,-2.58,-2.58,-2.57
149.26,-2.19,0.39,-2.19,0.39,-0.40,-0.19,-0.47,-2.59,-2.59,-2.58
150.75,-2.19,0.41,-2.18,0.42,-0.41,-0.18,-0.46,-2.60,-2.59,-2.60
152.26,-2.19,0.44,-2.20,0.43,-0.42,-0.17,-0.45,-2.61,-2.62,-2.63
153.78,-2.19,0.47,-2.24,0.42,-0.42,-0.16,-0.44,-2.61,-2.66,-2.66
155.32,-2.33,0.37,-2.27,0.43,-0.41,-0.16,-0.43,-2.74,-2.68,-2.70
156.88,-2.32,0.41,-2.30,0.44,-0.40,-0.15,-0.42,-2.72,-2.69,-2.73
158.44,-2.27,0.50,-2.35,0.42,-0.40,-0.15,-0.41,-2.67,-2.74,-2.77
160.03,-2.39,0.41,-2.42,0.38,-0.40,-0.14,-0.40,-2.79,-2.82,-2.80
161.63,-2.54,0.28,-2.49,0.34,-0.40,-0.14,-0.39,-2.95,-2.89,-2.82
163.24,-2.58,0.27,-2.52,0.33,-0.41,-0.13,-0.38,-2.99,-2.93,-2.85
164.88,-2.42,0.44,-2.49,0.38,-0.41,-0.13,-0.38,-2.83,-2.90,-2.86
166.53,-2.40,0.47,-2.41,0.46,-0.41,-0.13,-0.37,-2.81,-2.82,-2.87
168.19,-2.40,0.47,-2.38,0.49,-0.40,-0.12,-0.36,-2.80,-2.78,-2.87
169.87,-2.37,0.49,-2.42,0.44,-0.39,-0.12,-0.35,-2.76,-2.81,-2.86
171.57,-2.49,0.36,-2.47,0.38,-0.37,-0.12,-0.34,-2.86,-2.84,-2.85
173.29,-2.52,0.31,-2.51,0.32,-0.34,-0.12,-0.33,-2.86,-2.85,-2.83
175.02,-2.53,0.27,-2.54,0.26,-0.30,-0.12,-0.33,-2.83,-2.84,-2.80
176.77,-2.53,0.24,-2.54,0.23,-0.26,-0.12,-0.32,-2.79,-2.80,-2.77
178.54,-2.53,0.21,-2.54,0.20,-0.22,-0.12,-0.31,-2.76,-2.76,-2.74
180.32,-2.53,0.17,-2.53,0.17,-0.20,-0.12,-0.31,-2.73,-2.73,-2.70
182.13,-2.52,0.15,-2.53,0.13,-0.16,-0.12,-0.30,-2.69,-2.70,-2.67
183.95,-2.51,0.12,-2.50,0.13,-0.12,-0.12,-0.29,-2.64,-2.63,-2.63
185.79,-2.50,0.11,-2.45,0.16,-0.09,-0.13,-0.29,-2.59,-2.53,-2.61
187.65,-2.38,0.21,-2.46,0.13,-0.05,-0.13,-0.28,-2.44,-2.51,-2.59
189.52,-2.45,0.12,-2.53,0.04,-0.02,-0.14,-0.28,-2.48,-2.55,-2.57
191.42,-2.71,-0.15,-2.63,-0.07,0.01,-0.14,-0.27,-2.71,-2.62,-2.56
193.33,-2.74,-0.20,-2.69,-0.15,0.04,-0.15,-0.27,-2.71,-2.66,-2.54
195.27,-2.65,-0.12,-2.66,-0.12,0.06,-0.16,-0.26,-2.59,-2.59,-2.53
197.22,-2.53,-0.00,-2.58,-0.06,0.09,-0.17,-0.26,-2.44,-2.49,-2.53
199.19,-2.53,-0.01,-2.57,-0.05,0.13,-0.18,-0.25,-2.41,-2.45,-2.52
201.18,-2.65,-0.13,-2.62,-0.09,0.16,-0.19,-0.25,-2.50,-2.46,-2.52
203.19,-2.69,-0.17,-2.67,-0.15,0.19,-0.21,-0.25,-2.51,-2.48,-2.52
205.23,-2.69,-0.17,-2.70,-0.18,0.21,-0.23,-0.24,-2.48,-2.48,-2.52
207.28,-2.69,-0.17,-2.73,-0.21,0.24,-0.26,-0.24,-2.45,-2.49,-2.52
209.35,-2.75,-0.23,-2.77,-0.25,0.25,-0.29,-0.24,-2.51,-2.52,-2.52
211.44,-2.82,-0.29,-2.79,-0.26,0.20,-0.33,-0.23,-2.62,-2.59,-2.53
213.56,-2.75,-0.22,-2.74,-0.21,0.08,-0.39,-0.23,-2.67,-2.66,-2.53
215.69,-2.59,-0.05,-2.60,-0.06,-0.11,-0.45,-0.23,-2.70,-2.71,-2.54
217.85,-2.35,0.19,-2.39,0.16,-0.35,-0.52,-0.23,-2.70,-2.73,-2.54
220.03,-2.10,0.45,-2.07,0.48,-0.59,-0.62,-0.22,-2.70,-2.66,-2.55
222.23,-1.77,0.78,-1.67,0.88,-0.83,-0.72,-0.22,-2.60,-2.49,-2.55
224.45,-1.23,1.32,-1.31,1.24,-1.03,-0.84,-0.22,-2.26,-2.34,-2.55
226.70,-0.97,1.58,-1.09,1.46,-1.18,-0.94,-0.22,-2.16,-2.27,-2.55
228.96,-1.10,1.45,-1.05,1.50,-1.27,-1.01,-0.21,-2.37,-2.32,-2.55
231.25,-1.21,1.33,-1.21,1.34,-1.29,-1.02,-0.21,-2.50,-2.50,-2.54
233.57,-1.38,1.16,-1.41,1.13,-1.23,-0.98,-0.21,-2.61,-2.64,-2.54
235.90,-1.60,0.93,-1.54,0.99,-1.11,-0.89,-0.21,-2.72,-2.65,-2.53
238.26,-1.65,0.87,-1.64,0.88,-0.96,-0.78,-0.21,-2.61,-2.59,-2.52
240.64,-1.68,0.82,-1.73,0.77,-0.81,-0.67,-0.20,-2.49,-2.54,-2.50
243.05,-1.78,0.71,-1.83,0.66,-0.67,-0.57,-0.20,-2.46,-2.51,-2.49
245.48,-2.00,0.48,-1.94,0.54,-0.57,-0.49,-0.20,-2.57,-2.51,-2.48
247.93,-2.05,0.42,-2.03,0.44,-0.49,-0.42,-0.20,-2.54,-2.52,-2.47
250.41,-2.02,0.44,-2.08,0.38,-0.41,-0.37,-0.20,-2.43,-2.48,-2.46
252.92,-2.11,0.34,-2.09,0.37,-0.32,-0.32,-0.19,-2.43,-2.40,-2.45
255.45,-2.14,0.31,-2.14,0.31,-0.22,-0.29,-0.19,-2.37,-2.36,-2.45
258.00,-2.20,0.25,-2.25,0.20,-0.14,-0.26,-0.19,-2.34,-2.39,-2.45
260.58,-2.38,0.07,-2.38,0.07,-0.06,-0.24,-0.19,-2.44,-2.44,-2.45
263.19,-2.56,-0.11,-2.52,-0.07,0.02,-0.22,-0.18,-2.55,-2.50,-2.45
265.82,-2.61,-0.16,-2.61,-0.16,0.08,-0.20,-0.18,-2.53,-2.53,-2.45
268.48,-2.63,-0.18,-2.64,-0.19,0.14,-0.19,-0.18,-2.49,-2.50,-2.45
271.16,-2.63,-0.18,-2.64,-0.19,0.18,-0.18,-0.18,-2.45,-2.46,-2.45
273.87,-2.64,-0.19,-2.64,-0.19,0.21,-0.17,-0.18,-2.44,-2.44,-2.45
276.61,-2.64,-0.19,-2.64,-0.19,0.21,-0.17,-0.17,-2.43,-2.43,-2.45
279.38,-2.64,-0.19,-2.64,-0.20,0.21,-0.16,-0.17,-2.43,-2.43,-2.45
282.17,-2.63,-0.19,-2.64,-0.20,0.21,-0.16,-0.17,-2.43,-2.43,-2.44
284.99,-2.63,-0.20,-2.62,-0.19,0.21,-0.15,-0.17,-2.42,-2.41,-2.43
287.84,-2.62,-0.19,-2.62,-0.20,0.21,-0.15,-0.16,-2.41,-2.41,-2.43
290.72,-2.60,-0.18,-2.64,-0.22,0.22,-0.15,-0.16,-2.39,-2.42,-2.42
293.63,-2.66,-0.25,-2.64,-0.22,0.21,-0.14,-0.16,-2.45,-2.42,-2.41
296.57,-2.64,-0.24,-2.63,-0.22,0.20,-0.14,-0.16,-2.44,-2.42,-2.40
299.53,-2.58,-0.18,-2.61,-0.21,0.18,-0.14,-0.15,-2.40,-2.42,-2.40
302.53,-2.56,-0.17,-2.58,-0.18,0.16,-0.14,-0.15,-2.40,-2.41,-2.39
305.55,-2.55,-0.16,-2.52,-0.13,0.13,-0.14,-0.15,-2.42,-2.39,-2.39
308.61,-2.49,-0.10,-2.47,-0.08,0.10,-0.14,-0.15,-2.40,-2.37,-2.39
311.69,-2.36,0.03,-2.42,-0.03,0.05,-0.14,-0.14,-2.31,-2.37,-2.39
314.81,-2.39,0.01,-2.41,-0.01,0.00,-0.14,-0.14,-2.39,-2.40,-2.40
317.96,-2.42,-0.02,-2.39,0.02,-0.04,-0.15,-0.14,-2.46,-2.42,-2.40
321.14,-2.39,0.02,-2.35,0.05,-0.07,-0.15,-0.14,-2.46,-2.42,-2.41
324.35,-2.26,0.15,-2.30,0.11,-0.09,-0.15,-0.13,-2.36,-2.39,-2.41
327.59,-2.23,0.19,-2.27,0.15,-0.11,-0.15,-0.13,-2.34,-2.38,-2.42
330.87,-2.30,0.13,-2.28,0.15,-0.12,-0.15,-0.13,-2.42,-2.40,-2.43
334.18,-2.33,0.11,-2.32,0.12,-0.13,-0.15,-0.13,-2.46,-2.44,-2.44
337.52,-2.33,0.12,-2.34,0.10,-0.13,-0.16,-0.12,-2.46,-2.47,-2.45
340.90,-2.34,0.11,-2.34,0.11,-0.12,-0.16,-0.12,-2.47,-2.47,-2.45
344.30,-2.34,0.12,-2.34,0.12,-0.12,-0.16,-0.12,-2.47,-2.47,-2.46
347.75,-2.34,0.14,-2.34,0.14,-0.14,-0.17,-0.12,-2.48,-2.48,-2.48
351.23,-2.33,0.16,-2.34,0.15,-0.16,-0.17,-0.12,-2.50,-2.50,-2.49
354.74,-2.33,0.17,-2.35,0.15,-0.20,-0.17,-0.11,-2.53,-2.55,-2.50
358.28,-2.33,0.18,-2.33,0.18,-0.24,-0.18,-0.11,-2.57,-2.57,-2.51
361.87,-2.32,0.20,-2.27,0.25,-0.27,-0.18,-0.11,-2.59,-2.54,-2.52
365.49,-2.18,0.36,-2.19,0.35,-0.29,-0.18,-0.11,-2.48,-2.48,-2.54
369.14,-2.10,0.45,-2.16,0.39,-0.31,-0.19,-0.11,-2.41,-2.47,-2.55
372.83,-2.16,0.40,-2.20,0.36,-0.30,-0.19,-0.11,-2.47,-2.51,-2.56
376.56,-2.34,0.23,-2.28,0.30,-0.28,-0.19,-0.11,-2.62,-2.56,-2.57
380.33,-2.39,0.19,-2.35,0.24,-0.25,-0.20,-0.10,-2.64,-2.60,-2.58
384.13,-2.31,0.28,-2.39,0.20,-0.22,-0.20,-0.10,-2.53,-2.61,-2.59
387.97,-2.42,0.18,-2.42,0.18,-0.19,-0.21,-0.10,-2.61,-2.61,-2.60
391.85,-2.50,0.11,-2.50,0.11,-0.16,-0.21,-0.10,-2.67,-2.66,-2.61
395.77,-2.54,0.08,-2.57,0.05,-0.15,-0.22,-0.10,-2.69,-2.71,-2.62
399.73,-2.61,0.02,-2.52,0.11,-0.14,-0.22,-0.10,-2.75,-2.66,-2.63
403.72,-2.45,0.19,-2.46,0.18,-0.14,-0.23,-0.10,-2.59,-2.60,-2.64
407.76,-2.32,0.34,-2.44,0.22,-0.14,-0.24,-0.10,-2.46,-2.58,-2.66
411.84,-2.49,0.18,-2.46,0.21,-0.14,-0.24,-0.10,-2.63,-2.60,-2.67
415.96,-2.58,0.10,-2.53,0.15,-0.15,-0.25,-0.10,-2.73,-2.68,-2.68
420.12,-2.58,0.10,-2.59,0.09,-0.16,-0.26,-0.10,-2.74,-2.75,-2.68
424.32,-2.57,0.12,-2.58,0.10,-0.15,-0.26,-0.10,-2.73,-2.74,-2.69
428.56,-2.56,0.13,-2.57,0.12,-0.13,-0.27,-0.10,-2.70,-2.70,-2.69
