frequency,raw,error,smoothed,error_smoothed,equalization,parametric_eq,fixed_band_eq,equalized_raw,equalized_smoothed,target
20.00,-8.95,-12.71,-8.95,-12.71,6.00,5.40,2.86,-2.95,-2.95,3.76
20.20,-8.87,-12.62,-8.88,-12.63,6.00,5.44,2.94,-2.87,-2.88,3.75
20.40,-8.80,-12.55,-8.80,-12.55,6.00,5.48,3.02,-2.80,-2.80,3.75
20.61,-8.72,-12.46,-8.72,-12.47,6.00,5.52,3.11,-2.72,-2.72,3.74
20.81,-8.64,-12.38,-8.64,-12.38,6.00,5.56,3.20,-2.64,-2.64,3.74
21.02,-8.56,-12.30,-8.56,-12.29,6.00,5.60,3.29,-2.56,-2.56,3.74
21.23,-8.47,-12.19,-8.48,-12.20,6.00,5.63,3.38,-2.47,-2.48,3.72
21.44,-8.39,-12.09,-8.39,-12.09,6.00,5.67,3.48,-2.39,-2.39,3.70
21.66,-8.31,-11.99,-8.31,-11.98,6.00,5.70,3.58,-2.31,-2.31,3.68
21.87,-8.22,-11.87,-8.22,-11.87,6.00,5.74,3.68,-2.22,-2.22,3.65
22.09,-8.13,-11.76,-8.13,-11.76,6.00,5.77,3.78,-2.13,-2.13,3.63
22.31,-8.04,-11.65,-8.04,-11.65,6.00,5.80,3.89,-2.04,-2.04,3.61
22.54,-7.96,-11.54,-7.95,-11.53,6.00,5.83,4.00,-1.96,-1.95,3.58
22.76,-7.86,-11.41,-7.87,-11.41,6.00,5.86,4.11,-1.86,-1.87,3.55
22.99,-7.77,-11.29,-7.78,-11.29,6.00,5.89,4.23,-1.77,-1.78,3.52
23.22,-7.69,-11.18,-7.68,-11.17,6.00,5.91,4.35,-1.69,-1.68,3.49
23.45,-7.59,-11.06,-7.60,-11.06,6.00,5.94,4.47,-1.59,-1.60,3.47
23.69,-7.50,-10.95,-7.50,-10.95,6.00,5.96,4.59,-1.50,-1.50,3.45
23.92,-7.41,-10.83,-7.41,-10.84,6.00,5.98,4.72,-1.41,-1.41,3.42
24.16,-7.31,-10.72,-7.32,-10.73,6.00,6.00,4.85,-1.31,-1.32,3.41
24.40,-7.23,-10.62,-7.22,-10.62,6.00,6.02,4.98,-1.23,-1.22,3.39
24.65,-7.13,-10.51,-7.13,-10.50,6.00,6.04,5.11,-1.13,-1.13,3.37
24.89,-7.03,-10.38,-7.03,-10.38,6.00,6.06,5.24,-1.03,-1.03,3.35
25.14,-6.93,-10.26,-6.93,-10.27,6.00,6.07,5.38,-0.93,-0.93,3.33
25.39,-6.84,-10.15,-6.84,-10.15,6.00,6.09,5.52,-0.84,-0.84,3.31
25.65,-6.74,-10.04,-6.74,-10.04,6.00,6.10,5.65,-0.74,-0.74,3.30
25.91,-6.64,-9.91,-6.65,-9.92,6.00,6.11,5.79,-0.64,-0.65,3.27
26.16,-6.55,-9.81,-6.55,-9.81,6.00,6.12,5.93,-0.55,-0.55,3.26
26.43,-6.46,-9.70,-6.46,-9.70,6.00,6.13,6.07,-0.46,-0.46,3.24
26.69,-6.36,-9.59,-6.36,-9.59,6.00,6.13,6.20,-0.36,-0.36,3.23
26.96,-6.27,-9.48,-6.27,-9.48,6.00,6.14,6.34,-0.27,-0.27,3.21
27.23,-6.17,-9.37,-6.18,-9.37,6.00,6.14,6.47,-0.17,-0.18,3.20
27.50,-6.09,-9.27,-6.09,-9.26,6.00,6.14,6.60,-0.09,-0.09,3.18
27.77,-5.99,-9.15,-5.99,-9.15,6.00,6.14,6.72,0.01,0.01,3.16
28.05,-5.89,-9.04,-5.90,-9.03,6.00,6.14,6.84,0.11,0.10,3.15
28.33,-5.80,-8.92,-5.80,-8.92,6.00,6.14,6.95,0.20,0.20,3.11
28.62,-5.70,-8.81,-5.71,-8.81,6.00,6.13,7.06,0.30,0.29,3.10
28.90,-5.61,-8.71,-5.61,-8.71,6.00,6.13,7.15,0.39,0.39,3.10
29.19,-5.52,-8.60,-5.51,-8.60,6.00,6.12,7.24,0.48,0.49,3.08
29.48,-5.41,-8.49,-5.42,-8.49,6.00,6.11,7.32,0.59,0.58,3.08
29.78,-5.32,-8.38,-5.32,-8.38,6.00,6.10,7.39,0.68,0.68,3.06
30.08,-5.22,-8.27,-5.23,-8.28,6.00,6.09,7.45,0.78,0.77,3.05
30.38,-5.14,-8.17,-5.14,-8.16,6.00,6.08,7.50,0.86,0.86,3.03
30.68,-5.05,-8.06,-5.05,-8.06,6.00,6.07,7.53,0.95,0.95,3.01
30.99,-4.95,-7.94,-4.96,-7.95,6.00,6.05,7.55,1.05,1.04,2.99
31.30,-4.88,-7.86,-4.88,-7.85,6.00,6.04,7.56,1.12,1.12,2.97
31.61,-4.79,-7.76,-4.80,-7.75,6.00,6.02,7.55,1.21,1.20,2.96
31.93,-4.72,-7.65,-4.72,-7.65,6.00,6.01,7.54,1.28,1.28,2.93
32.24,-4.64,-7.55,-4.64,-7.55,6.00,5.99,7.51,1.36,1.36,2.91
32.57,-4.55,-7.44,-4.56,-7.45,6.00,5.98,7.46,1.45,1.44,2.89
32.89,-4.48,-7.36,-4.48,-7.35,6.00,5.96,7.41,1.52,1.52,2.88
33.22,-4.39,-7.24,-4.40,-7.25,6.00,5.94,7.35,1.61,1.60,2.85
33.55,-4.32,-7.15,-4.32,-7.15,6.00,5.92,7.27,1.68,1.68,2.83
33.89,-4.24,-7.04,-4.24,-7.05,6.00,5.90,7.19,1.76,1.76,2.80
34.23,-4.17,-6.96,-4.17,-6.95,6.00,5.89,7.09,1.83,1.83,2.79
34.57,-4.09,-6.85,-4.09,-6.86,6.00,5.87,6.99,1.91,1.91,2.76
34.92,-4.02,-6.76,-4.02,-6.77,6.00,5.85,6.89,1.98,1.98,2.74
35.27,-3.95,-6.68,-3.95,-6.67,6.00,5.83,6.78,2.05,2.05,2.73
35.62,-3.88,-6.59,-3.88,-6.58,6.00,5.81,6.66,2.12,2.12,2.70
35.97,-3.81,-6.48,-3.81,-6.49,6.01,5.78,6.54,2.20,2.20,2.67
36.33,-3.73,-6.39,-3.74,-6.39,6.02,5.76,6.42,2.28,2.28,2.66
36.70,-3.67,-6.31,-3.67,-6.30,6.02,5.73,6.29,2.34,2.35,2.64
37.06,-3.60,-6.21,-3.60,-6.21,6.01,5.70,6.17,2.41,2.41,2.60
37.43,-3.53,-6.12,-3.53,-6.12,5.99,5.66,6.04,2.46,2.46,2.59
37.81,-3.46,-6.03,-3.46,-6.03,5.95,5.62,5.91,2.49,2.49,2.57
38.19,-3.39,-5.94,-3.39,-5.95,5.91,5.57,5.78,2.52,2.52,2.55
38.57,-3.33,-5.87,-3.33,-5.86,5.85,5.52,5.66,2.52,2.52,2.53
38.95,-3.26,-5.77,-3.26,-5.77,5.78,5.47,5.53,2.52,2.52,2.51
39.34,-3.20,-5.69,-3.20,-5.69,5.70,5.40,5.41,2.50,2.50,2.49
39.74,-3.14,-5.60,-3.14,-5.60,5.61,5.34,5.29,2.47,2.48,2.46
40.14,-3.07,-5.51,-3.07,-5.51,5.52,5.27,5.17,2.45,2.45,2.44
40.54,-3.01,-5.43,-3.01,-5.43,5.43,5.19,5.05,2.42,2.42,2.42
40.94,-2.94,-5.35,-2.94,-5.35,5.35,5.11,4.93,2.41,2.40,2.41
41.35,-2.88,-5.26,-2.88,-5.27,5.27,5.03,4.82,2.39,2.39,2.38
41.76,-2.82,-5.19,-2.82,-5.18,5.19,4.95,4.71,2.37,2.37,2.37
42.18,-2.75,-5.11,-2.75,-5.11,5.11,4.86,4.60,2.36,2.35,2.35
42.60,-2.69,-5.02,-2.69,-5.03,5.02,4.77,4.50,2.33,2.33,2.33
43.03,-2.63,-4.96,-2.63,-4.95,4.94,4.69,4.40,2.31,2.31,2.33
43.46,-2.57,-4.87,-2.57,-4.86,4.86,4.60,4.30,2.29,2.29,2.30
43.90,-2.50,-4.77,-2.50,-4.78,4.77,4.52,4.21,2.27,2.27,2.27
44.33,-2.43,-4.67,-2.44,-4.68,4.68,4.43,4.12,2.25,2.25,2.24
44.78,-2.37,-4.60,-2.37,-4.59,4.60,4.35,4.03,2.23,2.23,2.23
45.23,-2.30,-4.50,-2.30,-4.51,4.51,4.26,3.95,2.21,2.21,2.20
45.68,-2.24,-4.43,-2.24,-4.42,4.43,4.18,3.86,2.19,2.19,2.19
46.13,-2.17,-4.33,-2.17,-4.34,4.35,4.10,3.79,2.17,2.17,2.16
46.60,-2.11,-4.27,-2.11,-4.26,4.26,4.02,3.71,2.15,2.16,2.16
47.06,-2.04,-4.18,-2.04,-4.18,4.18,3.94,3.64,2.14,2.14,2.14
47.53,-1.98,-4.10,-1.98,-4.11,4.10,3.86,3.57,2.12,2.12,2.12
48.01,-1.92,-4.03,-1.92,-4.02,4.02,3.78,3.50,2.10,2.10,2.11
48.49,-1.86,-3.94,-1.86,-3.94,3.93,3.70,3.43,2.07,2.07,2.08
48.97,-1.79,-3.84,-1.80,-3.85,3.85,3.63,3.37,2.06,2.05,2.05
49.46,-1.73,-3.76,-1.73,-3.76,3.76,3.55,3.31,2.03,2.03,2.03
49.96,-1.67,-3.67,-1.67,-3.67,3.68,3.48,3.25,2.00,2.01,2.00
50.46,-1.60,-3.58,-1.61,-3.59,3.59,3.40,3.20,1.99,1.99,1.98
50.96,-1.54,-3.51,-1.54,-3.50,3.51,3.33,3.15,1.96,1.96,1.96
51.47,-1.48,-3.42,-1.48,-3.42,3.42,3.26,3.09,1.94,1.94,1.94
51.99,-1.42,-3.34,-1.42,-3.34,3.34,3.19,3.04,1.92,1.92,1.92
52.51,-1.36,-3.27,-1.36,-3.27,3.26,3.11,3.00,1.90,1.90,1.91
53.03,-1.30,-3.19,-1.30,-3.18,3.18,3.04,2.95,1.88,1.88,1.89
53.56,-1.23,-3.09,-1.24,-3.10,3.10,2.97,2.90,1.87,1.86,1.86
54.10,-1.17,-3.01,-1.17,-3.02,3.02,2.90,2.86,1.85,1.84,1.84
54.64,-1.12,-2.94,-1.11,-2.93,2.93,2.83,2.81,1.81,1.82,1.82
55.18,-1.05,-2.85,-1.06,-2.86,2.85,2.76,2.77,1.80,1.80,1.80
55.74,-0.99,-2.77,-1.00,-2.77,2.77,2.69,2.73,1.78,1.78,1.78
56.29,-0.94,-2.70,-0.93,-2.69,2.69,2.62,2.68,1.75,1.76,1.76
56.86,-0.87,-2.61,-0.87,-2.61,2.61,2.55,2.64,1.74,1.74,1.74
57.42,-0.81,-2.53,-0.82,-2.53,2.54,2.48,2.59,1.73,1.72,1.71
58.00,-0.76,-2.46,-0.76,-2.46,2.46,2.41,2.55,1.70,1.71,1.70
58.58,-0.70,-2.39,-0.70,-2.39,2.39,2.34,2.51,1.69,1.69,1.69
59.16,-0.64,-2.32,-0.64,-2.32,2.31,2.27,2.46,1.67,1.67,1.68
59.76,-0.59,-2.24,-0.59,-2.24,2.24,2.20,2.41,1.64,1.65,1.65
60.35,-0.53,-2.16,-0.53,-2.17,2.16,2.14,2.37,1.63,1.63,1.63
60.96,-0.48,-2.10,-0.48,-2.09,2.09,2.07,2.32,1.60,1.60,1.61
61.57,-0.43,-2.01,-0.43,-2.01,2.01,2.00,2.27,1.58,1.58,1.58
62.18,-0.37,-1.92,-0.37,-1.93,1.94,1.93,2.22,1.56,1.56,1.55
62.80,-0.32,-1.86,-0.32,-1.85,1.86,1.86,2.16,1.54,1.54,1.54
63.43,-0.27,-1.78,-0.27,-1.79,1.79,1.79,2.11,1.52,1.52,1.51
64.07,-0.23,-1.73,-0.23,-1.72,1.72,1.72,2.05,1.49,1.49,1.49
64.71,-0.18,-1.66,-0.18,-1.66,1.65,1.65,2.00,1.47,1.47,1.48
65.35,-0.13,-1.59,-0.13,-1.59,1.59,1.58,1.94,1.46,1.45,1.46
66.01,-0.09,-1.53,-0.08,-1.52,1.52,1.51,1.88,1.43,1.44,1.44
66.67,-0.03,-1.45,-0.04,-1.46,1.46,1.44,1.81,1.43,1.42,1.42
67.33,0.01,-1.39,0.01,-1.39,1.39,1.38,1.75,1.40,1.40,1.40
68.01,0.05,-1.33,0.05,-1.33,1.33,1.31,1.68,1.38,1.38,1.38
68.69,0.10,-1.26,0.10,-1.26,1.26,1.24,1.62,1.36,1.36,1.36
69.37,0.14,-1.20,0.14,-1.20,1.20,1.17,1.55,1.34,1.34,1.34
70.07,0.19,-1.13,0.19,-1.13,1.13,1.10,1.48,1.32,1.32,1.32
70.77,0.23,-1.08,0.23,-1.07,1.07,1.03,1.41,1.30,1.30,1.30
71.48,0.28,-1.00,0.27,-1.01,1.00,0.96,1.34,1.28,1.28,1.28
72.19,0.31,-0.95,0.31,-0.94,0.94,0.89,1.27,1.25,1.25,1.26
72.91,0.36,-0.87,0.36,-0.87,0.87,0.82,1.19,1.23,1.23,1.22
73.64,0.40,-0.80,0.40,-0.80,0.81,0.76,1.12,1.21,1.21,1.20
74.38,0.44,-0.75,0.44,-0.74,0.74,0.69,1.05,1.18,1.18,1.18
75.12,0.49,-0.67,0.48,-0.68,0.68,0.62,0.97,1.17,1.16,1.16
75.87,0.52,-0.61,0.52,-0.61,0.61,0.55,0.90,1.13,1.13,1.13
76.63,0.56,-0.56,0.56,-0.55,0.55,0.48,0.82,1.11,1.11,1.11
77.40,0.60,-0.49,0.60,-0.48,0.48,0.41,0.74,1.08,1.08,1.09
78.17,0.64,-0.41,0.64,-0.42,0.42,0.35,0.67,1.06,1.06,1.05
78.95,0.68,-0.35,0.68,-0.35,0.35,0.28,0.59,1.03,1.03,1.03
79.74,0.72,-0.29,0.72,-0.29,0.29,0.21,0.51,1.01,1.00,1.01
80.54,0.75,-0.23,0.75,-0.22,0.22,0.14,0.44,0.97,0.98,0.98
81.35,0.80,-0.15,0.79,-0.16,0.16,0.07,0.36,0.95,0.95,0.95
82.16,0.83,-0.09,0.83,-0.09,0.09,0.01,0.28,0.92,0.92,0.92
82.98,0.87,-0.03,0.87,-0.02,0.03,-0.06,0.20,0.89,0.89,0.90
83.81,0.90,0.05,0.90,0.04,-0.04,-0.13,0.12,0.86,0.86,0.85
84.65,0.93,0.11,0.93,0.10,-0.10,-0.19,0.04,0.82,0.83,0.82
85.50,0.96,0.16,0.96,0.16,-0.17,-0.26,-0.04,0.79,0.79,0.80
86.35,0.99,0.23,0.99,0.23,-0.23,-0.33,-0.12,0.76,0.76,0.76
87.22,1.02,0.29,1.02,0.29,-0.29,-0.39,-0.20,0.73,0.73,0.73
88.09,1.06,0.36,1.05,0.35,-0.35,-0.46,-0.28,0.71,0.70,0.69
88.97,1.08,0.41,1.08,0.42,-0.41,-0.53,-0.36,0.67,0.67,0.67
89.86,1.11,0.47,1.11,0.47,-0.47,-0.59,-0.44,0.64,0.64,0.64
90.76,1.14,0.54,1.13,0.53,-0.53,-0.66,-0.52,0.61,0.60,0.60
91.66,1.16,0.59,1.16,0.59,-0.59,-0.72,-0.60,0.57,0.57,0.57
92.58,1.18,0.66,1.18,0.65,-0.65,-0.78,-0.69,0.53,0.53,0.52
93.51,1.21,0.70,1.21,0.71,-0.71,-0.85,-0.77,0.50,0.50,0.51
94.44,1.24,0.77,1.23,0.77,-0.77,-0.91,-0.85,0.47,0.46,0.47
95.39,1.26,0.83,1.26,0.83,-0.83,-0.98,-0.93,0.43,0.43,0.43
96.34,1.28,0.90,1.28,0.90,-0.89,-1.04,-1.02,0.39,0.39,0.38
97.30,1.30,0.96,1.30,0.96,-0.95,-1.10,-1.10,0.34,0.35,0.34
98.28,1.33,1.02,1.32,1.02,-1.02,-1.16,-1.18,0.31,0.31,0.30
99.26,1.34,1.07,1.35,1.08,-1.08,-1.23,-1.27,0.26,0.27,0.27
100.25,1.37,1.14,1.37,1.14,-1.14,-1.29,-1.35,0.23,0.23,0.23
101.25,1.39,1.20,1.38,1.20,-1.20,-1.35,-1.43,0.19,0.18,0.19
102.27,1.40,1.25,1.40,1.26,-1.26,-1.41,-1.52,0.14,0.14,0.15
103.29,1.42,1.33,1.42,1.32,-1.32,-1.47,-1.60,0.10,0.10,0.09
104.32,1.44,1.38,1.44,1.38,-1.38,-1.53,-1.68,0.06,0.06,0.06
105.37,1.46,1.45,1.45,1.44,-1.44,-1.58,-1.76,0.02,0.02,0.01
106.42,1.47,1.50,1.47,1.50,-1.50,-1.64,-1.84,-0.03,-0.03,-0.03
107.48,1.48,1.55,1.48,1.56,-1.56,-1.70,-1.92,-0.08,-0.08,-0.07
108.56,1.50,1.63,1.50,1.62,-1.62,-1.76,-1.99,-0.12,-0.13,-0.13
109.64,1.52,1.69,1.52,1.68,-1.68,-1.81,-2.07,-0.17,-0.17,-0.17
110.74,1.53,1.74,1.53,1.75,-1.75,-1.87,-2.14,-0.22,-0.21,-0.22
111.85,1.55,1.80,1.55,1.81,-1.81,-1.92,-2.21,-0.26,-0.26,-0.26
112.97,1.56,1.88,1.56,1.87,-1.87,-1.98,-2.28,-0.31,-0.31,-0.32
114.10,1.57,1.93,1.57,1.94,-1.94,-2.03,-2.35,-0.37,-0.36,-0.36
115.24,1.59,2.00,1.59,2.00,-2.00,-2.08,-2.41,-0.41,-0.41,-0.41
116.39,1.60,2.06,1.60,2.06,-2.06,-2.14,-2.47,-0.46,-0.46,-0.46
117.55,1.61,2.11,1.61,2.12,-2.11,-2.19,-2.52,-0.50,-0.50,-0.51
118.73,1.62,2.17,1.62,2.17,-2.17,-2.24,-2.57,-0.55,-0.55,-0.55
119.92,1.63,2.22,1.63,2.22,-2.22,-2.29,-2.62,-0.59,-0.59,-0.59
121.12,1.63,2.27,1.63,2.27,-2.27,-2.33,-2.66,-0.64,-0.64,-0.64
122.33,1.64,2.32,1.64,2.32,-2.32,-2.38,-2.70,-0.68,-0.68,-0.68
123.55,1.65,2.37,1.65,2.37,-2.37,-2.43,-2.74,-0.72,-0.72,-0.72
124.79,1.66,2.41,1.66,2.41,-2.42,-2.47,-2.77,-0.76,-0.76,-0.76
126.03,1.66,2.46,1.66,2.46,-2.47,-2.52,-2.79,-0.81,-0.80,-0.80
127.29,1.67,2.51,1.67,2.51,-2.51,-2.56,-2.81,-0.84,-0.85,-0.84
128.57,1.67,2.56,1.67,2.56,-2.56,-2.60,-2.83,-0.89,-0.89,-0.89
129.85,1.68,2.61,1.68,2.61,-2.60,-2.65,-2.84,-0.92,-0.92,-0.93
131.15,1.68,2.64,1.68,2.65,-2.64,-2.69,-2.85,-0.96,-0.96,-0.97
132.46,1.69,2.69,1.69,2.69,-2.68,-2.73,-2.86,-0.99,-1.00,-1.00
133.79,1.69,2.72,1.69,2.72,-2.72,-2.76,-2.86,-1.03,-1.03,-1.03
135.12,1.69,2.76,1.69,2.75,-2.76,-2.80,-2.86,-1.07,-1.07,-1.07
136.48,1.69,2.78,1.69,2.79,-2.79,-2.84,-2.85,-1.10,-1.10,-1.09
137.84,1.70,2.82,1.69,2.82,-2.82,-2.87,-2.84,-1.12,-1.13,-1.12
139.22,1.70,2.85,1.70,2.85,-2.85,-2.91,-2.83,-1.15,-1.15,-1.15
140.61,1.70,2.88,1.70,2.88,-2.87,-2.94,-2.82,-1.18,-1.17,-1.18
142.02,1.71,2.90,1.70,2.90,-2.90,-2.97,-2.81,-1.19,-1.20,-1.19
143.44,1.71,2.93,1.71,2.92,-2.92,-3.00,-2.79,-1.22,-1.22,-1.22
144.87,1.71,2.94,1.71,2.95,-2.95,-3.03,-2.78,-1.24,-1.24,-1.23
146.32,1.72,2.97,1.72,2.97,-2.97,-3.06,-2.76,-1.25,-1.25,-1.25
147.78,1.72,2.99,1.72,2.99,-2.99,-3.08,-2.74,-1.27,-1.27,-1.27
149.26,1.73,3.01,1.72,3.01,-3.01,-3.11,-2.72,-1.29,-1.29,-1.28
150.75,1.72,3.04,1.72,3.04,-3.03,-3.13,-2.71,-1.32,-1.31,-1.32
152.26,1.73,3.06,1.73,3.06,-3.05,-3.15,-2.69,-1.33,-1.33,-1.33
153.78,1.73,3.08,1.73,3.08,-3.07,-3.17,-2.67,-1.34,-1.35,-1.35
155.32,1.73,3.10,1.73,3.09,-3.09,-3.19,-2.66,-1.36,-1.37,-1.37
156.88,1.72,3.10,1.72,3.11,-3.11,-3.21,-2.64,-1.39,-1.39,-1.38
158.44,1.72,3.12,1.72,3.12,-3.13,-3.23,-2.63,-1.41,-1.41,-1.40
160.03,1.72,3.14,1.71,3.14,-3.15,-3.25,-2.61,-1.43,-1.43,-1.43
161.63,1.71,3.17,1.71,3.17,-3.16,-3.26,-2.60,-1.45,-1.45,-1.46
163.24,1.71,3.19,1.71,3.18,-3.18,-3.27,-2.59,-1.47,-1.47,-1.48
164.88,1.71,3.20,1.71,3.20,-3.19,-3.28,-2.58,-1.48,-1.49,-1.49
166.53,1.70,3.20,1.70,3.21,-3.20,-3.29,-2.58,-1.51,-1.51,-1.51
168.19,1.69,3.22,1.69,3.22,-3.22,-3.30,-2.57,-1.53,-1.53,-1.53
169.87,1.67,3.22,1.67,3.23,-3.23,-3.31,-2.57,-1.56,-1.56,-1.55
171.57,1.66,3.24,1.66,3.23,-3.24,-3.32,-2.57,-1.58,-1.58,-1.58
173.29,1.64,3.24,1.64,3.24,-3.25,-3.32,-2.57,-1.61,-1.61,-1.60
175.02,1.63,3.25,1.63,3.26,-3.26,-3.32,-2.57,-1.63,-1.63,-1.62
176.77,1.61,3.27,1.61,3.27,-3.27,-3.33,-2.58,-1.66,-1.66,-1.66
178.54,1.60,3.29,1.60,3.29,-3.28,-3.33,-2.59,-1.69,-1.69,-1.70
180.32,1.58,3.30,1.58,3.30,-3.30,-3.33,-2.60,-1.72,-1.72,-1.72
182.13,1.56,3.30,1.56,3.31,-3.31,-3.32,-2.61,-1.75,-1.75,-1.75
183.95,1.53,3.32,1.54,3.32,-3.32,-3.32,-2.62,-1.79,-1.78,-1.79
185.79,1.52,3.33,1.52,3.33,-3.33,-3.32,-2.64,-1.81,-1.81,-1.81
187.65,1.50,3.35,1.49,3.34,-3.34,-3.31,-2.66,-1.84,-1.84,-1.85
189.52,1.47,3.34,1.47,3.35,-3.34,-3.30,-2.68,-1.88,-1.87,-1.87
191.42,1.45,3.35,1.45,3.35,-3.35,-3.30,-2.70,-1.90,-1.90,-1.90
193.33,1.43,3.35,1.42,3.35,-3.35,-3.29,-2.72,-1.92,-1.93,-1.92
195.27,1.40,3.35,1.40,3.35,-3.35,-3.28,-2.75,-1.96,-1.96,-1.96
197.22,1.37,3.35,1.37,3.36,-3.35,-3.26,-2.77,-1.99,-1.98,-1.98
199.19,1.35,3.37,1.35,3.36,-3.35,-3.25,-2.80,-2.01,-2.01,-2.02
201.18,1.33,3.36,1.32,3.35,-3.35,-3.24,-2.83,-2.02,-2.03,-2.03
203.19,1.29,3.34,1.30,3.35,-3.35,-3.22,-2.86,-2.06,-2.05,-2.05
205.23,1.27,3.35,1.27,3.34,-3.34,-3.21,-2.89,-2.08,-2.08,-2.08
207.28,1.25,3.33,1.24,3.33,-3.34,-3.19,-2.92,-2.09,-2.09,-2.08
209.35,1.22,3.33,1.22,3.33,-3.33,-3.17,-2.95,-2.11,-2.11,-2.11
211.44,1.20,3.34,1.20,3.32,-3.32,-3.15,-2.99,-2.12,-2.12,-2.14
213.56,1.17,3.31,1.17,3.31,-3.31,-3.13,-3.02,-2.14,-2.14,-2.15
215.69,1.14,3.28,1.14,3.29,-3.29,-3.11,-3.05,-2.15,-2.15,-2.14
217.85,1.11,3.27,1.11,3.27,-3.27,-3.09,-3.08,-2.17,-2.16,-2.16
220.03,1.09,3.26,1.09,3.25,-3.25,-3.06,-3.10,-2.16,-2.17,-2.17
222.23,1.06,3.24,1.06,3.23,-3.22,-3.04,-3.13,-2.17,-2.17,-2.18
224.45,1.03,3.19,1.03,3.20,-3.19,-3.02,-3.16,-2.16,-2.16,-2.16
226.70,1.00,3.16,1.00,3.16,-3.16,-2.99,-3.18,-2.16,-2.16,-2.16
228.96,0.97,3.13,0.97,3.12,-3.13,-2.96,-3.20,-2.16,-2.16,-2.16
231.25,0.94,3.08,0.94,3.08,-3.09,-2.94,-3.22,-2.15,-2.15,-2.14
233.57,0.91,3.05,0.91,3.05,-3.05,-2.91,-3.23,-2.14,-2.14,-2.14
235.90,0.88,3.00,0.88,3.01,-3.01,-2.88,-3.24,-2.13,-2.13,-2.13
238.26,0.86,2.98,0.86,2.97,-2.97,-2.85,-3.25,-2.11,-2.11,-2.12
240.64,0.83,2.93,0.83,2.93,-2.93,-2.82,-3.25,-2.10,-2.10,-2.10
243.05,0.82,2.90,0.81,2.89,-2.89,-2.79,-3.25,-2.08,-2.08,-2.08
245.48,0.79,2.85,0.79,2.85,-2.86,-2.76,-3.24,-2.07,-2.06,-2.06
247.93,0.78,2.81,0.78,2.82,-2.82,-2.73,-3.23,-2.04,-2.04,-2.03
250.41,0.77,2.80,0.76,2.78,-2.78,-2.69,-3.22,-2.01,-2.02,-2.03
252.92,0.75,2.74,0.75,2.74,-2.74,-2.66,-3.20,-1.99,-1.99,-1.99
255.45,0.73,2.69,0.73,2.70,-2.70,-2.63,-3.18,-1.97,-1.97,-1.97
258.00,0.71,2.66,0.71,2.66,-2.66,-2.59,-3.15,-1.95,-1.95,-1.95
260.58,0.70,2.62,0.70,2.62,-2.62,-2.56,-3.11,-1.92,-1.92,-1.92
263.19,0.68,2.58,0.68,2.58,-2.58,-2.52,-3.08,-1.90,-1.90,-1.90
265.82,0.66,2.54,0.66,2.54,-2.53,-2.49,-3.03,-1.87,-1.87,-1.88
268.48,0.64,2.48,0.64,2.49,-2.49,-2.45,-2.99,-1.85,-1.85,-1.85
271.16,0.62,2.44,0.62,2.44,-2.44,-2.41,-2.94,-1.82,-1.83,-1.82
273.87,0.59,2.39,0.59,2.39,-2.40,-2.37,-2.88,-1.81,-1.80,-1.80
276.61,0.57,2.34,0.57,2.35,-2.35,-2.34,-2.83,-1.78,-1.78,-1.78
279.38,0.55,2.31,0.55,2.30,-2.30,-2.30,-2.77,-1.75,-1.75,-1.76
282.17,0.53,2.26,0.52,2.26,-2.26,-2.26,-2.71,-1.73,-1.73,-1.73
284.99,0.50,2.20,0.50,2.21,-2.21,-2.22,-2.64,-1.71,-1.71,-1.71
287.84,0.48,2.16,0.48,2.16,-2.16,-2.18,-2.58,-1.69,-1.68,-1.68
290.72,0.47,2.12,0.46,2.12,-2.12,-2.14,-2.51,-1.65,-1.65,-1.65
293.63,0.45,2.07,0.45,2.07,-2.07,-2.10,-2.44,-1.62,-1.62,-1.62
296.57,0.43,2.02,0.43,2.03,-2.02,-2.06,-2.37,-1.60,-1.60,-1.60
299.53,0.41,1.98,0.41,1.98,-1.98,-2.02,-2.30,-1.57,-1.57,-1.57
302.53,0.39,1.94,0.39,1.93,-1.93,-1.98,-2.23,-1.54,-1.54,-1.55
305.55,0.37,1.87,0.37,1.88,-1.88,-1.94,-2.16,-1.51,-1.50,-1.50
308.61,0.36,1.83,0.36,1.83,-1.83,-1.90,-2.08,-1.47,-1.47,-1.47
311.69,0.34,1.78,0.34,1.77,-1.77,-1.86,-2.01,-1.43,-1.44,-1.44
314.81,0.32,1.71,0.32,1.72,-1.72,-1.82,-1.94,-1.40,-1.40,-1.39
317.96,0.29,1.66,0.29,1.66,-1.67,-1.78,-1.87,-1.38,-1.37,-1.37
321.14,0.28,1.62,0.27,1.61,-1.62,-1.73,-1.80,-1.34,-1.34,-1.34
324.35,0.25,1.56,0.25,1.56,-1.56,-1.69,-1.73,-1.32,-1.31,-1.31
327.59,0.23,1.51,0.23,1.51,-1.51,-1.65,-1.66,-1.28,-1.29,-1.29
330.87,0.20,1.46,0.20,1.46,-1.46,-1.61,-1.59,-1.26,-1.26,-1.26
334.18,0.18,1.42,0.18,1.41,-1.41,-1.56,-1.52,-1.23,-1.24,-1.24
337.52,0.15,1.37,0.15,1.37,-1.36,-1.52,-1.45,-1.21,-1.21,-1.22
340.90,0.12,1.31,0.12,1.31,-1.31,-1.48,-1.38,-1.19,-1.19,-1.19
344.30,0.09,1.26,0.09,1.26,-1.26,-1.43,-1.32,-1.17,-1.17,-1.17
347.75,0.05,1.20,0.05,1.21,-1.21,-1.39,-1.25,-1.16,-1.15,-1.15
351.23,0.03,1.16,0.02,1.16,-1.16,-1.35,-1.18,-1.13,-1.14,-1.14
354.74,-0.01,1.11,-0.01,1.11,-1.11,-1.30,-1.12,-1.12,-1.12,-1.12
358.28,-0.04,1.06,-0.04,1.06,-1.06,-1.26,-1.06,-1.10,-1.10,-1.10
361.87,-0.07,1.01,-0.07,1.01,-1.01,-1.21,-1.00,-1.08,-1.08,-1.08
365.49,-0.10,0.96,-0.10,0.96,-0.96,-1.17,-0.93,-1.07,-1.07,-1.06
369.14,-0.13,0.92,-0.13,0.92,-0.92,-1.12,-0.87,-1.05,-1.05,-1.05
372.83,-0.16,0.87,-0.16,0.88,-0.87,-1.08,-0.81,-1.04,-1.03,-1.03
376.56,-0.18,0.84,-0.18,0.83,-0.83,-1.03,-0.76,-1.01,-1.01,-1.02
380.33,-0.21,0.78,-0.21,0.79,-0.79,-0.99,-0.70,-1.00,-1.00,-0.99
384.13,-0.23,0.74,-0.23,0.74,-0.74,-0.94,-0.64,-0.98,-0.98,-0.98
387.97,-0.26,0.69,-0.26,0.70,-0.70,-0.90,-0.59,-0.96,-0.96,-0.96
391.85,-0.28,0.67,-0.28,0.66,-0.66,-0.85,-0.53,-0.94,-0.94,-0.95
395.77,-0.31,0.61,-0.31,0.61,-0.61,-0.81,-0.48,-0.92,-0.92,-0.92
399.73,-0.32,0.58,-0.33,0.57,-0.57,-0.76,-0.42,-0.89,-0.90,-0.90
403.72,-0.35,0.53,-0.35,0.53,-0.53,-0.72,-0.37,-0.88,-0.88,-0.88
407.76,-0.37,0.49,-0.37,0.49,-0.49,-0.67,-0.32,-0.86,-0.86,-0.86
411.84,-0.39,0.44,-0.39,0.44,-0.45,-0.62,-0.27,-0.84,-0.84,-0.83
415.96,-0.40,0.41,-0.41,0.41,-0.41,-0.58,-0.22,-0.81,-0.81,-0.81
420.12,-0.42,0.37,-0.42,0.37,-0.37,-0.53,-0.17,-0.79,-0.79,-0.79
424.32,-0.43,0.34,-0.43,0.34,-0.34,-0.49,-0.12,-0.77,-0.77,-0.77
428.56,-0.44,0.31,-0.44,0.31,-0.31,-0.44,-0.08,-0.75,-0.75,-0.75
432.85,-0.45,0.28,-0.45,0.28,-0.28,-0.39,-0.03,-0.73,-0.73,-0.73
437.18,-0.45,0.25,-0.45,0.25,-0.26,-0.35,0.01,-0.71,-0.71,-0.70
441.55,-0.44,0.23,-0.45,0.23,-0.23,-0.30,0.05,-0.67,-0.68,-0.67
445.96,-0.45,0.20,-0.44,0.21,-0.21,-0.25,0.09,-0.66,-0.65,-0.66
450.42,-0.43,0.20,-0.44,0.19,-0.19,-0.21,0.13,-0.62,-0.63,-0.64
454.93,-0.43,0.16,-0.43,0.17,-0.17,-0.16,0.17,-0.61,-0.60,-0.60
459.48,-0.41,0.16,-0.41,0.16,-0.16,-0.12,0.21,-0.57,-0.57,-0.58
464.07,-0.40,0.15,-0.40,0.15,-0.15,-0.07,0.25,-0.55,-0.55,-0.55
468.71,-0.38,0.14,-0.38,0.14,-0.14,-0.03,0.28,-0.52,-0.52,-0.52
473.40,-0.36,0.13,-0.36,0.12,-0.13,0.02,0.31,-0.49,-0.49,-0.49
478.13,-0.34,0.12,-0.34,0.12,-0.12,0.06,0.34,-0.46,-0.46,-0.46
482.91,-0.33,0.11,-0.32,0.11,-0.11,0.11,0.37,-0.44,-0.44,-0.44
