frequency,raw,error,smoothed,error_smoothed,equalization,parametric_eq,fixed_band_eq,equalized_raw,equalized_smoothed,target
20.00,-8.95,-12.70,-8.95,-12.70,6.00,6.71,2.83,-2.95,-2.95,3.75
20.20,-8.87,-12.61,-8.88,-12.62,6.00,6.69,2.91,-2.87,-2.88,3.74
20.40,-8.80,-12.54,-8.80,-12.54,6.00,6.68,2.99,-2.80,-2.80,3.74
20.61,-8.72,-12.45,-8.72,-12.46,6.00,6.66,3.08,-2.72,-2.72,3.73
20.81,-8.64,-12.37,-8.64,-12.37,6.00,6.65,3.17,-2.64,-2.64,3.73
21.02,-8.56,-12.29,-8.56,-12.28,6.00,6.63,3.26,-2.56,-2.56,3.73
21.23,-8.47,-12.18,-8.48,-12.19,6.00,6.62,3.35,-2.47,-2.48,3.71
21.44,-8.39,-12.08,-8.39,-12.08,6.00,6.60,3.45,-2.39,-2.39,3.69
21.66,-8.31,-11.98,-8.31,-11.97,6.00,6.59,3.54,-2.31,-2.31,3.67
21.87,-8.22,-11.86,-8.22,-11.86,6.00,6.57,3.65,-2.22,-2.22,3.64
22.09,-8.13,-11.75,-8.13,-11.75,6.00,6.55,3.75,-2.13,-2.13,3.62
22.31,-8.04,-11.64,-8.04,-11.64,6.00,6.54,3.86,-2.04,-2.04,3.60
22.54,-7.96,-11.53,-7.95,-11.52,6.00,6.52,3.97,-1.96,-1.95,3.57
22.76,-7.86,-11.40,-7.87,-11.40,6.00,6.50,4.08,-1.86,-1.87,3.53
22.99,-7.77,-11.28,-7.78,-11.28,6.00,6.49,4.20,-1.77,-1.78,3.50
23.22,-7.69,-11.17,-7.68,-11.16,6.00,6.47,4.31,-1.69,-1.68,3.47
23.45,-7.59,-11.04,-7.60,-11.05,6.00,6.45,4.43,-1.59,-1.60,3.45
23.69,-7.50,-10.94,-7.50,-10.93,6.00,6.43,4.56,-1.50,-1.50,3.43
23.92,-7.41,-10.82,-7.41,-10.82,6.00,6.42,4.68,-1.41,-1.41,3.41
24.16,-7.31,-10.71,-7.32,-10.72,6.00,6.40,4.81,-1.31,-1.32,3.40
24.40,-7.23,-10.61,-7.22,-10.61,6.00,6.38,4.94,-1.23,-1.22,3.38
24.65,-7.13,-10.49,-7.13,-10.49,6.00,6.36,5.08,-1.13,-1.13,3.36
24.89,-7.03,-10.37,-7.03,-10.37,6.00,6.34,5.21,-1.03,-1.03,3.34
25.14,-6.93,-10.25,-6.93,-10.25,6.00,6.33,5.35,-0.93,-0.93,3.32
25.39,-6.84,-10.14,-6.84,-10.14,6.00,6.31,5.48,-0.84,-0.84,3.30
25.65,-6.74,-10.03,-6.74,-10.02,6.00,6.29,5.62,-0.74,-0.74,3.29
25.91,-6.64,-9.90,-6.65,-9.91,6.00,6.27,5.76,-0.64,-0.65,3.26
26.16,-6.55,-9.80,-6.55,-9.80,6.00,6.25,5.90,-0.55,-0.55,3.25
26.43,-6.46,-9.69,-6.46,-9.69,6.00,6.23,6.03,-0.46,-0.46,3.23
26.69,-6.36,-9.58,-6.36,-9.58,6.00,6.21,6.17,-0.36,-0.36,3.22
26.96,-6.27,-9.47,-6.27,-9.47,6.00,6.19,6.31,-0.27,-0.27,3.19
27.23,-6.17,-9.36,-6.18,-9.36,6.00,6.18,6.44,-0.17,-0.18,3.18
27.50,-6.09,-9.25,-6.09,-9.25,6.00,6.16,6.57,-0.09,-0.09,3.16
27.77,-5.99,-9.13,-5.99,-9.14,6.00,6.14,6.69,0.01,0.01,3.14
28.05,-5.89,-9.02,-5.90,-9.02,6.00,6.12,6.81,0.11,0.10,3.13
28.33,-5.80,-8.90,-5.80,-8.90,6.00,6.10,6.92,0.20,0.20,3.10
28.62,-5.70,-8.79,-5.71,-8.80,6.00,6.08,7.03,0.30,0.29,3.09
28.90,-5.61,-8.70,-5.61,-8.69,6.00,6.07,7.13,0.39,0.39,3.09
29.19,-5.52,-8.59,-5.51,-8.59,6.00,6.05,7.22,0.48,0.49,3.07
29.48,-5.41,-8.48,-5.42,-8.48,6.00,6.03,7.30,0.59,0.58,3.07
29.78,-5.32,-8.37,-5.32,-8.37,6.00,6.02,7.37,0.68,0.68,3.05
30.08,-5.22,-8.26,-5.23,-8.26,6.00,6.00,7.42,0.78,0.77,3.03
30.38,-5.14,-8.16,-5.14,-8.15,6.00,5.99,7.47,0.86,0.86,3.01
30.68,-5.05,-8.04,-5.05,-8.04,6.00,5.97,7.50,0.95,0.95,2.99
30.99,-4.95,-7.92,-4.96,-7.94,6.00,5.96,7.53,1.05,1.04,2.97
31.30,-4.88,-7.84,-4.88,-7.83,6.00,5.95,7.53,1.12,1.12,2.96
31.61,-4.79,-7.74,-4.80,-7.74,6.00,5.94,7.53,1.21,1.20,2.95
31.93,-4.72,-7.64,-4.72,-7.64,6.00,5.93,7.51,1.28,1.28,2.92
32.24,-4.64,-7.53,-4.64,-7.54,6.00,5.93,7.48,1.36,1.36,2.89
32.57,-4.55,-7.42,-4.56,-7.43,6.00,5.92,7.44,1.45,1.44,2.87
32.89,-4.48,-7.34,-4.48,-7.33,6.00,5.92,7.38,1.52,1.52,2.86
33.22,-4.39,-7.22,-4.40,-7.23,6.00,5.92,7.32,1.61,1.60,2.83
33.55,-4.32,-7.14,-4.32,-7.13,6.00,5.92,7.24,1.68,1.68,2.82
33.89,-4.24,-7.03,-4.24,-7.03,6.00,5.92,7.16,1.76,1.76,2.79
34.23,-4.17,-6.95,-4.17,-6.94,6.00,5.92,7.06,1.83,1.83,2.77
34.57,-4.09,-6.83,-4.09,-6.84,6.00,5.92,6.96,1.91,1.91,2.74
34.92,-4.02,-6.74,-4.02,-6.75,6.00,5.92,6.85,1.98,1.98,2.72
35.27,-3.95,-6.66,-3.95,-6.65,6.00,5.92,6.74,2.05,2.05,2.71
35.62,-3.88,-6.57,-3.88,-6.56,6.01,5.92,6.62,2.12,2.13,2.68
35.97,-3.81,-6.46,-3.81,-6.47,6.01,5.91,6.50,2.20,2.20,2.65
36.33,-3.73,-6.37,-3.74,-6.37,6.02,5.90,6.38,2.29,2.28,2.64
36.70,-3.67,-6.29,-3.67,-6.28,6.01,5.87,6.25,2.34,2.35,2.62
37.06,-3.60,-6.19,-3.60,-6.19,6.00,5.85,6.12,2.40,2.40,2.58
37.43,-3.53,-6.10,-3.53,-6.10,5.98,5.81,5.99,2.45,2.45,2.57
37.81,-3.46,-6.01,-3.46,-6.01,5.95,5.76,5.86,2.48,2.48,2.55
38.19,-3.39,-5.92,-3.39,-5.92,5.90,5.70,5.73,2.51,2.50,2.53
38.57,-3.33,-5.85,-3.33,-5.84,5.84,5.64,5.61,2.50,2.51,2.51
38.95,-3.26,-5.75,-3.26,-5.75,5.76,5.57,5.48,2.50,2.50,2.49
39.34,-3.20,-5.67,-3.20,-5.67,5.68,5.50,5.35,2.48,2.48,2.47
39.74,-3.14,-5.58,-3.14,-5.58,5.59,5.43,5.23,2.45,2.45,2.43
40.14,-3.07,-5.49,-3.07,-5.49,5.50,5.35,5.11,2.43,2.43,2.42
40.54,-3.01,-5.41,-3.01,-5.41,5.41,5.27,4.99,2.40,2.40,2.40
40.94,-2.94,-5.32,-2.94,-5.33,5.33,5.19,4.87,2.39,2.38,2.38
41.35,-2.88,-5.24,-2.88,-5.24,5.25,5.11,4.76,2.37,2.37,2.36
41.76,-2.82,-5.17,-2.82,-5.16,5.17,5.04,4.65,2.34,2.35,2.34
42.18,-2.75,-5.08,-2.75,-5.08,5.08,4.96,4.54,2.33,2.33,2.33
42.60,-2.69,-5.00,-2.69,-5.01,5.00,4.89,4.43,2.31,2.31,2.31
43.03,-2.63,-4.93,-2.63,-4.93,4.92,4.82,4.33,2.29,2.29,2.30
43.46,-2.57,-4.85,-2.57,-4.84,4.83,4.75,4.23,2.26,2.27,2.28
43.90,-2.50,-4.75,-2.50,-4.75,4.75,4.68,4.13,2.24,2.24,2.24
44.33,-2.43,-4.65,-2.44,-4.66,4.66,4.61,4.04,2.23,2.22,2.22
44.78,-2.37,-4.57,-2.37,-4.57,4.57,4.54,3.95,2.20,2.20,2.20
45.23,-2.30,-4.48,-2.30,-4.48,4.49,4.48,3.86,2.19,2.18,2.18
45.68,-2.24,-4.40,-2.24,-4.40,4.40,4.41,3.78,2.16,2.16,2.16
46.13,-2.17,-4.31,-2.17,-4.31,4.32,4.35,3.70,2.15,2.15,2.14
46.60,-2.11,-4.24,-2.11,-4.24,4.24,4.29,3.62,2.13,2.13,2.13
47.06,-2.04,-4.15,-2.04,-4.16,4.16,4.22,3.55,2.11,2.11,2.11
47.53,-1.98,-4.08,-1.98,-4.08,4.07,4.16,3.47,2.09,2.09,2.10
48.01,-1.92,-4.00,-1.92,-4.00,3.99,4.10,3.40,2.07,2.07,2.08
48.49,-1.86,-3.92,-1.86,-3.91,3.91,4.04,3.34,2.04,2.05,2.05
48.97,-1.79,-3.82,-1.80,-3.82,3.82,3.98,3.27,2.03,2.02,2.03
49.46,-1.73,-3.73,-1.73,-3.73,3.73,3.92,3.21,2.00,2.00,2.00
49.96,-1.67,-3.64,-1.67,-3.64,3.65,3.85,3.15,1.98,1.98,1.97
50.46,-1.60,-3.56,-1.61,-3.56,3.56,3.79,3.09,1.96,1.96,1.95
50.96,-1.54,-3.48,-1.54,-3.47,3.48,3.73,3.04,1.94,1.94,1.94
51.47,-1.48,-3.39,-1.48,-3.39,3.39,3.67,2.98,1.91,1.91,1.91
51.99,-1.42,-3.31,-1.42,-3.32,3.31,3.61,2.93,1.89,1.89,1.89
52.51,-1.36,-3.24,-1.36,-3.24,3.23,3.55,2.88,1.87,1.87,1.88
53.03,-1.30,-3.16,-1.30,-3.15,3.15,3.48,2.83,1.85,1.85,1.86
53.56,-1.23,-3.06,-1.24,-3.07,3.07,3.42,2.78,1.84,1.83,1.83
54.10,-1.17,-2.98,-1.17,-2.99,2.99,3.36,2.73,1.81,1.81,1.81
54.64,-1.12,-2.91,-1.11,-2.90,2.90,3.30,2.69,1.78,1.79,1.79
55.18,-1.05,-2.82,-1.06,-2.82,2.82,3.23,2.64,1.77,1.77,1.77
55.74,-0.99,-2.74,-1.00,-2.74,2.74,3.17,2.60,1.75,1.74,1.75
56.29,-0.94,-2.67,-0.93,-2.66,2.66,3.10,2.55,1.72,1.73,1.73
56.86,-0.87,-2.58,-0.87,-2.58,2.58,3.04,2.51,1.71,1.71,1.70
57.42,-0.81,-2.49,-0.82,-2.50,2.51,2.97,2.46,1.70,1.69,1.68
58.00,-0.76,-2.43,-0.76,-2.43,2.43,2.91,2.42,1.67,1.67,1.67
58.58,-0.70,-2.36,-0.70,-2.36,2.36,2.84,2.37,1.65,1.65,1.66
59.16,-0.64,-2.28,-0.64,-2.28,2.28,2.78,2.32,1.64,1.63,1.64
59.76,-0.59,-2.21,-0.59,-2.21,2.20,2.71,2.28,1.61,1.62,1.62
60.35,-0.53,-2.13,-0.53,-2.13,2.13,2.64,2.23,1.60,1.59,1.60
60.96,-0.48,-2.06,-0.48,-2.05,2.05,2.57,2.18,1.57,1.57,1.58
61.57,-0.43,-1.98,-0.43,-1.98,1.98,2.50,2.13,1.55,1.55,1.55
62.18,-0.37,-1.89,-0.37,-1.90,1.90,2.43,2.08,1.53,1.53,1.52
62.80,-0.32,-1.82,-0.32,-1.82,1.83,2.36,2.02,1.51,1.51,1.50
63.43,-0.27,-1.75,-0.27,-1.75,1.76,2.29,1.97,1.49,1.48,1.48
64.07,-0.23,-1.69,-0.23,-1.69,1.69,2.22,1.92,1.46,1.46,1.46
64.71,-0.18,-1.62,-0.18,-1.62,1.62,2.15,1.86,1.44,1.44,1.44
65.35,-0.13,-1.56,-0.13,-1.56,1.55,2.08,1.80,1.42,1.42,1.42
66.01,-0.09,-1.50,-0.08,-1.49,1.49,2.01,1.74,1.40,1.40,1.41
66.67,-0.03,-1.42,-0.04,-1.42,1.42,1.93,1.68,1.39,1.39,1.39
67.33,0.01,-1.36,0.01,-1.36,1.36,1.86,1.62,1.37,1.37,1.37
68.01,0.05,-1.30,0.05,-1.29,1.30,1.78,1.55,1.34,1.35,1.35
68.69,0.10,-1.23,0.10,-1.23,1.23,1.71,1.49,1.33,1.33,1.33
69.37,0.14,-1.17,0.14,-1.17,1.17,1.63,1.42,1.30,1.31,1.31
70.07,0.19,-1.10,0.19,-1.10,1.10,1.56,1.36,1.29,1.29,1.28
70.77,0.23,-1.04,0.23,-1.04,1.04,1.48,1.29,1.26,1.27,1.27
71.48,0.28,-0.97,0.27,-0.97,0.97,1.41,1.22,1.25,1.24,1.25
72.19,0.31,-0.92,0.31,-0.91,0.90,1.33,1.15,1.21,1.22,1.22
72.91,0.36,-0.83,0.36,-0.84,0.84,1.25,1.08,1.20,1.20,1.19
73.64,0.40,-0.77,0.40,-0.77,0.77,1.17,1.01,1.17,1.17,1.17
74.38,0.44,-0.71,0.44,-0.70,0.71,1.09,0.94,1.15,1.15,1.15
75.12,0.49,-0.64,0.48,-0.64,0.64,1.02,0.87,1.13,1.13,1.13
75.87,0.52,-0.58,0.52,-0.58,0.58,0.94,0.79,1.10,1.10,1.10
76.63,0.56,-0.52,0.56,-0.52,0.52,0.86,0.72,1.07,1.08,1.08
77.40,0.60,-0.46,0.60,-0.45,0.45,0.78,0.65,1.05,1.05,1.05
78.17,0.64,-0.38,0.64,-0.39,0.39,0.70,0.57,1.03,1.03,1.02
78.95,0.68,-0.32,0.68,-0.32,0.32,0.62,0.50,1.00,1.00,1.00
79.74,0.72,-0.26,0.72,-0.26,0.26,0.54,0.42,0.98,0.97,0.98
80.54,0.75,-0.20,0.75,-0.19,0.19,0.46,0.35,0.94,0.95,0.95
81.35,0.80,-0.12,0.79,-0.13,0.13,0.38,0.27,0.92,0.92,0.92
82.16,0.83,-0.06,0.83,-0.06,0.06,0.29,0.20,0.89,0.89,0.89
82.98,0.87,0.00,0.87,0.01,-0.00,0.21,0.12,0.87,0.86,0.87
83.81,0.90,0.07,0.90,0.07,-0.07,0.13,0.05,0.83,0.83,0.83
84.65,0.93,0.13,0.93,0.13,-0.13,0.05,-0.03,0.80,0.80,0.79
85.50,0.96,0.19,0.96,0.19,-0.19,-0.03,-0.11,0.77,0.76,0.77
86.35,0.99,0.25,0.99,0.25,-0.25,-0.11,-0.18,0.73,0.73,0.74
87.22,1.02,0.31,1.02,0.32,-0.32,-0.19,-0.26,0.70,0.71,0.70
88.09,1.06,0.39,1.05,0.38,-0.38,-0.27,-0.34,0.68,0.68,0.67
88.97,1.08,0.43,1.08,0.44,-0.44,-0.35,-0.42,0.64,0.65,0.65
89.86,1.11,0.49,1.11,0.50,-0.49,-0.43,-0.50,0.61,0.62,0.62
90.76,1.14,0.56,1.13,0.55,-0.55,-0.51,-0.57,0.59,0.58,0.58
91.66,1.16,0.61,1.16,0.61,-0.61,-0.59,-0.65,0.55,0.55,0.55
92.58,1.18,0.67,1.18,0.67,-0.67,-0.67,-0.73,0.51,0.51,0.50
93.51,1.21,0.72,1.21,0.73,-0.73,-0.75,-0.81,0.48,0.48,0.49
94.44,1.24,0.79,1.23,0.79,-0.79,-0.83,-0.89,0.45,0.45,0.45
95.39,1.26,0.84,1.26,0.85,-0.85,-0.91,-0.97,0.41,0.41,0.41
96.34,1.28,0.91,1.28,0.91,-0.91,-0.99,-1.05,0.37,0.37,0.37
97.30,1.30,0.97,1.30,0.97,-0.97,-1.06,-1.14,0.33,0.33,0.33
98.28,1.33,1.04,1.32,1.03,-1.03,-1.14,-1.22,0.30,0.29,0.29
99.26,1.34,1.08,1.35,1.09,-1.09,-1.21,-1.30,0.25,0.26,0.25
100.25,1.37,1.15,1.37,1.15,-1.15,-1.29,-1.38,0.22,0.22,0.22
101.25,1.39,1.21,1.38,1.21,-1.21,-1.36,-1.46,0.18,0.17,0.18
102.27,1.40,1.26,1.40,1.27,-1.27,-1.43,-1.54,0.13,0.13,0.14
103.29,1.42,1.34,1.42,1.33,-1.33,-1.51,-1.62,0.09,0.09,0.08
104.32,1.44,1.39,1.44,1.39,-1.39,-1.58,-1.70,0.05,0.05,0.05
105.37,1.46,1.45,1.45,1.45,-1.45,-1.65,-1.78,0.01,0.01,0.00
106.42,1.47,1.50,1.47,1.50,-1.50,-1.72,-1.85,-0.04,-0.04,-0.03
107.48,1.48,1.55,1.48,1.56,-1.56,-1.78,-1.93,-0.09,-0.08,-0.07
108.56,1.50,1.63,1.50,1.62,-1.63,-1.85,-2.01,-0.13,-0.13,-0.13
109.64,1.52,1.69,1.52,1.68,-1.69,-1.92,-2.08,-0.17,-0.17,-0.17
110.74,1.53,1.74,1.53,1.75,-1.75,-1.98,-2.15,-0.22,-0.22,-0.22
111.85,1.55,1.80,1.55,1.81,-1.81,-2.04,-2.22,-0.26,-0.26,-0.25
112.97,1.56,1.88,1.56,1.87,-1.87,-2.11,-2.28,-0.31,-0.31,-0.32
114.10,1.57,1.93,1.57,1.93,-1.93,-2.17,-2.35,-0.36,-0.36,-0.36
115.24,1.59,2.00,1.59,1.99,-1.99,-2.23,-2.41,-0.40,-0.41,-0.41
116.39,1.60,2.05,1.60,2.05,-2.05,-2.28,-2.47,-0.45,-0.45,-0.45
117.55,1.61,2.11,1.61,2.11,-2.11,-2.34,-2.52,-0.50,-0.50,-0.50
118.73,1.62,2.17,1.62,2.16,-2.16,-2.40,-2.57,-0.54,-0.54,-0.55
119.92,1.63,2.21,1.63,2.21,-2.21,-2.45,-2.61,-0.58,-0.59,-0.58
121.12,1.63,2.26,1.63,2.26,-2.26,-2.50,-2.66,-0.63,-0.63,-0.63
122.33,1.64,2.31,1.64,2.31,-2.31,-2.55,-2.69,-0.67,-0.67,-0.67
123.55,1.65,2.36,1.65,2.36,-2.36,-2.60,-2.73,-0.71,-0.71,-0.71
124.79,1.66,2.40,1.66,2.40,-2.41,-2.65,-2.76,-0.75,-0.75,-0.74
126.03,1.66,2.45,1.66,2.45,-2.45,-2.69,-2.79,-0.80,-0.79,-0.79
127.29,1.67,2.50,1.67,2.50,-2.50,-2.74,-2.80,-0.83,-0.83,-0.83
128.57,1.67,2.54,1.67,2.55,-2.54,-2.78,-2.82,-0.88,-0.87,-0.88
129.85,1.68,2.60,1.68,2.59,-2.59,-2.82,-2.83,-0.91,-0.91,-0.92
131.15,1.68,2.63,1.68,2.63,-2.63,-2.86,-2.84,-0.95,-0.95,-0.95
132.46,1.69,2.67,1.69,2.67,-2.67,-2.89,-2.85,-0.98,-0.98,-0.98
133.79,1.69,2.70,1.69,2.70,-2.71,-2.93,-2.85,-1.02,-1.02,-1.01
135.12,1.69,2.74,1.69,2.74,-2.74,-2.96,-2.85,-1.05,-1.05,-1.05
136.48,1.69,2.76,1.69,2.77,-2.77,-3.00,-2.85,-1.08,-1.08,-1.07
137.84,1.70,2.80,1.69,2.80,-2.80,-3.03,-2.84,-1.10,-1.11,-1.10
139.22,1.70,2.83,1.70,2.83,-2.83,-3.06,-2.83,-1.13,-1.13,-1.13
140.61,1.70,2.86,1.70,2.86,-2.86,-3.08,-2.82,-1.16,-1.15,-1.16
142.02,1.71,2.88,1.70,2.88,-2.88,-3.11,-2.81,-1.17,-1.18,-1.17
143.44,1.71,2.91,1.71,2.90,-2.90,-3.13,-2.79,-1.20,-1.20,-1.20
144.87,1.71,2.92,1.71,2.93,-2.93,-3.15,-2.78,-1.22,-1.22,-1.22
146.32,1.72,2.95,1.72,2.95,-2.95,-3.17,-2.76,-1.23,-1.23,-1.23
147.78,1.72,2.97,1.72,2.97,-2.97,-3.19,-2.74,-1.25,-1.25,-1.25
149.26,1.73,2.99,1.72,2.99,-2.99,-3.21,-2.73,-1.26,-1.27,-1.26
150.75,1.72,3.02,1.72,3.01,-3.01,-3.23,-2.71,-1.29,-1.29,-1.30
152.26,1.73,3.04,1.73,3.04,-3.03,-3.24,-2.69,-1.30,-1.31,-1.31
153.78,1.73,3.05,1.73,3.06,-3.05,-3.25,-2.68,-1.32,-1.33,-1.33
155.32,1.73,3.08,1.73,3.07,-3.07,-3.26,-2.66,-1.34,-1.35,-1.35
156.88,1.72,3.08,1.72,3.09,-3.09,-3.27,-2.65,-1.37,-1.37,-1.36
158.44,1.72,3.10,1.72,3.10,-3.11,-3.28,-2.64,-1.39,-1.39,-1.38
160.03,1.72,3.12,1.71,3.12,-3.13,-3.29,-2.62,-1.41,-1.41,-1.40
161.63,1.71,3.14,1.71,3.14,-3.14,-3.29,-2.61,-1.43,-1.43,-1.44
163.24,1.71,3.16,1.71,3.16,-3.16,-3.30,-2.61,-1.45,-1.45,-1.46
164.88,1.71,3.17,1.71,3.18,-3.17,-3.30,-2.60,-1.46,-1.46,-1.47
166.53,1.70,3.18,1.70,3.19,-3.18,-3.30,-2.59,-1.48,-1.48,-1.48
168.19,1.69,3.20,1.69,3.20,-3.19,-3.30,-2.59,-1.51,-1.51,-1.51
169.87,1.67,3.20,1.67,3.20,-3.21,-3.30,-2.59,-1.54,-1.53,-1.53
171.57,1.66,3.22,1.66,3.21,-3.22,-3.29,-2.59,-1.56,-1.56,-1.56
173.29,1.64,3.21,1.64,3.22,-3.23,-3.29,-2.59,-1.59,-1.59,-1.58
175.02,1.63,3.23,1.63,3.23,-3.24,-3.28,-2.60,-1.61,-1.61,-1.60
176.77,1.61,3.25,1.61,3.25,-3.25,-3.28,-2.61,-1.64,-1.64,-1.64
178.54,1.60,3.27,1.60,3.27,-3.26,-3.27,-2.62,-1.66,-1.67,-1.67
180.32,1.58,3.28,1.58,3.28,-3.28,-3.26,-2.63,-1.70,-1.70,-1.70
182.13,1.56,3.28,1.56,3.29,-3.29,-3.25,-2.64,-1.73,-1.73,-1.72
183.95,1.53,3.30,1.54,3.30,-3.30,-3.24,-2.66,-1.77,-1.76,-1.77
185.79,1.52,3.31,1.52,3.31,-3.31,-3.22,-2.67,-1.79,-1.79,-1.79
187.65,1.50,3.33,1.49,3.32,-3.32,-3.21,-2.69,-1.82,-1.82,-1.83
189.52,1.47,3.32,1.47,3.33,-3.32,-3.20,-2.72,-1.86,-1.85,-1.85
191.42,1.45,3.33,1.45,3.33,-3.33,-3.18,-2.74,-1.88,-1.88,-1.88
193.33,1.43,3.33,1.42,3.33,-3.33,-3.16,-2.76,-1.91,-1.91,-1.90
195.27,1.40,3.34,1.40,3.33,-3.34,-3.15,-2.79,-1.94,-1.94,-1.94
197.22,1.37,3.33,1.37,3.34,-3.34,-3.13,-2.82,-1.97,-1.96,-1.96
199.19,1.35,3.35,1.35,3.34,-3.34,-3.11,-2.85,-1.99,-1.99,-2.00
201.18,1.33,3.34,1.32,3.34,-3.33,-3.09,-2.88,-2.01,-2.01,-2.01
203.19,1.29,3.32,1.30,3.33,-3.33,-3.07,-2.91,-2.04,-2.03,-2.03
205.23,1.27,3.33,1.27,3.32,-3.33,-3.05,-2.94,-2.06,-2.06,-2.06
207.28,1.25,3.31,1.24,3.32,-3.32,-3.03,-2.97,-2.07,-2.08,-2.06
209.35,1.22,3.31,1.22,3.32,-3.31,-3.00,-3.01,-2.09,-2.09,-2.09
211.44,1.20,3.32,1.20,3.31,-3.30,-2.98,-3.04,-2.10,-2.11,-2.12
213.56,1.17,3.30,1.17,3.29,-3.29,-2.96,-3.07,-2.12,-2.12,-2.13
215.69,1.14,3.27,1.14,3.28,-3.28,-2.93,-3.11,-2.14,-2.14,-2.13
217.85,1.11,3.25,1.11,3.26,-3.26,-2.91,-3.14,-2.15,-2.15,-2.15
220.03,1.09,3.24,1.09,3.24,-3.23,-2.88,-3.17,-2.15,-2.15,-2.15
222.23,1.06,3.22,1.06,3.21,-3.21,-2.85,-3.19,-2.15,-2.15,-2.16
224.45,1.03,3.18,1.03,3.18,-3.18,-2.83,-3.22,-2.15,-2.15,-2.15
226.70,1.00,3.14,1.00,3.14,-3.15,-2.80,-3.24,-2.15,-2.15,-2.15
228.96,0.97,3.11,0.97,3.11,-3.11,-2.77,-3.27,-2.14,-2.14,-2.14
231.25,0.94,3.07,0.94,3.07,-3.07,-2.74,-3.28,-2.13,-2.14,-2.13
233.57,0.91,3.03,0.91,3.03,-3.04,-2.71,-3.30,-2.13,-2.13,-2.13
235.90,0.88,2.99,0.88,2.99,-3.00,-2.68,-3.31,-2.12,-2.12,-2.11
238.26,0.86,2.97,0.86,2.96,-2.96,-2.65,-3.32,-2.10,-2.10,-2.11
240.64,0.83,2.91,0.83,2.92,-2.92,-2.62,-3.32,-2.09,-2.09,-2.08
243.05,0.82,2.89,0.81,2.88,-2.88,-2.59,-3.32,-2.06,-2.07,-2.07
245.48,0.79,2.83,0.79,2.84,-2.84,-2.56,-3.32,-2.06,-2.05,-2.04
247.93,0.78,2.80,0.78,2.81,-2.81,-2.53,-3.31,-2.03,-2.03,-2.02
250.41,0.77,2.78,0.76,2.77,-2.77,-2.50,-3.29,-2.00,-2.00,-2.02
252.92,0.75,2.73,0.75,2.73,-2.73,-2.47,-3.27,-1.98,-1.98,-1.98
255.45,0.73,2.68,0.73,2.69,-2.69,-2.44,-3.25,-1.96,-1.96,-1.95
258.00,0.71,2.65,0.71,2.65,-2.65,-2.41,-3.22,-1.94,-1.94,-1.94
260.58,0.70,2.61,0.70,2.61,-2.61,-2.37,-3.18,-1.91,-1.91,-1.91
263.19,0.68,2.57,0.68,2.57,-2.57,-2.34,-3.15,-1.89,-1.89,-1.89
265.82,0.66,2.53,0.66,2.52,-2.52,-2.31,-3.10,-1.86,-1.86,-1.87
268.48,0.64,2.47,0.64,2.48,-2.48,-2.28,-3.06,-1.84,-1.84,-1.84
271.16,0.62,2.43,0.62,2.43,-2.43,-2.24,-3.01,-1.81,-1.82,-1.81
273.87,0.59,2.38,0.59,2.38,-2.39,-2.21,-2.95,-1.80,-1.79,-1.79
276.61,0.57,2.34,0.57,2.34,-2.34,-2.18,-2.90,-1.77,-1.77,-1.77
279.38,0.55,2.30,0.55,2.29,-2.29,-2.14,-2.84,-1.74,-1.75,-1.75
282.17,0.53,2.25,0.52,2.25,-2.25,-2.11,-2.78,-1.72,-1.72,-1.72
284.99,0.50,2.20,0.50,2.20,-2.20,-2.08,-2.71,-1.70,-1.70,-1.70
287.84,0.48,2.15,0.48,2.15,-2.16,-2.04,-2.64,-1.68,-1.67,-1.67
290.72,0.47,2.11,0.46,2.11,-2.11,-2.01,-2.58,-1.64,-1.65,-1.64
293.63,0.45,2.06,0.45,2.06,-2.06,-1.97,-2.51,-1.62,-1.62,-1.62
296.57,0.43,2.02,0.43,2.02,-2.02,-1.94,-2.44,-1.59,-1.59,-1.59
299.53,0.41,1.97,0.41,1.97,-1.97,-1.90,-2.36,-1.56,-1.56,-1.56
302.53,0.39,1.93,0.39,1.92,-1.92,-1.87,-2.29,-1.53,-1.53,-1.54
305.55,0.37,1.86,0.37,1.88,-1.87,-1.83,-2.22,-1.50,-1.50,-1.50
308.61,0.36,1.83,0.36,1.82,-1.82,-1.80,-2.14,-1.46,-1.46,-1.47
311.69,0.34,1.77,0.34,1.76,-1.77,-1.76,-2.07,-1.43,-1.43,-1.43
314.81,0.32,1.70,0.32,1.71,-1.71,-1.73,-2.00,-1.40,-1.40,-1.38
317.96,0.29,1.65,0.29,1.66,-1.66,-1.69,-1.93,-1.37,-1.37,-1.36
321.14,0.28,1.62,0.27,1.61,-1.61,-1.66,-1.85,-1.33,-1.34,-1.34
324.35,0.25,1.56,0.25,1.56,-1.56,-1.62,-1.78,-1.31,-1.31,-1.31
327.59,0.23,1.51,0.23,1.51,-1.51,-1.59,-1.71,-1.28,-1.28,-1.28
330.87,0.20,1.45,0.20,1.46,-1.46,-1.55,-1.64,-1.26,-1.26,-1.25
334.18,0.18,1.41,0.18,1.41,-1.41,-1.52,-1.57,-1.23,-1.23,-1.23
337.52,0.15,1.36,0.15,1.36,-1.36,-1.48,-1.50,-1.21,-1.21,-1.22
340.90,0.12,1.31,0.12,1.31,-1.31,-1.45,-1.43,-1.19,-1.19,-1.19
344.30,0.09,1.26,0.09,1.26,-1.26,-1.41,-1.37,-1.17,-1.17,-1.17
347.75,0.05,1.20,0.05,1.20,-1.20,-1.37,-1.30,-1.16,-1.15,-1.15
351.23,0.03,1.16,0.02,1.15,-1.15,-1.34,-1.23,-1.13,-1.13,-1.13
354.74,-0.01,1.10,-0.01,1.10,-1.10,-1.30,-1.17,-1.12,-1.11,-1.11
358.28,-0.04,1.05,-0.04,1.05,-1.06,-1.26,-1.11,-1.10,-1.10,-1.09
361.87,-0.07,1.00,-0.07,1.00,-1.01,-1.23,-1.04,-1.08,-1.08,-1.08
365.49,-0.10,0.96,-0.10,0.96,-0.96,-1.19,-0.98,-1.06,-1.06,-1.06
369.14,-0.13,0.92,-0.13,0.92,-0.92,-1.15,-0.92,-1.05,-1.05,-1.05
372.83,-0.16,0.87,-0.16,0.87,-0.87,-1.12,-0.86,-1.03,-1.03,-1.03
376.56,-0.18,0.84,-0.18,0.83,-0.83,-1.08,-0.80,-1.01,-1.01,-1.02
380.33,-0.21,0.78,-0.21,0.78,-0.78,-1.04,-0.75,-1.00,-0.99,-0.99
384.13,-0.23,0.74,-0.23,0.74,-0.74,-1.00,-0.69,-0.97,-0.97,-0.97
387.97,-0.26,0.69,-0.26,0.70,-0.70,-0.96,-0.63,-0.96,-0.96,-0.95
391.85,-0.28,0.66,-0.28,0.66,-0.65,-0.93,-0.58,-0.94,-0.94,-0.95
395.77,-0.31,0.60,-0.31,0.61,-0.61,-0.89,-0.52,-0.92,-0.92,-0.92
399.73,-0.32,0.58,-0.33,0.57,-0.57,-0.85,-0.47,-0.89,-0.90,-0.90
403.72,-0.35,0.53,-0.35,0.53,-0.53,-0.81,-0.42,-0.88,-0.88,-0.88
407.76,-0.37,0.49,-0.37,0.49,-0.49,-0.77,-0.37,-0.86,-0.85,-0.86
411.84,-0.39,0.44,-0.39,0.44,-0.45,-0.73,-0.31,-0.84,-0.84,-0.83
415.96,-0.40,0.41,-0.41,0.41,-0.41,-0.69,-0.27,-0.81,-0.81,-0.81
420.12,-0.42,0.37,-0.42,0.37,-0.37,-0.65,-0.22,-0.79,-0.79,-0.79
424.32,-0.43,0.34,-0.43,0.34,-0.34,-0.61,-0.17,-0.77,-0.77,-0.77
428.56,-0.44,0.31,-0.44,0.31,-0.31,-0.56,-0.12,-0.75,-0.75,-0.75
432.85,-0.45,0.28,-0.45,0.28,-0.28,-0.52,-0.08,-0.73,-0.73,-0.73
437.18,-0.45,0.25,-0.45,0.25,-0.25,-0.48,-0.03,-0.71,-0.71,-0.70
441.55,-0.44,0.23,-0.45,0.23,-0.23,-0.44,0.01,-0.67,-0.68,-0.67
445.96,-0.45,0.20,-0.44,0.21,-0.21,-0.39,0.05,-0.66,-0.65,-0.65
450.42,-0.43,0.20,-0.44,0.19,-0.19,-0.35,0.09,-0.62,-0.63,-0.64
454.93,-0.43,0.16,-0.43,0.17,-0.17,-0.31,0.13,-0.61,-0.60,-0.60
459.48,-0.41,0.17,-0.41,0.16,-0.16,-0.26,0.16,-0.57,-0.57,-0.58
464.07,-0.40,0.15,-0.40,0.15,-0.15,-0.22,0.20,-0.55,-0.55,-0.55
468.71,-0.38,0.14,-0.38,0.14,-0.14,-0.17,0.23,-0.52,-0.52,-0.52
473.40,-0.36,0.13,-0.36,0.12,-0.13,-0.13,0.27,-0.49,-0.49,-0.49
478.13,-0.34,0.12,-0.34,0.12,-0.12,-0.08,0.30,-0.46,-0.47,-0.46
482.91,-0.33,0.11,-0.32,0.11,-0.11,-0.03,0.33,-0.44,-0.44,-0.44
