frequency,raw,error,smoothed,error_smoothed,equalization,parametric_eq,fixed_band_eq,equalized_raw,equalized_smoothed,target
20.00,-16.92,-16.51,-16.92,-16.51,6.00,5.20,3.04,-10.92,-10.92,-0.41
20.20,-16.76,-16.44,-16.76,-16.44,6.00,5.25,3.12,-10.76,-10.76,-0.32
20.40,-16.60,-16.37,-16.60,-16.37,6.00,5.30,3.21,-10.60,-10.60,-0.23
20.61,-16.44,-16.28,-16.44,-16.29,6.00,5.34,3.30,-10.44,-10.44,-0.16
20.81,-16.28,-16.21,-16.28,-16.21,6.00,5.39,3.40,-10.28,-10.28,-0.07
21.02,-16.11,-16.12,-16.11,-16.11,6.00,5.44,3.49,-10.11,-10.11,0.01
21.23,-15.95,-16.02,-15.94,-16.02,6.00,5.48,3.59,-9.95,-9.94,0.07
21.44,-15.78,-15.91,-15.78,-15.92,6.00,5.53,3.69,-9.78,-9.78,0.13
21.66,-15.62,-15.82,-15.62,-15.81,6.00,5.57,3.80,-9.62,-9.62,0.20
21.87,-15.46,-15.71,-15.45,-15.70,6.00,5.62,3.90,-9.46,-9.45,0.25
22.09,-15.29,-15.59,-15.29,-15.59,6.00,5.66,4.01,-9.29,-9.29,0.30
22.31,-15.12,-15.47,-15.12,-15.47,6.00,5.70,4.13,-9.12,-9.12,0.35
22.54,-14.95,-15.35,-14.95,-15.35,6.00,5.74,4.24,-8.95,-8.95,0.40
22.76,-14.79,-15.23,-14.79,-15.22,6.00,5.78,4.36,-8.79,-8.79,0.44
22.99,-14.62,-15.10,-14.62,-15.10,6.00,5.82,4.48,-8.62,-8.62,0.48
23.22,-14.45,-14.97,-14.45,-14.97,6.00,5.86,4.61,-8.45,-8.45,0.52
23.45,-14.28,-14.85,-14.28,-14.84,6.00,5.90,4.74,-8.28,-8.28,0.57
23.69,-14.11,-14.72,-14.11,-14.72,6.00,5.94,4.87,-8.11,-8.11,0.61
23.92,-13.94,-14.58,-13.94,-14.59,6.00,5.97,5.00,-7.94,-7.94,0.65
24.16,-13.77,-14.46,-13.77,-14.46,6.00,6.00,5.13,-7.77,-7.77,0.70
24.40,-13.60,-14.33,-13.60,-14.33,6.00,6.04,5.27,-7.60,-7.60,0.74
24.65,-13.43,-14.20,-13.43,-14.20,6.00,6.07,5.41,-7.43,-7.43,0.77
24.89,-13.26,-14.06,-13.26,-14.06,6.00,6.10,5.56,-7.26,-7.26,0.81
25.14,-13.09,-13.93,-13.09,-13.93,6.00,6.12,5.70,-7.09,-7.09,0.85
25.39,-12.92,-13.80,-12.92,-13.80,6.00,6.15,5.84,-6.92,-6.92,0.89
25.65,-12.75,-13.67,-12.74,-13.67,6.00,6.18,5.99,-6.75,-6.74,0.92
25.91,-12.57,-13.52,-12.57,-13.53,6.00,6.20,6.14,-6.57,-6.57,0.95
26.16,-12.40,-13.39,-12.40,-13.39,6.00,6.22,6.28,-6.40,-6.40,0.99
26.43,-12.23,-13.25,-12.23,-13.25,6.00,6.24,6.43,-6.23,-6.23,1.02
26.69,-12.05,-13.11,-12.05,-13.11,6.00,6.25,6.57,-6.05,-6.05,1.06
26.96,-11.88,-12.98,-11.88,-12.98,6.00,6.27,6.72,-5.88,-5.88,1.10
27.23,-11.70,-12.83,-11.70,-12.83,6.00,6.28,6.86,-5.70,-5.70,1.13
27.50,-11.53,-12.70,-11.53,-12.69,6.00,6.29,6.99,-5.53,-5.53,1.17
27.77,-11.35,-12.55,-11.35,-12.55,6.00,6.30,7.12,-5.35,-5.35,1.20
28.05,-11.18,-12.42,-11.18,-12.41,6.00,6.30,7.25,-5.18,-5.18,1.24
28.33,-11.01,-12.26,-11.00,-12.27,6.00,6.31,7.37,-5.01,-5.00,1.26
28.62,-10.83,-12.13,-10.83,-12.13,6.00,6.31,7.48,-4.83,-4.83,1.30
28.90,-10.66,-11.99,-10.66,-11.99,6.00,6.30,7.58,-4.66,-4.66,1.34
29.19,-10.49,-11.85,-10.48,-11.85,6.00,6.30,7.67,-4.49,-4.48,1.36
29.48,-10.31,-11.72,-10.31,-11.72,6.00,6.29,7.76,-4.31,-4.31,1.41
29.78,-10.14,-11.57,-10.14,-11.58,6.00,6.28,7.83,-4.14,-4.14,1.43
30.08,-9.97,-11.44,-9.97,-11.44,6.00,6.27,7.88,-3.97,-3.97,1.47
30.38,-9.80,-11.30,-9.80,-11.31,6.00,6.26,7.93,-3.80,-3.80,1.50
30.68,-9.64,-11.18,-9.64,-11.17,6.00,6.25,7.96,-3.64,-3.64,1.54
30.99,-9.48,-11.04,-9.48,-11.04,6.00,6.23,7.97,-3.48,-3.48,1.56
31.30,-9.31,-10.91,-9.31,-10.91,6.00,6.21,7.97,-3.31,-3.31,1.60
31.61,-9.14,-10.76,-9.14,-10.76,6.00,6.20,7.96,-3.14,-3.14,1.63
31.93,-8.97,-10.63,-8.97,-10.62,6.00,6.18,7.93,-2.97,-2.97,1.65
32.24,-8.80,-10.47,-8.80,-10.48,6.00,6.16,7.89,-2.80,-2.80,1.67
32.57,-8.64,-10.34,-8.64,-10.34,6.00,6.15,7.83,-2.64,-2.64,1.70
32.89,-8.47,-10.21,-8.47,-10.20,6.00,6.13,7.77,-2.47,-2.47,1.74
33.22,-8.31,-10.07,-8.30,-10.06,6.00,6.12,7.68,-2.31,-2.30,1.76
33.55,-8.14,-9.91,-8.14,-9.92,6.00,6.10,7.59,-2.14,-2.14,1.78
33.89,-7.97,-9.76,-7.97,-9.77,6.00,6.09,7.49,-1.97,-1.97,1.80
34.23,-7.81,-9.63,-7.80,-9.62,6.00,6.08,7.38,-1.81,-1.80,1.82
34.57,-7.64,-9.48,-7.64,-9.48,6.00,6.08,7.26,-1.64,-1.64,1.84
34.92,-7.48,-9.33,-7.48,-9.34,6.00,6.07,7.13,-1.48,-1.48,1.85
35.27,-7.32,-9.20,-7.32,-9.19,6.00,6.07,7.00,-1.32,-1.32,1.88
35.62,-7.15,-9.04,-7.15,-9.04,6.00,6.07,6.87,-1.15,-1.15,1.89
35.97,-6.99,-8.88,-6.99,-8.89,6.00,6.07,6.72,-0.99,-0.99,1.89
36.33,-6.83,-8.74,-6.83,-8.73,6.00,6.07,6.58,-0.83,-0.83,1.91
36.70,-6.67,-8.59,-6.67,-8.59,6.00,6.07,6.43,-0.67,-0.67,1.92
37.06,-6.51,-8.43,-6.51,-8.44,6.00,6.07,6.29,-0.51,-0.51,1.93
37.43,-6.35,-8.29,-6.35,-8.29,6.00,6.08,6.14,-0.35,-0.35,1.95
37.81,-6.18,-8.13,-6.18,-8.13,6.00,6.08,5.99,-0.18,-0.18,1.95
38.19,-6.02,-7.98,-6.02,-7.98,6.00,6.08,5.84,-0.02,-0.02,1.96
38.57,-5.85,-7.82,-5.85,-7.81,6.00,6.08,5.69,0.15,0.15,1.97
38.95,-5.69,-7.65,-5.69,-7.65,6.00,6.07,5.54,0.31,0.31,1.96
39.34,-5.53,-7.49,-5.53,-7.49,6.00,6.06,5.40,0.47,0.47,1.96
39.74,-5.37,-7.34,-5.37,-7.33,6.00,6.05,5.26,0.63,0.63,1.97
40.14,-5.21,-7.18,-5.21,-7.17,6.00,6.03,5.12,0.79,0.79,1.96
40.54,-5.05,-7.01,-5.05,-7.01,6.01,6.00,4.98,0.96,0.96,1.96
40.94,-4.88,-6.85,-4.88,-6.85,6.02,5.97,4.84,1.14,1.14,1.97
41.35,-4.72,-6.68,-4.72,-6.69,6.03,5.93,4.71,1.31,1.31,1.96
41.76,-4.56,-6.53,-4.56,-6.53,6.03,5.87,4.58,1.47,1.47,1.97
42.18,-4.40,-6.37,-4.40,-6.37,6.01,5.81,4.45,1.61,1.61,1.98
42.60,-4.24,-6.21,-4.24,-6.21,5.97,5.74,4.32,1.74,1.74,1.97
43.03,-4.08,-6.06,-4.08,-6.05,5.91,5.66,4.20,1.83,1.83,1.98
43.46,-3.92,-5.89,-3.92,-5.89,5.83,5.56,4.08,1.91,1.90,1.97
43.90,-3.77,-5.73,-3.77,-5.73,5.72,5.46,3.97,1.95,1.95,1.96
44.33,-3.61,-5.56,-3.61,-5.57,5.58,5.36,3.85,1.98,1.97,1.95
44.78,-3.46,-5.41,-3.46,-5.40,5.43,5.24,3.74,1.97,1.98,1.95
45.23,-3.30,-5.24,-3.30,-5.24,5.27,5.12,3.64,1.97,1.97,1.94
45.68,-3.14,-5.08,-3.14,-5.08,5.10,5.00,3.53,1.96,1.96,1.94
46.13,-2.99,-4.92,-2.98,-4.92,4.93,4.87,3.43,1.95,1.95,1.93
46.60,-2.83,-4.77,-2.83,-4.77,4.77,4.74,3.33,1.94,1.94,1.94
47.06,-2.68,-4.62,-2.68,-4.62,4.62,4.61,3.23,1.94,1.94,1.94
47.53,-2.53,-4.46,-2.53,-4.47,4.46,4.47,3.14,1.94,1.94,1.94
48.01,-2.38,-4.33,-2.38,-4.32,4.31,4.34,3.05,1.93,1.93,1.95
48.49,-2.23,-4.16,-2.23,-4.16,4.16,4.21,2.96,1.93,1.93,1.93
48.97,-2.08,-4.00,-2.08,-4.01,4.01,4.07,2.88,1.93,1.93,1.93
49.46,-1.94,-3.86,-1.94,-3.85,3.86,3.94,2.79,1.92,1.93,1.92
49.96,-1.79,-3.70,-1.79,-3.71,3.72,3.81,2.71,1.93,1.92,1.91
50.46,-1.65,-3.58,-1.65,-3.57,3.57,3.67,2.63,1.92,1.93,1.93
50.96,-1.50,-3.43,-1.50,-3.43,3.43,3.54,2.55,1.93,1.93,1.94
51.47,-1.36,-3.29,-1.36,-3.30,3.30,3.41,2.48,1.94,1.94,1.93
51.99,-1.22,-3.16,-1.22,-3.16,3.17,3.28,2.41,1.95,1.95,1.94
52.51,-1.09,-3.04,-1.09,-3.04,3.04,3.14,2.33,1.95,1.95,1.95
53.03,-0.96,-2.92,-0.96,-2.92,2.91,3.01,2.26,1.96,1.96,1.96
53.56,-0.83,-2.79,-0.83,-2.79,2.79,2.88,2.20,1.96,1.96,1.96
54.10,-0.70,-2.66,-0.70,-2.67,2.67,2.74,2.13,1.97,1.97,1.96
54.64,-0.58,-2.55,-0.58,-2.55,2.55,2.61,2.06,1.97,1.97,1.97
55.18,-0.46,-2.43,-0.46,-2.43,2.43,2.47,2.00,1.97,1.97,1.97
55.74,-0.34,-2.31,-0.34,-2.31,2.31,2.34,1.94,1.97,1.97,1.97
56.29,-0.22,-2.19,-0.22,-2.19,2.18,2.20,1.88,1.97,1.97,1.97
56.86,-0.10,-2.07,-0.10,-2.06,2.06,2.06,1.81,1.97,1.97,1.97
57.42,0.02,-1.93,0.02,-1.94,1.95,1.93,1.75,1.97,1.96,1.96
58.00,0.13,-1.82,0.14,-1.82,1.83,1.79,1.70,1.96,1.96,1.95
58.58,0.25,-1.70,0.25,-1.70,1.71,1.66,1.64,1.96,1.96,1.95
59.16,0.36,-1.59,0.36,-1.59,1.58,1.52,1.58,1.95,1.95,1.95
59.76,0.47,-1.47,0.47,-1.47,1.46,1.39,1.52,1.93,1.93,1.94
60.35,0.57,-1.36,0.58,-1.36,1.34,1.27,1.47,1.92,1.92,1.93
60.96,0.68,-1.24,0.68,-1.23,1.22,1.14,1.41,1.91,1.91,1.92
61.57,0.79,-1.10,0.79,-1.10,1.11,1.03,1.35,1.90,1.90,1.89
62.18,0.89,-0.97,0.89,-0.98,0.99,0.92,1.30,1.88,1.88,1.87
62.80,0.98,-0.88,0.98,-0.87,0.88,0.81,1.24,1.86,1.86,1.86
63.43,1.07,-0.76,1.07,-0.77,0.77,0.72,1.19,1.84,1.84,1.83
64.07,1.16,-0.67,1.16,-0.66,0.66,0.63,1.13,1.82,1.82,1.83
64.71,1.25,-0.57,1.25,-0.57,0.56,0.54,1.08,1.81,1.81,1.82
65.35,1.34,-0.47,1.34,-0.47,0.47,0.47,1.02,1.81,1.81,1.81
66.01,1.42,-0.38,1.43,-0.38,0.38,0.40,0.97,1.80,1.80,1.80
66.67,1.51,-0.28,1.51,-0.29,0.29,0.33,0.91,1.80,1.80,1.79
67.33,1.59,-0.20,1.59,-0.21,0.21,0.26,0.86,1.80,1.80,1.79
68.01,1.66,-0.13,1.66,-0.13,0.14,0.20,0.80,1.80,1.80,1.79
68.69,1.72,-0.07,1.73,-0.07,0.07,0.14,0.75,1.79,1.79,1.79
69.37,1.79,0.00,1.79,0.00,-0.00,0.08,0.69,1.79,1.79,1.79
70.07,1.86,0.07,1.86,0.06,-0.07,0.02,0.64,1.79,1.79,1.79
70.77,1.92,0.12,1.92,0.13,-0.13,-0.04,0.58,1.79,1.79,1.80
71.48,1.98,0.19,1.99,0.19,-0.20,-0.10,0.52,1.79,1.79,1.79
72.19,2.05,0.26,2.05,0.26,-0.26,-0.16,0.47,1.80,1.79,1.79
72.91,2.10,0.32,2.11,0.32,-0.32,-0.22,0.41,1.78,1.79,1.79
73.64,2.16,0.39,2.16,0.38,-0.38,-0.29,0.35,1.78,1.78,1.77
74.38,2.21,0.44,2.21,0.44,-0.44,-0.35,0.30,1.77,1.77,1.78
75.12,2.26,0.49,2.27,0.49,-0.50,-0.41,0.24,1.76,1.77,1.77
75.87,2.32,0.55,2.32,0.55,-0.55,-0.47,0.18,1.77,1.76,1.77
76.63,2.37,0.61,2.37,0.61,-0.61,-0.54,0.12,1.76,1.76,1.77
77.40,2.43,0.66,2.43,0.67,-0.66,-0.60,0.06,1.77,1.77,1.77
78.17,2.48,0.72,2.49,0.72,-0.71,-0.66,0.01,1.77,1.78,1.76
78.95,2.54,0.77,2.54,0.76,-0.76,-0.72,-0.05,1.79,1.78,1.77
79.74,2.58,0.80,2.58,0.80,-0.80,-0.79,-0.11,1.78,1.78,1.78
80.54,2.62,0.83,2.63,0.84,-0.84,-0.85,-0.17,1.78,1.79,1.79
81.35,2.67,0.87,2.68,0.87,-0.88,-0.91,-0.24,1.79,1.80,1.80
82.16,2.73,0.92,2.73,0.91,-0.92,-0.97,-0.30,1.82,1.81,1.81
82.98,2.78,0.94,2.78,0.95,-0.95,-1.03,-0.36,1.83,1.83,1.84
83.81,2.82,0.98,2.83,0.98,-0.98,-1.09,-0.42,1.84,1.85,1.85
84.65,2.88,1.03,2.88,1.02,-1.01,-1.15,-0.48,1.87,1.87,1.85
85.50,2.93,1.04,2.93,1.05,-1.04,-1.21,-0.55,1.89,1.89,1.89
86.35,2.98,1.08,2.98,1.08,-1.07,-1.26,-0.61,1.91,1.91,1.91
87.22,3.02,1.10,3.02,1.10,-1.10,-1.32,-0.68,1.92,1.92,1.92
88.09,3.05,1.13,3.06,1.12,-1.12,-1.37,-0.74,1.93,1.93,1.93
88.97,3.09,1.14,3.09,1.14,-1.15,-1.43,-0.81,1.95,1.94,1.95
89.86,3.12,1.17,3.12,1.17,-1.17,-1.48,-0.88,1.95,1.95,1.96
90.76,3.15,1.20,3.16,1.20,-1.20,-1.53,-0.95,1.95,1.96,1.95
91.66,3.19,1.23,3.19,1.23,-1.23,-1.58,-1.01,1.96,1.95,1.96
92.58,3.22,1.28,3.22,1.27,-1.27,-1.63,-1.08,1.95,1.95,1.95
93.51,3.25,1.30,3.26,1.31,-1.31,-1.68,-1.15,1.94,1.94,1.95
94.44,3.29,1.35,3.29,1.35,-1.36,-1.73,-1.22,1.93,1.93,1.94
95.39,3.33,1.41,3.33,1.41,-1.41,-1.77,-1.30,1.92,1.91,1.92
96.34,3.36,1.47,3.37,1.47,-1.47,-1.82,-1.37,1.89,1.90,1.89
97.30,3.40,1.54,3.40,1.53,-1.53,-1.86,-1.44,1.87,1.87,1.87
98.28,3.43,1.59,3.43,1.59,-1.59,-1.90,-1.51,1.84,1.84,1.84
99.26,3.46,1.65,3.46,1.66,-1.65,-1.94,-1.59,1.81,1.81,1.81
100.25,3.48,1.71,3.49,1.71,-1.72,-1.98,-1.66,1.77,1.77,1.77
101.25,3.51,1.78,3.51,1.78,-1.78,-2.02,-1.73,1.73,1.73,1.73
102.27,3.53,1.83,3.53,1.84,-1.84,-2.06,-1.80,1.69,1.69,1.70
103.29,3.55,1.90,3.55,1.90,-1.90,-2.10,-1.88,1.66,1.66,1.65
104.32,3.57,1.95,3.57,1.95,-1.95,-2.13,-1.95,1.62,1.62,1.62
105.37,3.59,2.01,3.59,2.00,-2.00,-2.16,-2.02,1.59,1.59,1.58
106.42,3.60,2.05,3.60,2.05,-2.04,-2.20,-2.09,1.56,1.56,1.55
107.48,3.60,2.09,3.60,2.09,-2.08,-2.23,-2.16,1.52,1.52,1.51
108.56,3.60,2.13,3.60,2.12,-2.12,-2.26,-2.23,1.48,1.48,1.47
109.64,3.59,2.16,3.59,2.15,-2.15,-2.28,-2.29,1.44,1.44,1.44
110.74,3.58,2.18,3.59,2.18,-2.18,-2.31,-2.36,1.40,1.40,1.41
111.85,3.58,2.19,3.58,2.20,-2.21,-2.34,-2.42,1.37,1.37,1.39
112.97,3.58,2.24,3.58,2.23,-2.24,-2.36,-2.48,1.34,1.34,1.34
114.10,3.58,2.26,3.58,2.26,-2.26,-2.38,-2.54,1.32,1.32,1.32
115.24,3.58,2.29,3.58,2.29,-2.29,-2.41,-2.59,1.30,1.30,1.29
116.39,3.58,2.31,3.58,2.31,-2.31,-2.43,-2.64,1.27,1.27,1.27
117.55,3.58,2.34,3.58,2.33,-2.33,-2.45,-2.68,1.25,1.25,1.25
118.73,3.58,2.35,3.58,2.35,-2.35,-2.46,-2.73,1.23,1.23,1.23
119.92,3.58,2.36,3.58,2.36,-2.36,-2.48,-2.76,1.22,1.22,1.22
121.12,3.58,2.38,3.58,2.38,-2.38,-2.50,-2.80,1.21,1.21,1.21
122.33,3.58,2.39,3.58,2.39,-2.39,-2.51,-2.82,1.19,1.19,1.19
123.55,3.58,2.40,3.58,2.40,-2.40,-2.53,-2.85,1.18,1.18,1.18
124.79,3.58,2.41,3.58,2.41,-2.42,-2.54,-2.87,1.16,1.16,1.17
126.03,3.58,2.43,3.58,2.42,-2.43,-2.55,-2.88,1.15,1.15,1.15
127.29,3.58,2.43,3.59,2.44,-2.45,-2.56,-2.89,1.13,1.13,1.15
128.57,3.59,2.47,3.59,2.46,-2.47,-2.57,-2.90,1.12,1.12,1.12
129.85,3.60,2.49,3.60,2.49,-2.48,-2.58,-2.90,1.12,1.11,1.11
131.15,3.60,2.50,3.60,2.51,-2.50,-2.59,-2.90,1.10,1.11,1.10
132.46,3.60,2.52,3.60,2.52,-2.51,-2.59,-2.89,1.09,1.09,1.08
133.79,3.60,2.52,3.60,2.52,-2.52,-2.60,-2.88,1.08,1.08,1.08
135.12,3.58,2.53,3.58,2.52,-2.52,-2.60,-2.86,1.06,1.06,1.05
136.48,3.57,2.52,3.56,2.52,-2.52,-2.60,-2.84,1.05,1.05,1.05
137.84,3.53,2.50,3.54,2.51,-2.51,-2.61,-2.82,1.02,1.03,1.03
139.22,3.51,2.51,3.51,2.50,-2.50,-2.61,-2.80,1.01,1.01,1.00
140.61,3.48,2.50,3.48,2.49,-2.49,-2.61,-2.77,0.99,0.99,0.98
142.02,3.44,2.47,3.45,2.48,-2.48,-2.61,-2.74,0.96,0.96,0.97
143.44,3.42,2.47,3.42,2.47,-2.47,-2.60,-2.71,0.95,0.94,0.96
144.87,3.38,2.45,3.39,2.46,-2.46,-2.60,-2.68,0.92,0.93,0.93
146.32,3.37,2.47,3.37,2.46,-2.46,-2.60,-2.65,0.91,0.91,0.90
147.78,3.34,2.45,3.34,2.45,-2.45,-2.59,-2.61,0.89,0.89,0.89
149.26,3.31,2.44,3.31,2.45,-2.45,-2.59,-2.58,0.87,0.87,0.87
150.75,3.28,2.46,3.28,2.44,-2.44,-2.58,-2.54,0.84,0.84,0.82
152.26,3.24,2.44,3.24,2.44,-2.44,-2.57,-2.51,0.80,0.80,0.80
153.78,3.21,2.44,3.21,2.44,-2.44,-2.57,-2.48,0.77,0.77,0.78
155.32,3.18,2.44,3.18,2.43,-2.44,-2.56,-2.44,0.74,0.74,0.74
156.88,3.15,2.43,3.16,2.44,-2.45,-2.55,-2.41,0.71,0.71,0.72
158.44,3.14,2.45,3.13,2.45,-2.45,-2.54,-2.38,0.69,0.68,0.69
160.03,3.10,2.45,3.11,2.46,-2.45,-2.53,-2.35,0.65,0.65,0.65
161.63,3.08,2.47,3.08,2.47,-2.46,-2.52,-2.32,0.62,0.62,0.62
163.24,3.06,2.48,3.05,2.47,-2.46,-2.51,-2.29,0.60,0.59,0.59
164.88,3.02,2.46,3.03,2.47,-2.46,-2.49,-2.26,0.56,0.57,0.57
166.53,3.00,2.46,3.00,2.47,-2.46,-2.48,-2.23,0.54,0.54,0.54
168.19,2.97,2.47,2.97,2.46,-2.46,-2.47,-2.21,0.51,0.51,0.50
169.87,2.93,2.45,2.94,2.46,-2.46,-2.45,-2.19,0.47,0.48,0.48
171.57,2.90,2.45,2.90,2.45,-2.45,-2.44,-2.17,0.45,0.45,0.45
173.29,2.87,2.45,2.87,2.44,-2.45,-2.42,-2.15,0.42,0.42,0.43
175.02,2.84,2.43,2.84,2.44,-2.45,-2.41,-2.13,0.40,0.40,0.41
176.77,2.81,2.44,2.82,2.44,-2.44,-2.39,-2.11,0.37,0.37,0.37
178.54,2.79,2.44,2.79,2.44,-2.43,-2.37,-2.10,0.36,0.36,0.35
180.32,2.77,2.44,2.77,2.43,-2.43,-2.35,-2.09,0.34,0.34,0.33
182.13,2.74,2.41,2.74,2.42,-2.42,-2.34,-2.08,0.32,0.32,0.33
183.95,2.71,2.41,2.71,2.41,-2.41,-2.32,-2.07,0.30,0.30,0.30
185.79,2.68,2.39,2.69,2.40,-2.39,-2.30,-2.06,0.29,0.29,0.29
187.65,2.66,2.39,2.66,2.38,-2.38,-2.28,-2.05,0.28,0.28,0.28
189.52,2.63,2.37,2.63,2.37,-2.36,-2.26,-2.05,0.27,0.27,0.26
191.42,2.59,2.34,2.59,2.34,-2.35,-2.24,-2.05,0.24,0.25,0.25
193.33,2.56,2.32,2.56,2.32,-2.33,-2.22,-2.04,0.23,0.23,0.24
195.27,2.53,2.31,2.53,2.31,-2.32,-2.19,-2.04,0.22,0.22,0.23
197.22,2.51,2.30,2.51,2.30,-2.30,-2.17,-2.05,0.21,0.21,0.22
199.19,2.48,2.30,2.48,2.29,-2.29,-2.15,-2.05,0.19,0.20,0.18
201.18,2.46,2.28,2.46,2.28,-2.27,-2.13,-2.05,0.19,0.18,0.18
203.19,2.43,2.26,2.43,2.26,-2.26,-2.11,-2.06,0.17,0.17,0.17
205.23,2.40,2.25,2.41,2.24,-2.25,-2.08,-2.06,0.16,0.16,0.15
207.28,2.38,2.23,2.38,2.23,-2.23,-2.06,-2.07,0.15,0.15,0.15
209.35,2.35,2.22,2.35,2.22,-2.21,-2.03,-2.07,0.14,0.14,0.13
211.44,2.32,2.21,2.32,2.20,-2.19,-2.01,-2.08,0.13,0.13,0.12
213.56,2.29,2.17,2.29,2.17,-2.17,-1.99,-2.09,0.12,0.12,0.12
215.69,2.25,2.13,2.25,2.14,-2.15,-1.96,-2.09,0.10,0.10,0.12
217.85,2.22,2.11,2.22,2.12,-2.13,-1.94,-2.10,0.09,0.10,0.11
220.03,2.20,2.11,2.20,2.10,-2.10,-1.91,-2.10,0.10,0.10,0.09
222.23,2.18,2.10,2.18,2.09,-2.08,-1.89,-2.11,0.10,0.10,0.09
224.45,2.16,2.06,2.15,2.06,-2.05,-1.86,-2.11,0.11,0.10,0.10
226.70,2.12,2.03,2.12,2.03,-2.03,-1.83,-2.11,0.10,0.10,0.09
228.96,2.08,2.00,2.09,2.00,-2.00,-1.81,-2.11,0.08,0.09,0.09
231.25,2.06,1.97,2.06,1.97,-1.97,-1.78,-2.11,0.09,0.08,0.09
233.57,2.03,1.95,2.03,1.95,-1.95,-1.75,-2.11,0.08,0.08,0.08
235.90,1.99,1.91,2.00,1.92,-1.93,-1.73,-2.10,0.07,0.07,0.08
238.26,1.97,1.91,1.97,1.90,-1.91,-1.70,-2.10,0.06,0.06,0.06
240.64,1.95,1.89,1.95,1.89,-1.90,-1.67,-2.09,0.05,0.05,0.07
243.05,1.94,1.88,1.94,1.88,-1.90,-1.64,-2.08,0.04,0.05,0.06
245.48,1.94,1.88,1.95,1.89,-1.90,-1.62,-2.06,0.04,0.05,0.06
247.93,1.96,1.90,1.96,1.90,-1.90,-1.59,-2.04,0.06,0.06,0.06
250.41,1.97,1.92,1.97,1.91,-1.90,-1.56,-2.02,0.08,0.07,0.06
252.92,1.98,1.91,1.98,1.91,-1.89,-1.53,-2.00,0.09,0.09,0.07
255.45,1.97,1.89,1.97,1.89,-1.88,-1.50,-1.97,0.09,0.09,0.09
258.00,1.96,1.87,1.96,1.87,-1.86,-1.48,-1.94,0.10,0.10,0.09
260.58,1.94,1.84,1.94,1.84,-1.83,-1.45,-1.91,0.11,0.11,0.10
263.19,1.92,1.80,1.92,1.80,-1.80,-1.42,-1.88,0.12,0.12,0.12
265.82,1.88,1.75,1.89,1.76,-1.76,-1.39,-1.84,0.13,0.13,0.13
268.48,1.86,1.72,1.86,1.71,-1.71,-1.36,-1.80,0.15,0.14,0.15
271.16,1.83,1.67,1.82,1.66,-1.67,-1.33,-1.76,0.16,0.15,0.16
273.87,1.78,1.60,1.79,1.61,-1.62,-1.30,-1.71,0.16,0.17,0.18
276.61,1.76,1.57,1.76,1.57,-1.58,-1.27,-1.67,0.18,0.18,0.20
279.38,1.74,1.54,1.74,1.54,-1.54,-1.24,-1.62,0.21,0.20,0.20
282.17,1.72,1.51,1.72,1.50,-1.49,-1.21,-1.57,0.23,0.23,0.21
284.99,1.69,1.45,1.69,1.46,-1.45,-1.18,-1.52,0.24,0.24,0.24
287.84,1.65,1.41,1.65,1.41,-1.41,-1.15,-1.46,0.24,0.25,0.24
290.72,1.62,1.36,1.62,1.36,-1.37,-1.11,-1.41,0.25,0.25,0.26
293.63,1.59,1.31,1.59,1.31,-1.33,-1.08,-1.35,0.27,0.27,0.28
296.57,1.57,1.26,1.57,1.27,-1.28,-1.05,-1.30,0.29,0.29,0.31
299.53,1.55,1.24,1.55,1.23,-1.23,-1.02,-1.24,0.32,0.32,0.31
302.53,1.52,1.19,1.52,1.18,-1.17,-0.99,-1.18,0.35,0.36,0.33
305.55,1.49,1.12,1.49,1.13,-1.11,-0.96,-1.12,0.39,0.38,0.37
308.61,1.44,1.05,1.44,1.05,-1.04,-0.92,-1.06,0.40,0.40,0.39
311.69,1.38,0.97,1.39,0.97,-0.96,-0.89,-1.01,0.42,0.42,0.42
314.81,1.33,0.88,1.33,0.88,-0.89,-0.86,-0.95,0.45,0.44,0.45
317.96,1.27,0.80,1.27,0.80,-0.81,-0.82,-0.89,0.47,0.46,0.47
321.14,1.21,0.71,1.21,0.72,-0.73,-0.79,-0.83,0.48,0.49,0.50
324.35,1.16,0.64,1.16,0.64,-0.65,-0.76,-0.77,0.51,0.51,0.52
327.59,1.12,0.57,1.12,0.57,-0.58,-0.72,-0.71,0.54,0.54,0.55
330.87,1.08,0.51,1.08,0.51,-0.51,-0.69,-0.65,0.57,0.57,0.57
334.18,1.05,0.46,1.05,0.45,-0.45,-0.65,-0.59,0.60,0.60,0.59
337.52,1.01,0.39,1.02,0.39,-0.39,-0.62,-0.53,0.62,0.63,0.62
340.90,0.99,0.34,0.99,0.34,-0.33,-0.58,-0.47,0.66,0.66,0.65
344.30,0.95,0.27,0.95,0.27,-0.27,-0.55,-0.41,0.68,0.68,0.68
347.75,0.91,0.21,0.91,0.21,-0.21,-0.51,-0.35,0.70,0.70,0.70
351.23,0.87,0.15,0.88,0.15,-0.16,-0.48,-0.30,0.71,0.72,0.73
354.74,0.85,0.10,0.85,0.10,-0.10,-0.44,-0.24,0.75,0.75,0.76
358.28,0.82,0.05,0.82,0.04,-0.05,-0.40,-0.18,0.77,0.77,0.77
361.87,0.80,-0.00,0.80,-0.00,0.00,-0.36,-0.12,0.80,0.80,0.80
365.49,0.77,-0.05,0.78,-0.05,0.05,-0.33,-0.06,0.82,0.83,0.82
369.14,0.75,-0.09,0.75,-0.09,0.10,-0.29,-0.01,0.85,0.85,0.84
372.83,0.72,-0.14,0.72,-0.14,0.15,-0.25,0.05,0.87,0.87,0.86
376.56,0.68,-0.20,0.69,-0.19,0.19,-0.21,0.11,0.87,0.88,0.88
380.33,0.66,-0.25,0.66,-0.24,0.24,-0.17,0.16,0.90,0.90,0.91
384.13,0.63,-0.29,0.63,-0.29,0.28,-0.13,0.22,0.91,0.91,0.92
387.97,0.60,-0.32,0.60,-0.33,0.32,-0.09,0.28,0.93,0.93,0.93
391.85,0.57,-0.36,0.57,-0.36,0.37,-0.05,0.33,0.94,0.94,0.94
395.77,0.55,-0.40,0.55,-0.40,0.41,-0.00,0.39,0.96,0.96,0.95
399.73,0.52,-0.44,0.52,-0.44,0.45,0.04,0.44,0.97,0.97,0.96
403.72,0.49,-0.48,0.49,-0.49,0.49,0.08,0.50,0.98,0.98,0.97
407.76,0.45,-0.53,0.46,-0.53,0.52,0.12,0.55,0.97,0.98,0.98
411.84,0.43,-0.57,0.43,-0.56,0.56,0.17,0.61,0.99,0.99,1.00
415.96,0.41,-0.59,0.41,-0.60,0.59,0.21,0.66,1.00,0.99,1.00
420.12,0.38,-0.62,0.39,-0.62,0.61,0.26,0.71,1.00,1.00,1.00
424.32,0.36,-0.64,0.37,-0.63,0.64,0.30,0.76,1.00,1.00,1.00
428.56,0.35,-0.65,0.34,-0.66,0.66,0.35,0.81,1.01,1.00,1.00
432.85,0.32,-0.68,0.32,-0.68,0.68,0.40,0.86,1.00,1.00,1.00
437.18,0.29,-0.71,0.30,-0.70,0.70,0.44,0.91,0.99,1.00,1.00
441.55,0.28,-0.72,0.28,-0.72,0.72,0.49,0.95,1.00,1.00,1.00
445.96,0.26,-0.74,0.26,-0.74,0.74,0.54,1.00,1.00,1.00,1.00
450.42,0.23,-0.76,0.23,-0.76,0.77,0.59,1.04,1.00,1.00,0.99
454.93,0.20,-0.79,0.20,-0.79,0.80,0.64,1.08,1.00,1.00,0.99
459.48,0.16,-0.82,0.17,-0.82,0.83,0.68,1.12,0.99,0.99,0.99
464.07,0.13,-0.85,0.13,-0.86,0.86,0.73,1.16,0.99,0.99,0.99
468.71,0.10,-0.89,0.10,-0.89,0.89,0.78,1.19,0.99,0.98,1.00
473.40,0.06,-0.92,0.07,-0.92,0.92,0.83,1.23,0.98,0.98,0.99
478.13,0.04,-0.95,0.04,-0.95,0.94,0.88,1.26,0.99,0.99,0.99
482.91,0.02,-0.96,0.02,-0.97,0.97,0.93,1.28,0.99,0.99,0.98
487.74,0.01,-0.98,0.01,-0.99,0.98,0.98,1.31,1.00,0.99,0.99
492.62,-0.01,-1.01,-0.00,-1.00,1.00,1.03,1.33,0.99,0.99,1.00
497.55,-0.01,-1.01,-0.00,-1.01,1.01,1.08,1.35,1.00,1.00,1.00
502.52,0.00,-1.01,-0.00,-1.01,1.01,1.13,1.37,1.01,1.01,1.01
507.55,0.01,-1.00,0.01,-1.01,1.01,1.17,1.38,1.02,1.02,1.01
512.62,0.01,-1.01,0.01,-1.01,1.01,1.22,1.39,1.02,1.02,1.02
