frequency,raw,error,smoothed,error_smoothed,equalization,parametric_eq,fixed_band_eq,equalized_raw,equalized_smoothed,target
20.00,-7.22,-6.90,-7.21,-6.89,5.94,6.51,1.18,-1.28,-1.27,-0.32
20.20,-7.12,-6.84,-7.12,-6.84,5.98,6.42,1.22,-1.14,-1.14,-0.28
20.40,-7.03,-6.79,-7.03,-6.79,6.01,6.33,1.25,-1.01,-1.02,-0.24
20.61,-6.93,-6.71,-6.93,-6.72,6.03,6.24,1.29,-0.90,-0.90,-0.22
20.81,-6.84,-6.66,-6.84,-6.66,6.04,6.14,1.33,-0.79,-0.79,-0.18
21.02,-6.74,-6.60,-6.73,-6.58,6.05,6.05,1.38,-0.69,-0.68,-0.14
21.23,-6.61,-6.48,-6.61,-6.49,6.04,5.96,1.42,-0.57,-0.58,-0.13
21.44,-6.49,-6.38,-6.49,-6.37,6.02,5.86,1.47,-0.47,-0.47,-0.11
21.66,-6.36,-6.26,-6.36,-6.25,6.01,5.77,1.51,-0.35,-0.35,-0.10
21.87,-6.23,-6.12,-6.23,-6.13,5.99,5.67,1.56,-0.24,-0.25,-0.10
22.09,-6.11,-6.01,-6.11,-6.02,5.94,5.58,1.61,-0.16,-0.17,-0.09
22.31,-6.01,-5.91,-6.00,-5.91,5.88,5.48,1.66,-0.13,-0.13,-0.09
22.54,-5.90,-5.81,-5.90,-5.80,5.78,5.39,1.71,-0.12,-0.12,-0.09
22.76,-5.79,-5.68,-5.79,-5.69,5.67,5.29,1.76,-0.12,-0.12,-0.10
22.99,-5.68,-5.56,-5.67,-5.56,5.53,5.20,1.82,-0.15,-0.13,-0.11
23.22,-5.53,-5.41,-5.53,-5.41,5.39,5.10,1.87,-0.14,-0.13,-0.12
23.45,-5.37,-5.24,-5.36,-5.24,5.26,5.00,1.93,-0.11,-0.11,-0.13
23.69,-5.21,-5.08,-5.20,-5.08,5.14,4.91,1.99,-0.07,-0.06,-0.13
23.92,-5.05,-4.92,-5.07,-4.95,5.04,4.81,2.04,-0.01,-0.04,-0.13
24.16,-4.98,-4.86,-4.99,-4.87,4.94,4.71,2.10,-0.04,-0.05,-0.12
24.40,-4.96,-4.84,-4.95,-4.83,4.85,4.61,2.16,-0.11,-0.11,-0.12
24.65,-4.93,-4.80,-4.93,-4.81,4.75,4.51,2.23,-0.18,-0.19,-0.13
24.89,-4.90,-4.77,-4.88,-4.75,4.64,4.42,2.29,-0.25,-0.24,-0.13
25.14,-4.79,-4.66,-4.77,-4.64,4.54,4.32,2.35,-0.25,-0.23,-0.13
25.39,-4.61,-4.47,-4.61,-4.47,4.44,4.22,2.41,-0.16,-0.17,-0.13
25.65,-4.43,-4.29,-4.42,-4.28,4.34,4.12,2.47,-0.09,-0.08,-0.14
25.91,-4.25,-4.10,-4.28,-4.13,4.24,4.02,2.53,-0.01,-0.04,-0.15
26.16,-4.17,-4.02,-4.18,-4.03,4.13,3.92,2.59,-0.03,-0.05,-0.15
26.43,-4.15,-4.00,-4.14,-3.99,4.03,3.82,2.65,-0.12,-0.12,-0.15
26.69,-4.12,-3.96,-4.12,-3.97,3.92,3.71,2.71,-0.20,-0.20,-0.15
26.96,-4.10,-3.93,-4.07,-3.91,3.82,3.61,2.76,-0.28,-0.25,-0.16
27.23,-3.96,-3.79,-3.96,-3.79,3.71,3.51,2.82,-0.25,-0.25,-0.17
27.50,-3.79,-3.62,-3.80,-3.63,3.59,3.41,2.87,-0.20,-0.22,-0.17
27.77,-3.63,-3.45,-3.63,-3.45,3.45,3.31,2.91,-0.17,-0.17,-0.18
28.05,-3.46,-3.28,-3.47,-3.28,3.31,3.21,2.96,-0.15,-0.16,-0.18
28.33,-3.32,-3.13,-3.31,-3.12,3.16,3.10,3.00,-0.15,-0.15,-0.19
28.62,-3.17,-2.98,-3.16,-2.97,3.03,3.00,3.04,-0.14,-0.14,-0.19
28.90,-3.03,-2.84,-3.04,-2.85,2.90,2.90,3.07,-0.13,-0.14,-0.19
29.19,-2.94,-2.75,-2.95,-2.76,2.79,2.79,3.09,-0.15,-0.16,-0.19
29.48,-2.88,-2.69,-2.88,-2.69,2.68,2.69,3.11,-0.20,-0.20,-0.18
29.78,-2.82,-2.62,-2.81,-2.62,2.58,2.59,3.13,-0.24,-0.24,-0.19
30.08,-2.74,-2.55,-2.72,-2.53,2.47,2.48,3.14,-0.27,-0.25,-0.19
30.38,-2.60,-2.39,-2.60,-2.40,2.37,2.38,3.14,-0.23,-0.23,-0.21
30.68,-2.46,-2.25,-2.47,-2.26,2.26,2.28,3.13,-0.20,-0.20,-0.21
30.99,-2.33,-2.11,-2.34,-2.12,2.15,2.17,3.12,-0.18,-0.19,-0.22
31.30,-2.23,-2.01,-2.23,-2.01,2.03,2.07,3.10,-0.20,-0.20,-0.22
31.61,-2.13,-1.91,-2.13,-1.90,1.90,1.96,3.08,-0.22,-0.22,-0.22
31.93,-2.03,-1.79,-2.03,-1.79,1.79,1.86,3.05,-0.24,-0.24,-0.24
32.24,-1.94,-1.68,-1.93,-1.68,1.69,1.76,3.01,-0.25,-0.24,-0.26
32.57,-1.84,-1.58,-1.84,-1.57,1.59,1.65,2.96,-0.25,-0.24,-0.26
32.89,-1.74,-1.47,-1.75,-1.48,1.49,1.55,2.91,-0.24,-0.25,-0.27
33.22,-1.67,-1.38,-1.68,-1.39,1.39,1.44,2.85,-0.28,-0.28,-0.29
33.55,-1.61,-1.32,-1.61,-1.31,1.29,1.34,2.79,-0.32,-0.32,-0.29
33.89,-1.55,-1.23,-1.53,-1.22,1.18,1.23,2.71,-0.37,-0.35,-0.31
34.23,-1.43,-1.11,-1.42,-1.09,1.08,1.13,2.64,-0.35,-0.34,-0.32
34.57,-1.28,-0.94,-1.28,-0.95,0.97,1.03,2.56,-0.31,-0.31,-0.34
34.92,-1.13,-0.78,-1.15,-0.81,0.84,0.92,2.47,-0.29,-0.31,-0.35
35.27,-1.05,-0.70,-1.06,-0.70,0.71,0.82,2.38,-0.34,-0.36,-0.35
35.62,-0.99,-0.61,-0.99,-0.62,0.57,0.72,2.29,-0.42,-0.42,-0.37
35.97,-0.93,-0.54,-0.89,-0.51,0.44,0.61,2.19,-0.48,-0.44,-0.39
36.33,-0.75,-0.36,-0.73,-0.33,0.33,0.51,2.09,-0.41,-0.39,-0.39
36.70,-0.55,-0.15,-0.56,-0.16,0.23,0.41,1.98,-0.32,-0.33,-0.40
37.06,-0.39,0.03,-0.45,-0.04,0.14,0.31,1.88,-0.25,-0.31,-0.41
37.43,-0.42,-0.01,-0.42,-0.00,0.05,0.21,1.77,-0.37,-0.37,-0.41
37.81,-0.45,-0.03,-0.41,0.01,-0.04,0.11,1.66,-0.49,-0.46,-0.42
38.19,-0.40,0.03,-0.38,0.05,-0.13,0.01,1.55,-0.53,-0.51,-0.43
38.57,-0.27,0.16,-0.28,0.15,-0.22,-0.09,1.44,-0.48,-0.49,-0.43
38.95,-0.14,0.30,-0.15,0.28,-0.29,-0.19,1.33,-0.43,-0.45,-0.44
39.34,-0.04,0.40,-0.03,0.41,-0.38,-0.28,1.21,-0.42,-0.41,-0.44
39.74,0.06,0.52,0.06,0.51,-0.48,-0.38,1.10,-0.42,-0.42,-0.46
40.14,0.15,0.61,0.14,0.60,-0.59,-0.48,0.98,-0.44,-0.45,-0.46
40.54,0.22,0.68,0.22,0.69,-0.70,-0.57,0.87,-0.48,-0.48,-0.46
40.94,0.30,0.77,0.31,0.78,-0.80,-0.66,0.75,-0.50,-0.49,-0.47
41.35,0.40,0.88,0.41,0.89,-0.88,-0.76,0.63,-0.48,-0.48,-0.48
41.76,0.51,1.01,0.50,0.99,-0.97,-0.85,0.52,-0.46,-0.46,-0.49
42.18,0.59,1.09,0.58,1.08,-1.06,-0.94,0.40,-0.46,-0.47,-0.50
42.60,0.64,1.15,0.64,1.15,-1.15,-1.03,0.28,-0.51,-0.51,-0.51
43.03,0.68,1.20,0.69,1.21,-1.24,-1.11,0.17,-0.56,-0.56,-0.52
43.46,0.74,1.28,0.74,1.28,-1.33,-1.20,0.05,-0.59,-0.59,-0.54
43.90,0.81,1.38,0.83,1.39,-1.41,-1.28,-0.07,-0.60,-0.59,-0.57
44.33,0.92,1.50,0.94,1.53,-1.49,-1.37,-0.18,-0.57,-0.55,-0.58
44.78,1.06,1.67,1.03,1.63,-1.56,-1.45,-0.30,-0.50,-0.54,-0.61
45.23,1.10,1.72,1.07,1.69,-1.64,-1.53,-0.42,-0.54,-0.58,-0.62
45.68,1.06,1.70,1.08,1.72,-1.73,-1.61,-0.53,-0.67,-0.65,-0.64
46.13,1.06,1.72,1.10,1.75,-1.81,-1.68,-0.65,-0.75,-0.71,-0.65
46.60,1.18,1.84,1.17,1.83,-1.90,-1.76,-0.77,-0.72,-0.73,-0.66
47.06,1.29,1.96,1.28,1.95,-1.98,-1.83,-0.88,-0.69,-0.70,-0.67
47.53,1.39,2.06,1.39,2.06,-2.05,-1.90,-1.00,-0.66,-0.66,-0.67
48.01,1.48,2.16,1.47,2.15,-2.12,-1.97,-1.12,-0.64,-0.65,-0.68
48.49,1.53,2.23,1.53,2.23,-2.19,-2.04,-1.23,-0.66,-0.65,-0.70
48.97,1.58,2.29,1.60,2.31,-2.25,-2.10,-1.35,-0.67,-0.66,-0.71
49.46,1.63,2.35,1.64,2.36,-2.32,-2.17,-1.47,-0.69,-0.68,-0.72
49.96,1.68,2.42,1.63,2.36,-2.38,-2.23,-1.58,-0.70,-0.75,-0.74
50.46,1.62,2.35,1.61,2.35,-2.43,-2.29,-1.70,-0.81,-0.82,-0.73
50.96,1.56,2.30,1.66,2.40,-2.48,-2.35,-1.81,-0.92,-0.81,-0.73
51.47,1.75,2.49,1.76,2.50,-2.53,-2.40,-1.93,-0.77,-0.77,-0.74
51.99,1.96,2.71,1.88,2.62,-2.57,-2.46,-2.04,-0.61,-0.70,-0.75
52.51,1.95,2.70,1.96,2.71,-2.62,-2.51,-2.15,-0.67,-0.66,-0.75
53.03,1.94,2.69,1.94,2.70,-2.66,-2.56,-2.26,-0.72,-0.72,-0.75
53.56,1.91,2.67,1.92,2.68,-2.70,-2.61,-2.37,-0.79,-0.78,-0.76
54.10,1.90,2.67,1.96,2.73,-2.74,-2.65,-2.48,-0.84,-0.78,-0.77
54.64,2.03,2.80,1.99,2.76,-2.77,-2.70,-2.58,-0.74,-0.78,-0.77
55.18,2.07,2.85,1.98,2.76,-2.79,-2.74,-2.68,-0.72,-0.81,-0.78
55.74,1.92,2.71,2.01,2.80,-2.80,-2.78,-2.78,-0.88,-0.79,-0.79
56.29,1.96,2.76,2.04,2.84,-2.82,-2.82,-2.88,-0.86,-0.78,-0.79
56.86,2.18,2.99,2.07,2.88,-2.86,-2.86,-2.97,-0.69,-0.79,-0.81
57.42,2.15,2.98,2.11,2.94,-2.92,-2.90,-3.06,-0.77,-0.80,-0.83
58.00,2.04,2.88,2.12,2.96,-2.98,-2.94,-3.15,-0.93,-0.86,-0.84
58.58,2.11,2.96,2.12,2.97,-3.05,-2.97,-3.23,-0.93,-0.93,-0.85
59.16,2.20,3.07,2.20,3.07,-3.12,-3.00,-3.31,-0.92,-0.92,-0.87
59.76,2.33,3.22,2.33,3.22,-3.20,-3.04,-3.38,-0.86,-0.87,-0.89
60.35,2.42,3.34,2.42,3.33,-3.27,-3.07,-3.45,-0.85,-0.86,-0.91
60.96,2.49,3.43,2.45,3.40,-3.35,-3.10,-3.51,-0.86,-0.90,-0.94
61.57,2.45,3.44,2.48,3.46,-3.43,-3.13,-3.57,-0.98,-0.96,-0.98
62.18,2.45,3.47,2.50,3.52,-3.53,-3.15,-3.62,-1.08,-1.03,-1.02
62.80,2.56,3.62,2.50,3.55,-3.62,-3.18,-3.67,-1.05,-1.12,-1.06
63.43,2.54,3.63,2.53,3.63,-3.69,-3.21,-3.71,-1.15,-1.15,-1.09
64.07,2.50,3.63,2.59,3.72,-3.74,-3.23,-3.74,-1.24,-1.15,-1.13
64.71,2.68,3.85,2.65,3.81,-3.79,-3.26,-3.78,-1.11,-1.14,-1.17
65.35,2.74,3.94,2.70,3.90,-3.83,-3.28,-3.80,-1.09,-1.13,-1.19
66.01,2.71,3.94,2.70,3.93,-3.86,-3.31,-3.83,-1.15,-1.16,-1.23
66.67,2.59,3.86,2.61,3.87,-3.87,-3.33,-3.85,-1.28,-1.26,-1.27
67.33,2.49,3.79,2.51,3.82,-3.85,-3.36,-3.86,-1.36,-1.34,-1.30
68.01,2.42,3.76,2.43,3.78,-3.81,-3.38,-3.88,-1.39,-1.38,-1.34
68.69,2.38,3.76,2.37,3.75,-3.75,-3.40,-3.88,-1.37,-1.39,-1.38
69.37,2.28,3.70,2.27,3.69,-3.68,-3.43,-3.89,-1.40,-1.41,-1.42
70.07,2.14,3.61,2.14,3.60,-3.59,-3.45,-3.89,-1.45,-1.45,-1.47
70.77,1.96,3.46,1.98,3.48,-3.49,-3.47,-3.90,-1.53,-1.51,-1.50
71.48,1.81,3.35,1.82,3.36,-3.37,-3.50,-3.90,-1.56,-1.55,-1.54
72.19,1.66,3.25,1.65,3.24,-3.23,-3.52,-3.90,-1.57,-1.58,-1.58
72.91,1.46,3.10,1.47,3.10,-3.05,-3.54,-3.90,-1.59,-1.59,-1.64
73.64,1.26,2.94,1.25,2.94,-2.86,-3.57,-3.89,-1.60,-1.61,-1.68
74.38,1.01,2.74,0.99,2.72,-2.66,-3.59,-3.89,-1.65,-1.67,-1.73
75.12,0.72,2.49,0.71,2.49,-2.47,-3.62,-3.89,-1.75,-1.76,-1.77
75.87,0.42,2.23,0.45,2.26,-2.29,-3.64,-3.89,-1.87,-1.84,-1.81
76.63,0.23,2.08,0.24,2.08,-2.14,-3.67,-3.89,-1.91,-1.91,-1.85
77.40,0.09,1.98,0.08,1.96,-2.03,-3.69,-3.89,-1.94,-1.95,-1.88
78.17,-0.01,1.91,-0.02,1.90,-1.96,-3.72,-3.90,-1.97,-1.98,-1.92
78.95,-0.08,1.87,-0.04,1.91,-1.96,-3.74,-3.90,-2.03,-2.00,-1.95
79.74,-0.01,1.97,0.01,1.99,-2.01,-3.77,-3.91,-2.01,-2.00,-1.98
80.54,0.13,2.14,0.08,2.09,-2.10,-3.80,-3.92,-1.97,-2.02,-2.01
81.35,0.22,2.26,0.19,2.23,-2.23,-3.83,-3.93,-2.01,-2.04,-2.04
82.16,0.24,2.31,0.33,2.40,-2.38,-3.85,-3.95,-2.13,-2.05,-2.07
82.98,0.49,2.58,0.49,2.58,-2.54,-3.88,-3.96,-2.04,-2.05,-2.09
83.81,0.70,2.83,0.64,2.77,-2.70,-3.91,-3.98,-2.00,-2.07,-2.13
84.65,0.77,2.94,0.76,2.92,-2.88,-3.94,-4.00,-2.11,-2.11,-2.17
85.50,0.81,3.00,0.84,3.03,-3.05,-3.97,-4.03,-2.24,-2.21,-2.19
86.35,0.92,3.14,0.96,3.18,-3.23,-4.00,-4.06,-2.30,-2.27,-2.22
87.22,1.11,3.37,1.12,3.37,-3.41,-4.04,-4.09,-2.30,-2.30,-2.25
88.09,1.36,3.65,1.29,3.58,-3.60,-4.07,-4.13,-2.24,-2.31,-2.29
88.97,1.43,3.74,1.47,3.79,-3.79,-4.10,-4.16,-2.36,-2.32,-2.31
89.86,1.61,3.96,1.64,3.99,-3.98,-4.13,-4.20,-2.37,-2.34,-2.35
90.76,1.83,4.21,1.78,4.16,-4.16,-4.17,-4.25,-2.33,-2.38,-2.38
91.66,1.94,4.35,1.96,4.37,-4.33,-4.20,-4.30,-2.39,-2.37,-2.41
92.58,2.06,4.51,2.11,4.56,-4.49,-4.24,-4.35,-2.43,-2.38,-2.45
93.51,2.26,4.73,2.18,4.65,-4.63,-4.27,-4.40,-2.37,-2.45,-2.47
94.44,2.27,4.77,2.22,4.72,-4.76,-4.31,-4.46,-2.48,-2.53,-2.50
95.39,2.16,4.69,2.27,4.80,-4.85,-4.34,-4.52,-2.69,-2.58,-2.53
96.34,2.31,4.87,2.36,4.92,-4.93,-4.38,-4.58,-2.62,-2.58,-2.56
97.30,2.52,5.11,2.46,5.04,-5.01,-4.41,-4.64,-2.49,-2.55,-2.59
98.28,2.59,5.21,2.50,5.12,-5.07,-4.45,-4.71,-2.47,-2.56,-2.62
99.26,2.43,5.07,2.49,5.13,-5.11,-4.49,-4.78,-2.68,-2.62,-2.64
100.25,2.37,5.04,2.46,5.12,-5.16,-4.52,-4.85,-2.78,-2.70,-2.66
101.25,2.52,5.21,2.46,5.15,-5.18,-4.56,-4.93,-2.66,-2.73,-2.69
102.27,2.51,5.23,2.51,5.23,-5.20,-4.60,-5.00,-2.69,-2.70,-2.72
103.29,2.50,5.27,2.51,5.27,-5.22,-4.64,-5.08,-2.72,-2.71,-2.77
104.32,2.47,5.26,2.44,5.23,-5.24,-4.68,-5.16,-2.77,-2.80,-2.79
105.37,2.38,5.21,2.40,5.22,-5.27,-4.71,-5.24,-2.88,-2.87,-2.82
106.42,2.34,5.19,2.39,5.25,-5.30,-4.75,-5.31,-2.96,-2.91,-2.85
107.48,2.44,5.33,2.42,5.31,-5.33,-4.79,-5.39,-2.89,-2.91,-2.89
108.56,2.48,5.41,2.45,5.38,-5.36,-4.83,-5.47,-2.88,-2.91,-2.93
109.64,2.46,5.43,2.47,5.43,-5.39,-4.87,-5.55,-2.93,-2.92,-2.97
110.74,2.44,5.44,2.45,5.45,-5.42,-4.91,-5.62,-2.98,-2.98,-3.00
111.85,2.42,5.45,2.43,5.46,-5.46,-4.95,-5.69,-3.04,-3.04,-3.02
112.97,2.42,5.49,2.42,5.48,-5.50,-4.98,-5.76,-3.07,-3.08,-3.07
114.10,2.41,5.50,2.41,5.51,-5.52,-5.02,-5.83,-3.11,-3.10,-3.09
115.24,2.41,5.54,2.41,5.54,-5.53,-5.06,-5.89,-3.12,-3.12,-3.13
116.39,2.41,5.56,2.41,5.56,-5.56,-5.10,-5.95,-3.14,-3.14,-3.15
117.55,2.41,5.59,2.42,5.60,-5.58,-5.14,-6.01,-3.17,-3.16,-3.18
118.73,2.42,5.63,2.40,5.60,-5.62,-5.17,-6.06,-3.20,-3.22,-3.21
119.92,2.42,5.63,2.39,5.61,-5.65,-5.21,-6.10,-3.23,-3.26,-3.21
121.12,2.34,5.58,2.41,5.65,-5.67,-5.25,-6.14,-3.33,-3.26,-3.24
122.33,2.46,5.71,2.47,5.72,-5.69,-5.29,-6.17,-3.23,-3.23,-3.25
123.55,2.54,5.80,2.50,5.76,-5.72,-5.32,-6.19,-3.17,-3.22,-3.26
124.79,2.56,5.84,2.51,5.79,-5.74,-5.36,-6.21,-3.18,-3.23,-3.28
126.03,2.40,5.70,2.47,5.76,-5.77,-5.39,-6.23,-3.37,-3.30,-3.30
127.29,2.42,5.73,2.43,5.75,-5.80,-5.43,-6.23,-3.38,-3.37,-3.31
128.57,2.45,5.79,2.43,5.76,-5.83,-5.46,-6.23,-3.38,-3.40,-3.33
129.85,2.48,5.83,2.48,5.83,-5.84,-5.50,-6.22,-3.36,-3.36,-3.35
131.15,2.50,5.86,2.53,5.89,-5.85,-5.53,-6.21,-3.35,-3.32,-3.36
132.46,2.57,5.94,2.55,5.92,-5.86,-5.56,-6.19,-3.28,-3.30,-3.37
133.79,2.59,5.96,2.53,5.91,-5.87,-5.59,-6.17,-3.27,-3.33,-3.37
135.12,2.44,5.85,2.49,5.88,-5.88,-5.63,-6.14,-3.44,-3.39,-3.40
136.48,2.41,5.82,2.43,5.84,-5.89,-5.66,-6.11,-3.47,-3.46,-3.40
137.84,2.40,5.83,2.40,5.83,-5.88,-5.69,-6.07,-3.48,-3.49,-3.42
139.22,2.41,5.86,2.41,5.85,-5.87,-5.72,-6.03,-3.45,-3.46,-3.45
140.61,2.41,5.88,2.41,5.88,-5.85,-5.74,-5.99,-3.44,-3.44,-3.47
142.02,2.41,5.88,2.42,5.90,-5.85,-5.77,-5.95,-3.43,-3.42,-3.47
143.44,2.41,5.90,2.40,5.89,-5.86,-5.80,-5.90,-3.44,-3.46,-3.49
144.87,2.38,5.90,2.34,5.85,-5.88,-5.82,-5.86,-3.49,-3.54,-3.51
146.32,2.25,5.79,2.29,5.83,-5.90,-5.85,-5.81,-3.65,-3.61,-3.54
147.78,2.24,5.81,2.29,5.86,-5.92,-5.87,-5.76,-3.68,-3.63,-3.57
149.26,2.33,5.93,2.32,5.93,-5.94,-5.89,-5.72,-3.61,-3.62,-3.60
150.75,2.42,6.08,2.35,6.00,-5.97,-5.92,-5.67,-3.55,-3.62,-3.66
152.26,2.32,6.02,2.33,6.03,-5.99,-5.94,-5.63,-3.66,-3.66,-3.70
153.78,2.22,5.98,2.27,6.02,-6.00,-5.96,-5.58,-3.77,-3.73,-3.75
155.32,2.20,6.02,2.19,6.00,-5.99,-5.97,-5.55,-3.78,-3.79,-3.82
156.88,2.14,6.01,2.13,6.01,-5.96,-5.99,-5.51,-3.82,-3.83,-3.87
158.44,2.04,5.98,2.03,5.97,-5.92,-6.01,-5.47,-3.88,-3.89,-3.94
160.03,1.91,5.92,1.89,5.89,-5.89,-6.02,-5.44,-3.98,-4.00,-4.00
161.63,1.74,5.80,1.78,5.83,-5.87,-6.04,-5.41,-4.13,-4.10,-4.05
163.24,1.66,5.78,1.67,5.77,-5.87,-6.05,-5.38,-4.21,-4.20,-4.11
164.88,1.67,5.82,1.62,5.77,-5.88,-6.06,-5.36,-4.21,-4.26,-4.14
166.53,1.60,5.79,1.70,5.89,-5.91,-6.07,-5.34,-4.31,-4.21,-4.18
168.19,1.77,5.98,1.78,6.00,-5.95,-6.08,-5.33,-4.18,-4.17,-4.21
169.87,1.99,6.23,1.82,6.06,-6.01,-6.09,-5.31,-4.02,-4.19,-4.24
171.57,1.80,6.06,1.88,6.13,-6.07,-6.10,-5.31,-4.27,-4.20,-4.26
173.29,1.79,6.06,1.88,6.15,-6.13,-6.10,-5.30,-4.34,-4.25,-4.27
175.02,1.96,6.23,1.89,6.16,-6.19,-6.11,-5.31,-4.23,-4.30,-4.27
176.77,1.96,6.24,1.95,6.23,-6.23,-6.11,-5.31,-4.26,-4.27,-4.28
178.54,1.96,6.25,1.98,6.25,-6.24,-6.11,-5.32,-4.28,-4.26,-4.28
180.32,1.96,6.23,1.96,6.24,-6.25,-6.11,-5.33,-4.28,-4.28,-4.27
182.13,1.97,6.24,1.97,6.24,-6.24,-6.11,-5.35,-4.27,-4.27,-4.26
183.95,1.98,6.25,2.00,6.26,-6.23,-6.11,-5.37,-4.25,-4.23,-4.27
185.79,1.99,6.26,1.99,6.27,-6.22,-6.11,-5.39,-4.23,-4.23,-4.27
187.65,2.01,6.30,1.94,6.22,-6.23,-6.10,-5.42,-4.22,-4.29,-4.29
189.52,1.85,6.14,1.89,6.18,-6.23,-6.10,-5.45,-4.38,-4.34,-4.29
191.42,1.81,6.11,1.86,6.16,-6.25,-6.09,-5.49,-4.44,-4.39,-4.30
193.33,1.91,6.23,1.89,6.20,-6.27,-6.08,-5.53,-4.36,-4.38,-4.31
195.27,1.96,6.29,1.98,6.31,-6.28,-6.07,-5.57,-4.32,-4.31,-4.33
197.22,2.05,6.40,2.03,6.37,-6.29,-6.06,-5.61,-4.24,-4.26,-4.35
199.19,2.05,6.42,2.01,6.38,-6.30,-6.05,-5.66,-4.25,-4.28,-4.37
201.18,1.94,6.32,1.98,6.36,-6.31,-6.04,-5.71,-4.37,-4.33,-4.38
203.19,1.90,6.29,1.92,6.32,-6.32,-6.02,-5.77,-4.42,-4.40,-4.39
205.23,1.90,6.32,1.88,6.29,-6.34,-6.01,-5.82,-4.44,-4.46,-4.42
207.28,1.87,6.29,1.84,6.27,-6.36,-5.99,-5.88,-4.48,-4.51,-4.42
209.35,1.82,6.27,1.84,6.29,-6.37,-5.97,-5.93,-4.55,-4.53,-4.45
211.44,1.82,6.29,1.89,6.36,-6.39,-5.96,-5.99,-4.57,-4.50,-4.47
213.56,1.99,6.47,1.95,6.43,-6.41,-5.94,-6.05,-4.42,-4.46,-4.48
215.69,2.07,6.56,2.00,6.48,-6.42,-5.92,-6.11,-4.35,-4.42,-4.49
217.85,1.95,6.45,2.02,6.51,-6.42,-5.89,-6.17,-4.46,-4.40,-4.49
220.03,1.93,6.44,1.95,6.46,-6.40,-5.87,-6.22,-4.46,-4.44,-4.51
222.23,1.93,6.45,1.85,6.36,-6.36,-5.85,-6.27,-4.43,-4.51,-4.52
224.45,1.74,6.25,1.78,6.29,-6.31,-5.82,-6.33,-4.56,-4.52,-4.51
226.70,1.63,6.14,1.69,6.20,-6.24,-5.80,-6.37,-4.61,-4.55,-4.50
228.96,1.68,6.18,1.60,6.10,-6.18,-5.77,-6.42,-4.50,-4.58,-4.50
231.25,1.55,6.04,1.59,6.08,-6.11,-5.74,-6.46,-4.56,-4.52,-4.49
233.57,1.54,6.02,1.58,6.06,-6.05,-5.72,-6.49,-4.51,-4.47,-4.47
235.90,1.61,6.07,1.56,6.02,-5.99,-5.69,-6.52,-4.38,-4.44,-4.46
238.26,1.55,5.99,1.55,5.99,-5.94,-5.66,-6.54,-4.39,-4.39,-4.44
240.64,1.51,5.92,1.53,5.94,-5.90,-5.63,-6.56,-4.39,-4.37,-4.41
243.05,1.48,5.86,1.49,5.87,-5.87,-5.59,-6.57,-4.39,-4.38,-4.38
245.48,1.48,5.84,1.44,5.79,-5.84,-5.56,-6.57,-4.36,-4.40,-4.35
247.93,1.38,5.71,1.40,5.73,-5.81,-5.53,-6.56,-4.43,-4.41,-4.33
250.41,1.35,5.67,1.40,5.71,-5.77,-5.50,-6.55,-4.42,-4.37,-4.31
252.92,1.44,5.72,1.45,5.73,-5.72,-5.46,-6.53,-4.28,-4.27,-4.28
255.45,1.51,5.77,1.48,5.74,-5.66,-5.43,-6.49,-4.15,-4.18,-4.25
258.00,1.51,5.75,1.45,5.68,-5.59,-5.39,-6.46,-4.08,-4.14,-4.24
260.58,1.31,5.53,1.36,5.58,-5.51,-5.36,-6.41,-4.20,-4.15,-4.22
263.19,1.19,5.39,1.23,5.43,-5.43,-5.32,-6.36,-4.24,-4.19,-4.20
265.82,1.17,5.35,1.11,5.28,-5.33,-5.28,-6.30,-4.16,-4.23,-4.18
268.48,1.00,5.16,1.02,5.18,-5.23,-5.25,-6.24,-4.23,-4.21,-4.16
271.16,0.93,5.06,0.96,5.09,-5.14,-5.21,-6.17,-4.21,-4.18,-4.13
273.87,0.92,5.03,0.91,5.02,-5.05,-5.17,-6.09,-4.13,-4.14,-4.11
276.61,0.92,5.01,0.90,4.99,-4.98,-5.13,-6.01,-4.06,-4.08,-4.09
279.38,0.89,4.95,0.89,4.95,-4.93,-5.09,-5.93,-4.04,-4.04,-4.06
282.17,0.86,4.90,0.87,4.91,-4.90,-5.05,-5.84,-4.04,-4.03,-4.04
284.99,0.86,4.87,0.86,4.87,-4.87,-5.01,-5.75,-4.01,-4.01,-4.01
287.84,0.87,4.85,0.87,4.85,-4.85,-4.97,-5.66,-3.97,-3.98,-3.98
290.72,0.88,4.82,0.88,4.82,-4.83,-4.93,-5.56,-3.94,-3.95,-3.94
293.63,0.89,4.81,0.89,4.80,-4.81,-4.89,-5.47,-3.92,-3.92,-3.91
296.57,0.90,4.78,0.90,4.79,-4.80,-4.85,-5.37,-3.89,-3.89,-3.88
299.53,0.92,4.78,0.92,4.77,-4.78,-4.81,-5.27,-3.85,-3.86,-3.86
302.53,0.93,4.76,0.93,4.76,-4.75,-4.77,-5.18,-3.82,-3.82,-3.83
305.55,0.94,4.74,0.94,4.75,-4.73,-4.73,-5.08,-3.79,-3.79,-3.80
308.61,0.95,4.73,0.96,4.74,-4.71,-4.69,-4.99,-3.76,-3.75,-3.78
311.69,0.95,4.71,0.96,4.71,-4.69,-4.65,-4.89,-3.74,-3.73,-3.76
314.81,0.96,4.68,0.90,4.63,-4.67,-4.61,-4.80,-3.71,-3.77,-3.72
317.96,0.84,4.56,0.86,4.57,-4.64,-4.56,-4.71,-3.80,-3.78,-3.71
321.14,0.76,4.46,0.89,4.59,-4.60,-4.52,-4.62,-3.84,-3.71,-3.70
324.35,0.96,4.65,0.91,4.59,-4.55,-4.48,-4.54,-3.59,-3.64,-3.69
327.59,1.02,4.69,0.87,4.54,-4.48,-4.44,-4.45,-3.46,-3.62,-3.67
330.87,0.73,4.39,0.82,4.48,-4.41,-4.40,-4.37,-3.68,-3.59,-3.66
334.18,0.58,4.24,0.72,4.37,-4.34,-4.36,-4.29,-3.76,-3.62,-3.65
337.52,0.74,4.39,0.59,4.23,-4.28,-4.32,-4.22,-3.53,-3.68,-3.65
340.90,0.55,4.18,0.51,4.14,-4.21,-4.27,-4.14,-3.65,-3.69,-3.63
344.30,0.33,3.95,0.44,4.06,-4.13,-4.23,-4.07,-3.80,-3.69,-3.62
347.75,0.37,3.98,0.41,4.02,-4.06,-4.19,-4.01,-3.69,-3.65,-3.61
351.23,0.46,4.06,0.43,4.04,-4.00,-4.15,-3.94,-3.54,-3.57,-3.60
354.74,0.53,4.13,0.42,4.02,-3.95,-4.11,-3.88,-3.42,-3.53,-3.60
358.28,0.30,3.90,0.35,3.95,-3.91,-4.07,-3.82,-3.61,-3.56,-3.59
361.87,0.19,3.79,0.27,3.86,-3.88,-4.03,-3.77,-3.69,-3.61,-3.60
365.49,0.25,3.84,0.20,3.79,-3.83,-3.99,-3.71,-3.58,-3.63,-3.59
369.14,0.20,3.79,0.19,3.78,-3.79,-3.95,-3.66,-3.59,-3.59,-3.59
372.83,0.15,3.74,0.16,3.75,-3.73,-3.91,-3.62,-3.58,-3.57,-3.59
376.56,0.10,3.69,0.10,3.68,-3.67,-3.87,-3.57,-3.57,-3.58,-3.59
380.33,0.03,3.60,0.05,3.63,-3.61,-3.83,-3.53,-3.58,-3.57,-3.57
384.13,-0.01,3.57,-0.02,3.57,-3.55,-3.80,-3.49,-3.56,-3.57,-3.58
387.97,-0.07,3.51,-0.09,3.49,-3.49,-3.76,-3.46,-3.56,-3.59,-3.58
391.85,-0.17,3.42,-0.14,3.44,-3.44,-3.72,-3.42,-3.60,-3.57,-3.58
395.77,-0.23,3.35,-0.20,3.38,-3.38,-3.68,-3.39,-3.61,-3.58,-3.58
399.73,-0.20,3.38,-0.30,3.29,-3.33,-3.65,-3.36,-3.52,-3.62,-3.58
403.72,-0.38,3.21,-0.34,3.24,-3.28,-3.61,-3.34,-3.65,-3.61,-3.59
407.76,-0.47,3.12,-0.37,3.22,-3.22,-3.57,-3.31,-3.69,-3.59,-3.59
411.84,-0.30,3.28,-0.40,3.18,-3.17,-3.54,-3.29,-3.47,-3.57,-3.58
415.96,-0.41,3.18,-0.42,3.16,-3.12,-3.50,-3.27,-3.53,-3.54,-3.59
420.12,-0.52,3.07,-0.48,3.10,-3.06,-3.47,-3.25,-3.58,-3.54,-3.59
424.32,-0.59,2.99,-0.59,3.00,-2.99,-3.44,-3.23,-3.58,-3.58,-3.58
428.56,-0.65,2.93,-0.65,2.93,-2.93,-3.40,-3.21,-3.58,-3.58,-3.58
432.85,-0.68,2.88,-0.69,2.87,-2.88,-3.37,-3.20,-3.56,-3.57,-3.56
437.18,-0.73,2.81,-0.73,2.81,-2.84,-3.34,-3.18,-3.56,-3.57,-3.54
441.55,-0.76,2.75,-0.75,2.76,-2.80,-3.31,-3.17,-3.56,-3.56,-3.50
445.96,-0.76,2.72,-0.76,2.72,-2.78,-3.28,-3.15,-3.54,-3.54,-3.47
450.42,-0.71,2.74,-0.71,2.73,-2.77,-3.25,-3.14,-3.48,-3.47,-3.44
454.93,-0.66,2.73,-0.60,2.79,-2.75,-3.22,-3.13,-3.41,-3.36,-3.39
459.48,-0.48,2.87,-0.53,2.81,-2.74,-3.19,-3.12,-3.22,-3.27,-3.35
