frequency,raw,error,smoothed,error_smoothed,equalization,parametric_eq,fixed_band_eq,equalized_raw,equalized_smoothed,target
20.00,-13.78,-13.83,-13.79,-13.83,6.00,5.08,2.87,-7.78,-7.79,0.05
20.20,-13.63,-13.69,-13.63,-13.68,6.00,5.13,2.95,-7.63,-7.63,0.06
20.40,-13.49,-13.55,-13.48,-13.54,6.00,5.17,3.04,-7.49,-7.48,0.07
20.61,-13.34,-13.41,-13.33,-13.40,6.00,5.21,3.12,-7.34,-7.33,0.07
20.81,-13.19,-13.26,-13.19,-13.27,6.00,5.26,3.21,-7.19,-7.19,0.08
21.02,-13.05,-13.13,-13.07,-13.15,6.00,5.30,3.30,-7.05,-7.07,0.08
21.23,-12.97,-13.06,-12.96,-13.05,6.00,5.34,3.39,-6.97,-6.96,0.09
21.44,-12.89,-12.97,-12.88,-12.97,6.00,5.38,3.49,-6.89,-6.88,0.09
21.66,-12.81,-12.90,-12.81,-12.90,6.00,5.42,3.58,-6.81,-6.81,0.09
21.87,-12.73,-12.81,-12.73,-12.82,6.00,5.46,3.68,-6.73,-6.73,0.09
22.09,-12.65,-12.75,-12.65,-12.74,6.00,5.50,3.79,-6.65,-6.65,0.10
22.31,-12.58,-12.67,-12.58,-12.67,6.00,5.54,3.89,-6.58,-6.58,0.10
22.54,-12.50,-12.59,-12.50,-12.59,6.00,5.58,4.00,-6.50,-6.50,0.09
22.76,-12.43,-12.51,-12.43,-12.51,6.00,5.62,4.11,-6.43,-6.43,0.08
22.99,-12.35,-12.43,-12.35,-12.43,6.00,5.65,4.23,-6.35,-6.35,0.08
23.22,-12.28,-12.36,-12.28,-12.35,6.00,5.69,4.35,-6.28,-6.28,0.08
23.45,-12.20,-12.27,-12.20,-12.27,6.00,5.72,4.47,-6.20,-6.20,0.07
23.69,-12.12,-12.19,-12.12,-12.19,6.00,5.76,4.59,-6.12,-6.12,0.07
23.92,-12.04,-12.10,-12.03,-12.09,6.00,5.79,4.72,-6.04,-6.03,0.07
24.16,-11.92,-11.98,-11.91,-11.98,6.00,5.82,4.84,-5.92,-5.91,0.07
24.40,-11.77,-11.83,-11.77,-11.84,6.00,5.86,4.97,-5.77,-5.77,0.07
24.65,-11.62,-11.69,-11.61,-11.68,6.00,5.89,5.11,-5.62,-5.61,0.07
24.89,-11.46,-11.52,-11.47,-11.54,6.00,5.92,5.24,-5.46,-5.47,0.07
25.14,-11.34,-11.40,-11.34,-11.41,6.00,5.94,5.37,-5.34,-5.34,0.07
25.39,-11.24,-11.29,-11.23,-11.29,6.00,5.97,5.51,-5.24,-5.23,0.06
25.65,-11.14,-11.20,-11.13,-11.19,6.00,6.00,5.65,-5.14,-5.13,0.06
25.91,-11.04,-11.10,-11.05,-11.11,6.00,6.02,5.79,-5.04,-5.05,0.06
26.16,-10.98,-11.04,-10.98,-11.04,6.00,6.05,5.93,-4.98,-4.98,0.06
26.43,-10.94,-11.00,-10.95,-11.00,6.00,6.07,6.06,-4.94,-4.95,0.06
26.69,-10.90,-10.96,-10.91,-10.97,6.00,6.10,6.20,-4.90,-4.91,0.06
26.96,-10.87,-10.93,-10.83,-10.89,6.00,6.12,6.34,-4.87,-4.83,0.06
27.23,-10.70,-10.76,-10.70,-10.75,6.00,6.14,6.47,-4.70,-4.70,0.06
27.50,-10.51,-10.57,-10.51,-10.57,6.00,6.16,6.60,-4.51,-4.51,0.06
27.77,-10.32,-10.37,-10.32,-10.38,6.00,6.17,6.72,-4.32,-4.32,0.06
28.05,-10.16,-10.22,-10.18,-10.24,6.00,6.19,6.84,-4.16,-4.18,0.06
28.33,-10.10,-10.16,-10.09,-10.15,6.00,6.20,6.96,-4.10,-4.09,0.06
28.62,-10.03,-10.09,-10.02,-10.08,6.00,6.22,7.07,-4.03,-4.02,0.06
28.90,-9.97,-10.04,-9.97,-10.03,6.00,6.23,7.17,-3.97,-3.97,0.07
29.19,-9.90,-9.97,-9.90,-9.96,6.00,6.24,7.26,-3.90,-3.90,0.07
29.48,-9.82,-9.89,-9.82,-9.89,6.00,6.25,7.35,-3.82,-3.82,0.07
29.78,-9.74,-9.82,-9.74,-9.81,6.00,6.26,7.43,-3.74,-3.74,0.08
30.08,-9.66,-9.74,-9.65,-9.73,6.00,6.27,7.49,-3.66,-3.65,0.08
30.38,-9.56,-9.64,-9.56,-9.64,6.00,6.27,7.54,-3.56,-3.56,0.08
30.68,-9.47,-9.55,-9.47,-9.55,6.00,6.28,7.59,-3.47,-3.47,0.08
30.99,-9.37,-9.45,-9.37,-9.45,6.00,6.28,7.62,-3.37,-3.37,0.08
31.30,-9.29,-9.37,-9.28,-9.36,6.00,6.29,7.64,-3.29,-3.28,0.08
31.61,-9.20,-9.28,-9.20,-9.28,6.00,6.29,7.65,-3.20,-3.20,0.08
31.93,-9.12,-9.20,-9.13,-9.20,6.00,6.29,7.64,-3.12,-3.13,0.08
32.24,-9.06,-9.12,-9.06,-9.13,6.00,6.28,7.63,-3.06,-3.06,0.07
32.57,-9.00,-9.07,-9.00,-9.06,6.00,6.28,7.60,-3.00,-3.00,0.07
32.89,-8.94,-9.01,-8.94,-9.00,6.00,6.28,7.57,-2.94,-2.94,0.07
33.22,-8.89,-8.95,-8.90,-8.96,6.00,6.27,7.52,-2.89,-2.90,0.06
33.55,-8.85,-8.91,-8.86,-8.91,6.00,6.27,7.47,-2.85,-2.86,0.06
33.89,-8.81,-8.86,-8.78,-8.83,6.00,6.26,7.40,-2.81,-2.78,0.05
34.23,-8.65,-8.70,-8.62,-8.67,6.00,6.25,7.33,-2.65,-2.62,0.05
34.57,-8.42,-8.47,-8.42,-8.47,6.00,6.24,7.26,-2.42,-2.42,0.05
34.92,-8.19,-8.24,-8.23,-8.28,6.00,6.23,7.18,-2.19,-2.23,0.05
35.27,-8.10,-8.15,-8.11,-8.16,6.00,6.22,7.09,-2.10,-2.11,0.05
35.62,-8.05,-8.10,-8.04,-8.09,6.00,6.20,7.00,-2.05,-2.04,0.05
35.97,-8.00,-8.04,-7.97,-8.02,6.00,6.19,6.91,-2.00,-1.97,0.05
36.33,-7.88,-7.92,-7.86,-7.91,6.00,6.17,6.81,-1.88,-1.86,0.05
36.70,-7.74,-7.79,-7.75,-7.80,6.00,6.16,6.72,-1.74,-1.75,0.05
37.06,-7.64,-7.69,-7.68,-7.73,6.00,6.14,6.62,-1.64,-1.68,0.05
37.43,-7.68,-7.73,-7.67,-7.72,6.00,6.13,6.53,-1.68,-1.67,0.05
37.81,-7.72,-7.78,-7.70,-7.75,6.00,6.11,6.43,-1.72,-1.70,0.06
38.19,-7.72,-7.78,-7.71,-7.77,6.00,6.09,6.34,-1.72,-1.71,0.06
38.57,-7.68,-7.74,-7.68,-7.74,6.00,6.07,6.25,-1.68,-1.68,0.06
38.95,-7.63,-7.70,-7.64,-7.70,6.00,6.05,6.16,-1.63,-1.64,0.07
39.34,-7.59,-7.66,-7.59,-7.65,6.00,6.04,6.07,-1.59,-1.59,0.07
39.74,-7.54,-7.61,-7.54,-7.61,6.00,6.02,5.99,-1.54,-1.54,0.07
40.14,-7.49,-7.56,-7.50,-7.57,6.00,6.00,5.90,-1.49,-1.50,0.07
40.54,-7.42,-7.49,-7.43,-7.50,6.00,5.98,5.83,-1.42,-1.43,0.07
40.94,-7.35,-7.41,-7.30,-7.36,6.00,5.96,5.75,-1.35,-1.30,0.07
41.35,-7.13,-7.19,-7.11,-7.17,6.00,5.94,5.68,-1.13,-1.11,0.07
41.76,-6.89,-6.94,-6.93,-6.99,6.00,5.93,5.61,-0.89,-0.93,0.06
42.18,-6.76,-6.82,-6.81,-6.87,6.00,5.91,5.55,-0.76,-0.81,0.06
42.60,-6.80,-6.86,-6.78,-6.84,6.00,5.89,5.49,-0.80,-0.78,0.06
43.03,-6.82,-6.88,-6.77,-6.83,6.00,5.88,5.43,-0.82,-0.77,0.06
43.46,-6.74,-6.80,-6.74,-6.80,6.00,5.87,5.38,-0.74,-0.74,0.06
43.90,-6.66,-6.71,-6.68,-6.73,6.00,5.85,5.33,-0.66,-0.68,0.05
44.33,-6.60,-6.65,-6.61,-6.66,6.00,5.84,5.29,-0.60,-0.61,0.05
44.78,-6.55,-6.60,-6.53,-6.58,6.00,5.84,5.25,-0.55,-0.53,0.05
45.23,-6.46,-6.51,-6.43,-6.48,6.00,5.83,5.22,-0.46,-0.43,0.05
45.68,-6.32,-6.37,-6.33,-6.38,6.00,5.83,5.19,-0.32,-0.33,0.05
46.13,-6.23,-6.29,-6.28,-6.33,6.00,5.82,5.16,-0.23,-0.28,0.06
46.60,-6.28,-6.34,-6.27,-6.33,6.00,5.82,5.14,-0.28,-0.27,0.06
47.06,-6.31,-6.38,-6.26,-6.33,6.00,5.83,5.12,-0.31,-0.26,0.07
47.53,-6.27,-6.35,-6.26,-6.34,6.00,5.83,5.10,-0.27,-0.26,0.08
48.01,-6.22,-6.31,-6.29,-6.38,6.00,5.84,5.09,-0.22,-0.29,0.09
48.49,-6.32,-6.42,-6.33,-6.42,6.00,5.85,5.08,-0.32,-0.33,0.10
48.97,-6.42,-6.53,-6.32,-6.43,6.00,5.86,5.08,-0.42,-0.32,0.11
49.46,-6.29,-6.41,-6.28,-6.40,6.00,5.88,5.07,-0.29,-0.28,0.12
49.96,-6.13,-6.27,-6.22,-6.35,6.00,5.89,5.07,-0.13,-0.22,0.14
50.46,-6.18,-6.33,-6.18,-6.33,6.00,5.91,5.08,-0.18,-0.18,0.15
50.96,-6.24,-6.41,-6.23,-6.39,6.00,5.93,5.08,-0.24,-0.23,0.17
51.47,-6.26,-6.44,-6.27,-6.45,6.00,5.94,5.09,-0.26,-0.27,0.18
51.99,-6.29,-6.48,-6.20,-6.39,6.00,5.95,5.10,-0.29,-0.20,0.19
52.51,-6.10,-6.30,-6.11,-6.30,6.00,5.96,5.11,-0.10,-0.11,0.20
53.03,-5.93,-6.14,-6.04,-6.25,6.01,5.97,5.12,0.08,-0.03,0.21
53.56,-6.02,-6.24,-6.00,-6.22,6.02,5.97,5.13,-0.00,0.02,0.22
54.10,-6.07,-6.31,-6.01,-6.24,6.02,5.96,5.14,-0.05,0.01,0.24
54.64,-5.99,-6.24,-6.00,-6.25,6.02,5.94,5.16,0.03,0.02,0.25
55.18,-5.91,-6.17,-5.93,-6.18,6.01,5.91,5.17,0.10,0.08,0.26
55.74,-5.84,-6.10,-5.84,-6.10,5.98,5.87,5.18,0.14,0.14,0.26
56.29,-5.75,-6.02,-5.75,-6.02,5.94,5.82,5.19,0.19,0.19,0.27
56.86,-5.65,-5.93,-5.64,-5.91,5.87,5.76,5.19,0.22,0.23,0.28
57.42,-5.52,-5.79,-5.52,-5.80,5.79,5.68,5.20,0.27,0.27,0.28
58.00,-5.39,-5.67,-5.40,-5.68,5.68,5.60,5.20,0.29,0.28,0.28
58.58,-5.29,-5.57,-5.28,-5.56,5.56,5.50,5.20,0.27,0.28,0.28
59.16,-5.17,-5.44,-5.15,-5.43,5.43,5.40,5.19,0.27,0.28,0.28
59.76,-5.01,-5.29,-5.03,-5.30,5.31,5.29,5.18,0.30,0.28,0.28
60.35,-4.89,-5.16,-4.90,-5.17,5.19,5.18,5.17,0.30,0.29,0.27
60.96,-4.80,-5.06,-4.78,-5.03,5.08,5.06,5.15,0.28,0.30,0.26
61.57,-4.68,-4.93,-4.69,-4.93,4.97,4.95,5.13,0.29,0.28,0.25
62.18,-4.60,-4.83,-4.63,-4.85,4.87,4.83,5.10,0.27,0.24,0.23
62.80,-4.60,-4.81,-4.60,-4.80,4.77,4.71,5.07,0.17,0.17,0.21
63.43,-4.57,-4.75,-4.54,-4.72,4.68,4.59,5.03,0.11,0.13,0.18
64.07,-4.50,-4.66,-4.45,-4.60,4.58,4.48,4.99,0.08,0.13,0.16
64.71,-4.29,-4.42,-4.35,-4.48,4.48,4.37,4.94,0.19,0.13,0.13
65.35,-4.22,-4.33,-4.26,-4.36,4.38,4.26,4.89,0.16,0.12,0.11
66.01,-4.25,-4.34,-4.17,-4.26,4.28,4.16,4.83,0.03,0.11,0.09
66.67,-4.09,-4.16,-4.11,-4.18,4.17,4.06,4.77,0.08,0.06,0.07
67.33,-3.99,-4.05,-4.02,-4.07,4.07,3.96,4.71,0.08,0.05,0.06
68.01,-3.94,-3.98,-3.91,-3.95,3.97,3.86,4.64,0.03,0.06,0.04
68.69,-3.83,-3.86,-3.86,-3.88,3.88,3.77,4.56,0.06,0.03,0.03
69.37,-3.78,-3.80,-3.79,-3.81,3.80,3.69,4.49,0.03,0.01,0.02
70.07,-3.77,-3.78,-3.71,-3.72,3.72,3.60,4.41,-0.04,0.01,0.01
70.77,-3.62,-3.62,-3.64,-3.64,3.64,3.52,4.33,0.02,0.00,-0.00
71.48,-3.54,-3.54,-3.57,-3.57,3.56,3.45,4.25,0.02,-0.02,-0.00
72.19,-3.51,-3.50,-3.50,-3.49,3.48,3.37,4.16,-0.03,-0.03,-0.01
72.91,-3.49,-3.47,-3.44,-3.42,3.40,3.30,4.08,-0.09,-0.04,-0.02
73.64,-3.34,-3.31,-3.36,-3.33,3.32,3.23,3.99,-0.02,-0.04,-0.03
74.38,-3.24,-3.20,-3.26,-3.21,3.24,3.17,3.90,-0.00,-0.02,-0.04
75.12,-3.20,-3.15,-3.18,-3.12,3.15,3.11,3.82,-0.04,-0.02,-0.05
75.87,-3.11,-3.04,-3.15,-3.08,3.08,3.04,3.73,-0.03,-0.07,-0.07
76.63,-3.14,-3.06,-3.12,-3.04,3.01,2.99,3.64,-0.13,-0.11,-0.08
77.40,-3.10,-3.00,-3.05,-2.95,2.95,2.93,3.56,-0.15,-0.10,-0.10
78.17,-2.98,-2.87,-2.98,-2.87,2.89,2.88,3.47,-0.09,-0.10,-0.11
78.95,-2.86,-2.73,-2.93,-2.80,2.83,2.82,3.39,-0.03,-0.10,-0.13
79.74,-2.92,-2.78,-2.92,-2.77,2.77,2.77,3.31,-0.15,-0.15,-0.14
80.54,-2.96,-2.80,-2.92,-2.76,2.72,2.72,3.22,-0.24,-0.20,-0.16
81.35,-2.90,-2.73,-2.86,-2.69,2.66,2.68,3.14,-0.23,-0.20,-0.17
82.16,-2.76,-2.58,-2.78,-2.59,2.61,2.63,3.07,-0.15,-0.17,-0.18
82.98,-2.64,-2.45,-2.72,-2.52,2.56,2.59,2.99,-0.08,-0.15,-0.19
83.81,-2.73,-2.53,-2.69,-2.49,2.51,2.54,2.91,-0.22,-0.18,-0.20
84.65,-2.71,-2.51,-2.68,-2.47,2.45,2.50,2.84,-0.26,-0.23,-0.20
85.50,-2.64,-2.43,-2.65,-2.43,2.39,2.46,2.77,-0.25,-0.26,-0.21
86.35,-2.56,-2.34,-2.56,-2.34,2.33,2.42,2.70,-0.23,-0.23,-0.22
87.22,-2.48,-2.25,-2.49,-2.25,2.27,2.38,2.63,-0.21,-0.22,-0.23
88.09,-2.42,-2.18,-2.43,-2.19,2.21,2.34,2.56,-0.21,-0.23,-0.24
88.97,-2.40,-2.16,-2.39,-2.15,2.15,2.31,2.50,-0.25,-0.25,-0.24
89.86,-2.36,-2.11,-2.35,-2.09,2.09,2.27,2.44,-0.27,-0.26,-0.25
90.76,-2.30,-2.04,-2.29,-2.03,2.04,2.23,2.38,-0.26,-0.25,-0.26
91.66,-2.22,-1.96,-2.23,-1.97,1.99,2.20,2.32,-0.23,-0.24,-0.26
92.58,-2.19,-1.93,-2.20,-1.93,1.96,2.17,2.26,-0.23,-0.24,-0.26
93.51,-2.19,-1.92,-2.19,-1.92,1.92,2.13,2.21,-0.27,-0.27,-0.27
94.44,-2.19,-1.92,-2.18,-1.91,1.88,2.10,2.15,-0.31,-0.30,-0.27
95.39,-2.17,-1.90,-2.16,-1.89,1.85,2.07,2.10,-0.32,-0.31,-0.27
96.34,-2.12,-1.85,-2.11,-1.84,1.83,2.04,2.05,-0.29,-0.28,-0.27
97.30,-2.07,-1.80,-2.07,-1.79,1.82,2.01,2.00,-0.25,-0.25,-0.27
98.28,-2.01,-1.73,-2.03,-1.75,1.80,1.98,1.96,-0.21,-0.24,-0.28
99.26,-2.03,-1.75,-2.02,-1.74,1.77,1.95,1.91,-0.26,-0.26,-0.28
100.25,-2.04,-1.76,-2.05,-1.76,1.74,1.92,1.87,-0.30,-0.31,-0.28
101.25,-2.06,-1.78,-2.06,-1.77,1.71,1.89,1.82,-0.35,-0.35,-0.28
102.27,-2.07,-1.78,-2.02,-1.73,1.69,1.87,1.78,-0.38,-0.33,-0.29
103.29,-1.96,-1.66,-1.97,-1.66,1.68,1.84,1.74,-0.28,-0.29,-0.30
104.32,-1.88,-1.57,-1.92,-1.61,1.67,1.81,1.71,-0.21,-0.25,-0.31
105.37,-1.90,-1.59,-1.90,-1.59,1.65,1.79,1.67,-0.25,-0.25,-0.31
106.42,-1.95,-1.63,-1.95,-1.62,1.63,1.76,1.64,-0.32,-0.31,-0.32
107.48,-2.00,-1.67,-1.99,-1.66,1.61,1.74,1.60,-0.39,-0.38,-0.33
108.56,-2.02,-1.68,-2.00,-1.66,1.59,1.71,1.57,-0.43,-0.41,-0.34
109.64,-1.96,-1.61,-1.97,-1.62,1.58,1.69,1.54,-0.38,-0.38,-0.35
110.74,-1.92,-1.57,-1.90,-1.55,1.57,1.66,1.51,-0.35,-0.34,-0.35
111.85,-1.84,-1.49,-1.87,-1.52,1.55,1.64,1.48,-0.29,-0.32,-0.35
112.97,-1.84,-1.49,-1.86,-1.51,1.53,1.62,1.45,-0.31,-0.33,-0.35
114.10,-1.90,-1.55,-1.85,-1.50,1.50,1.59,1.42,-0.40,-0.35,-0.35
115.24,-1.84,-1.50,-1.84,-1.49,1.48,1.57,1.40,-0.35,-0.35,-0.34
116.39,-1.79,-1.45,-1.81,-1.47,1.47,1.55,1.37,-0.31,-0.33,-0.34
117.55,-1.77,-1.45,-1.77,-1.45,1.47,1.53,1.35,-0.30,-0.31,-0.32
118.73,-1.77,-1.46,-1.77,-1.45,1.46,1.51,1.33,-0.31,-0.31,-0.31
119.92,-1.76,-1.47,-1.75,-1.46,1.44,1.49,1.30,-0.32,-0.31,-0.29
121.12,-1.74,-1.47,-1.73,-1.46,1.42,1.47,1.28,-0.31,-0.31,-0.27
122.33,-1.68,-1.43,-1.68,-1.43,1.41,1.45,1.26,-0.27,-0.28,-0.25
123.55,-1.64,-1.41,-1.62,-1.39,1.39,1.43,1.24,-0.25,-0.23,-0.23
124.79,-1.55,-1.34,-1.56,-1.35,1.38,1.41,1.22,-0.17,-0.19,-0.21
126.03,-1.52,-1.33,-1.53,-1.33,1.37,1.39,1.21,-0.15,-0.16,-0.19
127.29,-1.51,-1.34,-1.50,-1.33,1.36,1.37,1.19,-0.15,-0.14,-0.17
128.57,-1.51,-1.36,-1.50,-1.35,1.36,1.35,1.17,-0.15,-0.14,-0.15
129.85,-1.50,-1.37,-1.50,-1.37,1.36,1.33,1.15,-0.13,-0.13,-0.13
131.15,-1.50,-1.39,-1.50,-1.38,1.37,1.32,1.14,-0.13,-0.13,-0.11
132.46,-1.49,-1.39,-1.50,-1.40,1.38,1.30,1.13,-0.11,-0.13,-0.10
133.79,-1.50,-1.42,-1.49,-1.41,1.38,1.28,1.11,-0.12,-0.11,-0.08
135.12,-1.49,-1.42,-1.46,-1.39,1.38,1.27,1.10,-0.11,-0.08,-0.07
136.48,-1.41,-1.36,-1.43,-1.37,1.38,1.25,1.09,-0.03,-0.05,-0.05
137.84,-1.38,-1.34,-1.39,-1.34,1.37,1.23,1.07,-0.01,-0.02,-0.04
139.22,-1.37,-1.34,-1.37,-1.33,1.37,1.22,1.06,-0.00,0.00,-0.03
140.61,-1.37,-1.35,-1.37,-1.34,1.36,1.20,1.05,-0.01,-0.01,-0.02
142.02,-1.37,-1.36,-1.37,-1.36,1.35,1.19,1.04,-0.02,-0.02,-0.01
143.44,-1.37,-1.36,-1.37,-1.36,1.34,1.17,1.03,-0.03,-0.04,-0.01
144.87,-1.37,-1.36,-1.35,-1.34,1.32,1.16,1.02,-0.04,-0.03,-0.01
146.32,-1.33,-1.32,-1.32,-1.30,1.30,1.14,1.02,-0.03,-0.02,-0.01
147.78,-1.26,-1.24,-1.30,-1.28,1.27,1.13,1.01,0.01,-0.03,-0.02
149.26,-1.28,-1.25,-1.27,-1.24,1.23,1.12,1.00,-0.05,-0.05,-0.03
150.75,-1.29,-1.24,-1.25,-1.19,1.18,1.10,1.00,-0.11,-0.07,-0.05
152.26,-1.21,-1.13,-1.22,-1.14,1.12,1.09,0.99,-0.09,-0.10,-0.08
153.78,-1.17,-1.06,-1.19,-1.07,1.07,1.08,0.99,-0.10,-0.12,-0.11
155.32,-1.17,-1.02,-1.16,-1.01,1.03,1.07,0.98,-0.14,-0.13,-0.15
156.88,-1.17,-0.99,-1.16,-0.97,1.01,1.06,0.98,-0.16,-0.15,-0.18
158.44,-1.17,-0.95,-1.17,-0.95,0.99,1.05,0.98,-0.18,-0.18,-0.22
160.03,-1.17,-0.92,-1.19,-0.94,0.98,1.03,0.98,-0.19,-0.21,-0.25
161.63,-1.24,-0.97,-1.23,-0.96,0.97,1.02,0.98,-0.27,-0.26,-0.27
163.24,-1.29,-0.99,-1.30,-1.01,0.97,1.01,0.98,-0.32,-0.34,-0.30
164.88,-1.37,-1.06,-1.35,-1.04,0.96,1.00,0.98,-0.40,-0.39,-0.31
166.53,-1.38,-1.06,-1.34,-1.02,0.96,0.99,0.98,-0.42,-0.38,-0.32
168.19,-1.29,-0.97,-1.29,-0.97,0.96,0.98,0.98,-0.33,-0.34,-0.32
169.87,-1.20,-0.89,-1.23,-0.92,0.96,0.98,0.98,-0.24,-0.28,-0.31
171.57,-1.20,-0.90,-1.20,-0.90,0.96,0.97,0.99,-0.24,-0.24,-0.30
173.29,-1.21,-0.93,-1.20,-0.92,0.96,0.96,0.99,-0.25,-0.24,-0.28
175.02,-1.21,-0.96,-1.21,-0.96,0.97,0.95,1.00,-0.24,-0.25,-0.25
176.77,-1.22,-1.00,-1.22,-0.99,0.98,0.94,1.00,-0.24,-0.23,-0.22
178.54,-1.22,-1.03,-1.22,-1.03,1.01,0.94,1.01,-0.21,-0.20,-0.19
180.32,-1.21,-1.06,-1.21,-1.06,1.04,0.93,1.01,-0.16,-0.17,-0.15
182.13,-1.21,-1.09,-1.21,-1.09,1.08,0.92,1.02,-0.13,-0.13,-0.12
183.95,-1.20,-1.12,-1.20,-1.11,1.10,0.92,1.03,-0.10,-0.10,-0.08
185.79,-1.19,-1.13,-1.19,-1.12,1.12,0.91,1.04,-0.07,-0.07,-0.06
187.65,-1.17,-1.13,-1.17,-1.13,1.13,0.91,1.05,-0.04,-0.04,-0.04
189.52,-1.16,-1.14,-1.16,-1.13,1.13,0.90,1.06,-0.02,-0.03,-0.02
191.42,-1.15,-1.14,-1.14,-1.14,1.14,0.90,1.07,-0.01,-0.01,-0.01
193.33,-1.13,-1.14,-1.13,-1.13,1.13,0.89,1.08,0.00,0.00,0.01
195.27,-1.11,-1.13,-1.11,-1.13,1.13,0.89,1.09,0.02,0.01,0.02
197.22,-1.10,-1.12,-1.10,-1.12,1.12,0.89,1.10,0.02,0.02,0.02
199.19,-1.09,-1.12,-1.09,-1.11,1.12,0.88,1.12,0.03,0.03,0.03
201.18,-1.08,-1.11,-1.08,-1.11,1.11,0.88,1.13,0.03,0.03,0.03
203.19,-1.08,-1.11,-1.07,-1.10,1.11,0.88,1.14,0.03,0.03,0.03
205.23,-1.07,-1.10,-1.07,-1.10,1.10,0.88,1.16,0.03,0.03,0.03
207.28,-1.07,-1.10,-1.07,-1.10,1.10,0.88,1.17,0.03,0.03,0.03
209.35,-1.08,-1.11,-1.07,-1.10,1.10,0.88,1.18,0.02,0.02,0.03
211.44,-1.08,-1.10,-1.08,-1.10,1.10,0.88,1.20,0.02,0.02,0.02
213.56,-1.08,-1.10,-1.08,-1.10,1.09,0.88,1.21,0.01,0.01,0.02
215.69,-1.09,-1.10,-1.08,-1.09,1.09,0.88,1.23,0.00,0.00,0.01
217.85,-1.09,-1.10,-1.09,-1.09,1.09,0.88,1.24,-0.00,-0.00,0.01
220.03,-1.09,-1.09,-1.09,-1.09,1.09,0.88,1.25,0.00,-0.00,-0.00
222.23,-1.10,-1.10,-1.09,-1.09,1.10,0.88,1.26,-0.00,0.00,-0.00
224.45,-1.10,-1.10,-1.09,-1.08,1.10,0.88,1.28,0.00,0.02,-0.00
226.70,-1.09,-1.09,-1.10,-1.09,1.11,0.89,1.29,0.02,0.02,-0.00
228.96,-1.09,-1.09,-1.12,-1.12,1.12,0.89,1.30,0.04,0.00,-0.00
231.25,-1.18,-1.19,-1.15,-1.15,1.14,0.89,1.31,-0.04,-0.01,0.01
233.57,-1.19,-1.20,-1.17,-1.18,1.16,0.90,1.32,-0.03,-0.01,0.01
235.90,-1.16,-1.18,-1.17,-1.18,1.18,0.90,1.32,0.02,0.01,0.02
238.26,-1.14,-1.17,-1.15,-1.18,1.20,0.91,1.33,0.06,0.05,0.03
240.64,-1.15,-1.20,-1.16,-1.20,1.22,0.91,1.34,0.07,0.06,0.05
243.05,-1.19,-1.25,-1.18,-1.23,1.23,0.92,1.34,0.04,0.05,0.06
245.48,-1.20,-1.27,-1.19,-1.25,1.23,0.93,1.34,0.03,0.05,0.07
247.93,-1.17,-1.25,-1.18,-1.25,1.23,0.93,1.34,0.06,0.06,0.08
250.41,-1.15,-1.24,-1.15,-1.24,1.23,0.94,1.34,0.08,0.08,0.09
252.92,-1.13,-1.23,-1.13,-1.22,1.23,0.95,1.34,0.10,0.10,0.10
255.45,-1.12,-1.22,-1.12,-1.22,1.23,0.96,1.34,0.11,0.11,0.10
258.00,-1.11,-1.21,-1.11,-1.21,1.22,0.97,1.33,0.11,0.11,0.10
260.58,-1.11,-1.21,-1.11,-1.21,1.21,0.98,1.33,0.10,0.10,0.10
263.19,-1.11,-1.21,-1.11,-1.20,1.21,0.99,1.32,0.10,0.10,0.10
265.82,-1.11,-1.21,-1.11,-1.20,1.21,1.00,1.31,0.10,0.10,0.10
268.48,-1.11,-1.21,-1.11,-1.21,1.21,1.01,1.31,0.10,0.10,0.10
271.16,-1.11,-1.21,-1.11,-1.21,1.21,1.02,1.30,0.10,0.09,0.10
273.87,-1.12,-1.22,-1.12,-1.21,1.21,1.03,1.29,0.09,0.09,0.10
276.61,-1.12,-1.22,-1.12,-1.22,1.21,1.04,1.27,0.09,0.09,0.10
279.38,-1.12,-1.22,-1.12,-1.22,1.21,1.06,1.26,0.09,0.09,0.10
282.17,-1.12,-1.23,-1.12,-1.22,1.22,1.07,1.25,0.11,0.11,0.11
284.99,-1.11,-1.23,-1.10,-1.21,1.24,1.08,1.24,0.13,0.14,0.12
287.84,-1.10,-1.22,-1.10,-1.22,1.25,1.09,1.22,0.15,0.15,0.12
290.72,-1.09,-1.22,-1.12,-1.25,1.26,1.11,1.21,0.17,0.14,0.13
293.63,-1.18,-1.32,-1.15,-1.29,1.28,1.12,1.19,0.10,0.12,0.14
296.57,-1.19,-1.34,-1.17,-1.31,1.29,1.13,1.18,0.10,0.12,0.15
299.53,-1.16,-1.31,-1.17,-1.32,1.30,1.15,1.16,0.14,0.13,0.15
302.53,-1.14,-1.30,-1.14,-1.30,1.30,1.16,1.15,0.16,0.16,0.16
305.55,-1.13,-1.29,-1.13,-1.29,1.30,1.17,1.14,0.17,0.17,0.16
308.61,-1.12,-1.28,-1.12,-1.28,1.29,1.19,1.12,0.17,0.17,0.16
311.69,-1.12,-1.28,-1.12,-1.28,1.26,1.20,1.11,0.15,0.14,0.16
314.81,-1.11,-1.26,-1.11,-1.26,1.24,1.21,1.10,0.13,0.13,0.15
317.96,-1.11,-1.26,-1.08,-1.23,1.21,1.22,1.08,0.10,0.13,0.15
321.14,-1.05,-1.19,-1.04,-1.18,1.19,1.23,1.07,0.14,0.14,0.14
324.35,-0.98,-1.12,-1.01,-1.15,1.16,1.24,1.06,0.18,0.15,0.14
327.59,-1.00,-1.13,-0.99,-1.12,1.14,1.25,1.05,0.14,0.14,0.13
330.87,-1.01,-1.13,-1.00,-1.12,1.12,1.26,1.04,0.11,0.12,0.12
334.18,-1.02,-1.13,-1.02,-1.12,1.12,1.27,1.03,0.10,0.10,0.11
337.52,-1.02,-1.12,-1.00,-1.10,1.13,1.28,1.02,0.11,0.13,0.10
340.90,-1.01,-1.11,-1.01,-1.11,1.15,1.28,1.01,0.14,0.14,0.10
344.30,-1.01,-1.10,-1.07,-1.15,1.18,1.29,1.01,0.17,0.11,0.09
347.75,-1.17,-1.24,-1.14,-1.21,1.20,1.29,1.00,0.03,0.06,0.07
351.23,-1.24,-1.30,-1.20,-1.26,1.22,1.29,0.99,-0.02,0.01,0.06
354.74,-1.23,-1.28,-1.24,-1.29,1.23,1.29,0.99,0.00,-0.01,0.05
358.28,-1.21,-1.25,-1.22,-1.26,1.24,1.29,0.98,0.03,0.01,0.04
361.87,-1.21,-1.24,-1.20,-1.23,1.24,1.29,0.98,0.03,0.03,0.03
365.49,-1.20,-1.21,-1.20,-1.21,1.22,1.29,0.98,0.02,0.03,0.01
369.14,-1.19,-1.19,-1.19,-1.19,1.20,1.29,0.98,0.01,0.01,-0.00
372.83,-1.19,-1.18,-1.19,-1.17,1.17,1.28,0.97,-0.02,-0.01,-0.01
376.56,-1.18,-1.16,-1.18,-1.15,1.15,1.27,0.97,-0.03,-0.03,-0.02
380.33,-1.17,-1.14,-1.17,-1.14,1.14,1.27,0.97,-0.03,-0.03,-0.03
384.13,-1.16,-1.12,-1.15,-1.11,1.14,1.26,0.97,-0.02,-0.02,-0.04
387.97,-1.16,-1.11,-1.16,-1.10,1.14,1.25,0.98,-0.02,-0.02,-0.05
391.85,-1.16,-1.10,-1.18,-1.12,1.14,1.23,0.98,-0.02,-0.05,-0.06
395.77,-1.23,-1.16,-1.23,-1.15,1.14,1.22,0.98,-0.09,-0.08,-0.07
399.73,-1.29,-1.21,-1.26,-1.18,1.15,1.21,0.98,-0.14,-0.11,-0.08
403.72,-1.28,-1.19,-1.28,-1.18,1.15,1.19,0.99,-0.13,-0.13,-0.09
407.76,-1.26,-1.15,-1.27,-1.16,1.15,1.18,0.99,-0.11,-0.12,-0.11
411.84,-1.26,-1.14,-1.26,-1.14,1.15,1.16,0.99,-0.11,-0.11,-0.12
415.96,-1.27,-1.14,-1.26,-1.13,1.15,1.14,1.00,-0.12,-0.11,-0.13
420.12,-1.26,-1.13,-1.26,-1.12,1.13,1.12,1.00,-0.12,-0.13,-0.13
424.32,-1.26,-1.12,-1.26,-1.12,1.12,1.10,1.01,-0.14,-0.14,-0.14
428.56,-1.25,-1.11,-1.25,-1.11,1.11,1.08,1.01,-0.14,-0.14,-0.14
432.85,-1.24,-1.11,-1.23,-1.10,1.09,1.06,1.01,-0.15,-0.14,-0.13
437.18,-1.21,-1.09,-1.21,-1.09,1.07,1.04,1.02,-0.14,-0.13,-0.12
441.55,-1.17,-1.07,-1.17,-1.07,1.06,1.02,1.02,-0.11,-0.12,-0.10
445.96,-1.13,-1.05,-1.13,-1.05,1.04,1.00,1.03,-0.09,-0.09,-0.08
450.42,-1.08,-1.03,-1.08,-1.03,1.03,0.98,1.03,-0.05,-0.05,-0.05
454.93,-1.02,-1.01,-1.01,-0.99,1.02,0.96,1.03,0.01,0.02,-0.01
459.48,-0.96,-0.99,-0.96,-0.98,1.02,0.94,1.03,0.06,0.06,0.03
