frequency,raw,error,smoothed,error_smoothed,equalization,parametric_eq,fixed_band_eq,equalized_raw,equalized_smoothed,target
20.00,15.95,12.80,15.95,12.80,-12.78,-12.75,-6.07,3.17,3.17,3.15
20.20,15.95,12.81,15.95,12.81,-12.81,-12.75,-6.22,3.14,3.14,3.14
20.40,15.95,12.83,15.95,12.83,-12.84,-12.75,-6.37,3.11,3.11,3.12
20.61,15.95,12.84,15.95,12.84,-12.86,-12.75,-6.53,3.09,3.09,3.11
20.81,15.95,12.86,15.95,12.86,-12.87,-12.75,-6.69,3.08,3.08,3.09
21.02,15.95,12.87,15.95,12.87,-12.88,-12.74,-6.85,3.07,3.07,3.08
21.23,15.95,12.88,15.95,12.88,-12.89,-12.74,-7.02,3.06,3.06,3.07
21.44,15.95,12.89,15.95,12.89,-12.89,-12.74,-7.19,3.06,3.06,3.06
21.66,15.94,12.90,15.95,12.90,-12.89,-12.73,-7.37,3.05,3.06,3.04
21.87,15.94,12.90,15.93,12.90,-12.88,-12.73,-7.55,3.06,3.05,3.04
22.09,15.92,12.89,15.91,12.89,-12.87,-12.73,-7.74,3.05,3.04,3.03
22.31,15.88,12.86,15.88,12.86,-12.85,-12.72,-7.93,3.03,3.03,3.02
22.54,15.84,12.83,15.84,12.83,-12.83,-12.72,-8.12,3.01,3.00,3.01
22.76,15.80,12.80,15.80,12.80,-12.81,-12.71,-8.32,2.99,2.98,3.00
22.99,15.76,12.76,15.77,12.78,-12.80,-12.71,-8.53,2.96,2.97,3.00
23.22,15.76,12.77,15.76,12.77,-12.78,-12.70,-8.74,2.98,2.98,2.99
23.45,15.76,12.77,15.76,12.77,-12.77,-12.70,-8.96,2.99,2.98,2.99
23.69,15.76,12.77,15.76,12.77,-12.77,-12.69,-9.18,2.99,2.99,2.99
23.92,15.76,12.77,15.76,12.77,-12.77,-12.68,-9.41,2.99,2.99,2.99
24.16,15.76,12.77,15.76,12.77,-12.77,-12.68,-9.65,2.99,2.99,2.99
24.40,15.76,12.77,15.76,12.77,-12.77,-12.67,-9.89,2.99,2.99,2.99
24.65,15.76,12.77,15.76,12.77,-12.77,-12.66,-10.13,2.99,3.00,2.99
24.89,15.76,12.77,15.76,12.77,-12.76,-12.66,-10.38,3.00,3.00,2.99
25.14,15.75,12.76,15.74,12.75,-12.75,-12.65,-10.64,3.00,3.00,2.99
25.39,15.72,12.73,15.72,12.74,-12.73,-12.64,-10.90,2.99,2.99,2.99
25.65,15.69,12.71,15.69,12.71,-12.71,-12.63,-11.16,2.98,2.98,2.98
25.91,15.67,12.69,15.67,12.69,-12.69,-12.62,-11.43,2.98,2.98,2.98
26.16,15.64,12.67,15.64,12.67,-12.67,-12.61,-11.70,2.97,2.97,2.97
26.43,15.62,12.65,15.61,12.65,-12.65,-12.60,-11.98,2.97,2.96,2.97
26.69,15.59,12.63,15.59,12.63,-12.64,-12.59,-12.25,2.95,2.95,2.96
26.96,15.56,12.61,15.57,12.62,-12.63,-12.58,-12.53,2.93,2.94,2.95
27.23,15.56,12.61,15.56,12.61,-12.63,-12.57,-12.81,2.93,2.93,2.95
27.50,15.56,12.62,15.56,12.62,-12.63,-12.56,-13.09,2.93,2.93,2.94
27.77,15.56,12.63,15.56,12.63,-12.63,-12.55,-13.36,2.93,2.93,2.93
28.05,15.56,12.64,15.56,12.63,-12.63,-12.54,-13.63,2.93,2.93,2.92
28.33,15.55,12.63,15.55,12.64,-12.62,-12.53,-13.89,2.93,2.93,2.92
28.62,15.54,12.62,15.54,12.63,-12.61,-12.52,-14.14,2.93,2.94,2.92
28.90,15.53,12.62,15.52,12.61,-12.59,-12.51,-14.38,2.94,2.94,2.91
29.19,15.50,12.58,15.49,12.58,-12.57,-12.49,-14.60,2.93,2.93,2.92
29.48,15.45,12.53,15.45,12.53,-12.54,-12.48,-14.81,2.91,2.91,2.92
29.78,15.41,12.49,15.41,12.49,-12.52,-12.47,-14.99,2.89,2.89,2.92
30.08,15.37,12.45,15.38,12.46,-12.49,-12.45,-15.15,2.88,2.89,2.92
30.38,15.37,12.45,15.37,12.45,-12.47,-12.44,-15.28,2.90,2.90,2.92
30.68,15.37,12.45,15.37,12.45,-12.45,-12.43,-15.39,2.92,2.92,2.92
30.99,15.37,12.45,15.36,12.44,-12.42,-12.41,-15.46,2.94,2.94,2.92
31.30,15.34,12.42,15.34,12.42,-12.40,-12.40,-15.51,2.94,2.94,2.92
31.61,15.31,12.39,15.32,12.40,-12.39,-12.38,-15.52,2.92,2.93,2.92
31.93,15.29,12.37,15.29,12.37,-12.37,-12.37,-15.50,2.92,2.92,2.92
32.24,15.26,12.35,15.25,12.34,-12.35,-12.35,-15.45,2.91,2.90,2.91
32.57,15.22,12.31,15.22,12.31,-12.33,-12.33,-15.38,2.89,2.89,2.91
32.89,15.19,12.28,15.19,12.29,-12.31,-12.32,-15.28,2.88,2.89,2.91
33.22,15.18,12.27,15.18,12.28,-12.29,-12.30,-15.16,2.89,2.90,2.91
33.55,15.18,12.27,15.18,12.28,-12.26,-12.28,-15.02,2.92,2.92,2.91
33.89,15.18,12.28,15.17,12.27,-12.24,-12.27,-14.87,2.94,2.93,2.90
34.23,15.15,12.25,15.14,12.24,-12.21,-12.25,-14.70,2.94,2.93,2.90
34.57,15.09,12.19,15.09,12.20,-12.19,-12.23,-14.53,2.90,2.90,2.90
34.92,15.04,12.14,15.05,12.15,-12.17,-12.21,-14.34,2.87,2.88,2.90
35.27,15.02,12.12,15.02,12.12,-12.15,-12.19,-14.15,2.86,2.86,2.90
35.62,15.01,12.11,15.00,12.11,-12.13,-12.17,-13.96,2.88,2.87,2.90
35.97,14.99,12.10,15.00,12.10,-12.11,-12.15,-13.77,2.88,2.89,2.89
36.33,14.99,12.10,15.00,12.11,-12.08,-12.13,-13.58,2.91,2.91,2.89
36.70,14.99,12.10,14.99,12.10,-12.06,-12.11,-13.39,2.93,2.93,2.89
37.06,14.98,12.09,14.96,12.07,-12.04,-12.09,-13.20,2.94,2.92,2.89
37.43,14.91,12.03,14.91,12.03,-12.02,-12.07,-13.02,2.89,2.89,2.88
37.81,14.84,11.96,14.85,11.98,-12.00,-12.05,-12.84,2.83,2.85,2.88
38.19,14.80,11.93,14.81,11.94,-11.99,-12.03,-12.67,2.81,2.82,2.87
38.57,14.80,11.94,14.79,11.93,-11.97,-12.00,-12.50,2.83,2.82,2.86
38.95,14.80,11.95,14.80,11.95,-11.95,-11.98,-12.34,2.85,2.85,2.85
39.34,14.80,11.95,14.80,11.96,-11.93,-11.96,-12.19,2.87,2.88,2.85
39.74,14.80,11.96,14.79,11.96,-11.91,-11.94,-12.04,2.89,2.89,2.84
40.14,14.77,11.94,14.75,11.92,-11.89,-11.91,-11.90,2.88,2.86,2.83
40.54,14.70,11.88,14.70,11.88,-11.88,-11.89,-11.77,2.82,2.82,2.82
40.94,14.62,11.80,14.64,11.83,-11.86,-11.86,-11.64,2.76,2.78,2.82
41.35,14.61,11.79,14.61,11.79,-11.84,-11.84,-11.53,2.77,2.77,2.82
41.76,14.61,11.79,14.60,11.78,-11.81,-11.81,-11.42,2.80,2.79,2.82
42.18,14.61,11.79,14.62,11.80,-11.78,-11.79,-11.32,2.83,2.84,2.82
42.60,14.61,11.79,14.61,11.79,-11.75,-11.76,-11.22,2.86,2.86,2.82
43.03,14.60,11.78,14.57,11.75,-11.72,-11.73,-11.14,2.88,2.85,2.82
43.46,14.52,11.70,14.52,11.69,-11.69,-11.71,-11.06,2.83,2.83,2.82
43.90,14.43,11.60,14.46,11.63,-11.65,-11.68,-10.99,2.78,2.80,2.83
44.33,14.41,11.58,14.42,11.59,-11.61,-11.65,-10.92,2.80,2.81,2.83
44.78,14.41,11.58,14.39,11.56,-11.57,-11.63,-10.87,2.84,2.83,2.83
45.23,14.38,11.55,14.36,11.54,-11.53,-11.60,-10.82,2.85,2.84,2.83
45.68,14.31,11.48,14.32,11.49,-11.49,-11.57,-10.78,2.82,2.83,2.83
46.13,14.26,11.43,14.27,11.44,-11.45,-11.54,-10.74,2.81,2.82,2.83
46.60,14.24,11.41,14.24,11.41,-11.42,-11.51,-10.72,2.82,2.81,2.83
47.06,14.22,11.39,14.22,11.39,-11.39,-11.48,-10.69,2.83,2.83,2.83
47.53,14.20,11.37,14.20,11.38,-11.36,-11.45,-10.68,2.84,2.84,2.83
48.01,14.18,11.36,14.16,11.34,-11.33,-11.42,-10.67,2.85,2.83,2.82
48.49,14.12,11.30,14.12,11.30,-11.30,-11.39,-10.67,2.82,2.81,2.82
48.97,14.05,11.24,14.07,11.26,-11.27,-11.36,-10.68,2.78,2.81,2.81
49.46,14.04,11.23,14.04,11.23,-11.23,-11.32,-10.69,2.81,2.81,2.81
49.96,14.03,11.22,14.02,11.21,-11.20,-11.29,-10.70,2.83,2.82,2.81
50.46,13.99,11.18,13.99,11.18,-11.16,-11.26,-10.72,2.83,2.83,2.81
50.96,13.94,11.12,13.94,11.12,-11.13,-11.22,-10.74,2.81,2.81,2.82
51.47,13.89,11.07,13.89,11.07,-11.09,-11.19,-10.77,2.79,2.79,2.82
51.99,13.84,11.02,13.86,11.04,-11.06,-11.16,-10.81,2.78,2.80,2.82
52.51,13.84,11.03,13.84,11.03,-11.03,-11.12,-10.84,2.81,2.81,2.81
53.03,13.84,11.03,13.82,11.01,-10.99,-11.09,-10.88,2.85,2.83,2.81
53.56,13.78,10.97,13.78,10.98,-10.95,-11.05,-10.92,2.82,2.83,2.81
54.10,13.73,10.92,13.73,10.92,-10.92,-11.02,-10.96,2.81,2.82,2.81
54.64,13.68,10.87,13.68,10.87,-10.88,-10.98,-11.00,2.80,2.80,2.81
55.18,13.64,10.83,13.64,10.84,-10.84,-10.94,-11.04,2.80,2.80,2.81
55.74,13.61,10.80,13.60,10.80,-10.80,-10.91,-11.08,2.81,2.81,2.81
56.29,13.57,10.76,13.56,10.75,-10.76,-10.87,-11.12,2.81,2.80,2.81
56.86,13.51,10.70,13.51,10.71,-10.72,-10.83,-11.15,2.79,2.80,2.81
57.42,13.47,10.66,13.48,10.67,-10.68,-10.80,-11.18,2.79,2.80,2.81
58.00,13.45,10.64,13.45,10.65,-10.65,-10.76,-11.21,2.80,2.81,2.81
58.58,13.44,10.63,13.43,10.62,-10.61,-10.72,-11.22,2.83,2.82,2.81
59.16,13.41,10.60,13.39,10.58,-10.57,-10.68,-11.24,2.84,2.82,2.81
59.76,13.33,10.52,13.35,10.54,-10.53,-10.64,-11.24,2.80,2.82,2.81
60.35,13.29,10.48,13.30,10.48,-10.48,-10.60,-11.24,2.80,2.81,2.81
60.96,13.26,10.44,13.25,10.44,-10.44,-10.56,-11.22,2.82,2.81,2.82
61.57,13.21,10.39,13.21,10.39,-10.39,-10.52,-11.20,2.82,2.82,2.82
62.18,13.16,10.34,13.15,10.34,-10.34,-10.48,-11.17,2.82,2.82,2.82
62.80,13.09,10.28,13.10,10.28,-10.29,-10.44,-11.13,2.80,2.81,2.81
63.43,13.04,10.23,13.04,10.23,-10.24,-10.39,-11.08,2.80,2.80,2.81
64.07,12.99,10.19,12.98,10.18,-10.19,-10.35,-11.02,2.79,2.79,2.80
64.71,12.94,10.14,12.94,10.15,-10.15,-10.31,-10.95,2.79,2.80,2.80
65.35,12.90,10.11,12.91,10.12,-10.11,-10.27,-10.87,2.79,2.80,2.79
66.01,12.88,10.09,12.87,10.08,-10.07,-10.22,-10.78,2.81,2.80,2.79
66.67,12.82,10.04,12.81,10.03,-10.03,-10.18,-10.68,2.79,2.78,2.78
67.33,12.76,9.98,12.76,9.98,-10.00,-10.14,-10.58,2.76,2.76,2.78
68.01,12.69,9.92,12.71,9.94,-9.96,-10.09,-10.47,2.73,2.75,2.77
68.69,12.69,9.92,12.69,9.92,-9.92,-10.05,-10.35,2.77,2.77,2.77
69.37,12.67,9.91,12.66,9.90,-9.88,-10.00,-10.23,2.79,2.78,2.76
70.07,12.64,9.88,12.61,9.86,-9.84,-9.95,-10.11,2.80,2.78,2.76
70.77,12.53,9.78,12.55,9.80,-9.79,-9.91,-9.98,2.74,2.76,2.75
71.48,12.48,9.73,12.49,9.74,-9.75,-9.86,-9.85,2.73,2.74,2.75
72.19,12.44,9.70,12.43,9.69,-9.71,-9.82,-9.73,2.73,2.72,2.74
72.91,12.39,9.65,12.38,9.64,-9.66,-9.77,-9.60,2.73,2.72,2.74
73.64,12.33,9.59,12.35,9.61,-9.61,-9.72,-9.47,2.72,2.74,2.74
74.38,12.30,9.56,12.30,9.56,-9.55,-9.67,-9.34,2.74,2.75,2.74
75.12,12.28,9.54,12.25,9.52,-9.50,-9.63,-9.21,2.77,2.75,2.74
75.87,12.19,9.46,12.20,9.47,-9.45,-9.58,-9.09,2.73,2.74,2.73
76.63,12.13,9.40,12.14,9.41,-9.41,-9.53,-8.96,2.72,2.73,2.73
77.40,12.08,9.35,12.07,9.35,-9.36,-9.48,-8.84,2.72,2.71,2.73
78.17,12.03,9.30,12.02,9.29,-9.31,-9.43,-8.73,2.72,2.71,2.73
78.95,11.97,9.24,11.98,9.25,-9.26,-9.38,-8.62,2.71,2.71,2.73
79.74,11.93,9.20,11.94,9.22,-9.21,-9.33,-8.51,2.72,2.73,2.73
80.54,11.92,9.19,11.91,9.18,-9.16,-9.28,-8.41,2.75,2.74,2.73
81.35,11.88,9.15,11.86,9.13,-9.12,-9.23,-8.31,2.76,2.75,2.73
82.16,11.79,9.06,11.80,9.08,-9.07,-9.18,-8.22,2.72,2.74,2.73
82.98,11.73,9.01,11.73,9.01,-9.01,-9.13,-8.13,2.71,2.72,2.72
83.81,11.68,8.96,11.67,8.95,-8.96,-9.07,-8.05,2.72,2.71,2.72
84.65,11.62,8.90,11.62,8.91,-8.91,-9.02,-7.97,2.71,2.71,2.72
85.50,11.57,8.86,11.57,8.85,-8.86,-8.97,-7.90,2.71,2.71,2.71
86.35,11.51,8.80,11.51,8.80,-8.81,-8.92,-7.83,2.70,2.70,2.71
87.22,11.45,8.75,11.45,8.75,-8.76,-8.86,-7.77,2.69,2.69,2.70
88.09,11.40,8.70,11.40,8.71,-8.72,-8.81,-7.71,2.68,2.68,2.70
88.97,11.35,8.66,11.37,8.68,-8.68,-8.76,-7.66,2.67,2.69,2.69
89.86,11.35,8.67,11.32,8.64,-8.64,-8.70,-7.62,2.71,2.69,2.68
90.76,11.28,8.60,11.28,8.60,-8.59,-8.65,-7.58,2.69,2.69,2.68
91.66,11.21,8.54,11.23,8.56,-8.55,-8.59,-7.54,2.66,2.68,2.67
92.58,11.17,8.51,11.16,8.50,-8.49,-8.54,-7.51,2.68,2.67,2.66
93.51,11.11,8.46,11.10,8.45,-8.44,-8.49,-7.49,2.67,2.66,2.65
94.44,11.02,8.38,11.04,8.40,-8.39,-8.43,-7.47,2.63,2.65,2.64
95.39,10.96,8.33,10.95,8.32,-8.34,-8.37,-7.46,2.62,2.62,2.63
96.34,10.89,8.27,10.87,8.26,-8.28,-8.32,-7.45,2.61,2.59,2.62
97.30,10.78,8.18,10.81,8.21,-8.23,-8.26,-7.44,2.55,2.58,2.60
98.28,10.76,8.17,10.76,8.17,-8.18,-8.21,-7.44,2.58,2.58,2.59
99.26,10.73,8.16,10.71,8.15,-8.13,-8.15,-7.45,2.60,2.58,2.57
100.25,10.66,8.11,10.66,8.11,-8.08,-8.09,-7.45,2.58,2.58,2.55
101.25,10.59,8.06,10.58,8.05,-8.03,-8.04,-7.46,2.56,2.55,2.53
102.27,10.47,7.96,10.48,7.97,-7.97,-7.98,-7.48,2.50,2.51,2.51
103.29,10.39,7.90,10.39,7.91,-7.91,-7.92,-7.49,2.48,2.48,2.49
104.32,10.31,7.84,10.30,7.84,-7.85,-7.86,-7.51,2.46,2.45,2.47
105.37,10.23,7.79,10.22,7.78,-7.79,-7.80,-7.53,2.44,2.43,2.44
106.42,10.13,7.71,10.14,7.72,-7.73,-7.75,-7.55,2.40,2.41,2.42
107.48,10.05,7.65,10.05,7.66,-7.66,-7.69,-7.58,2.39,2.39,2.40
108.56,9.99,7.61,9.98,7.60,-7.60,-7.63,-7.60,2.39,2.38,2.38
109.64,9.91,7.55,9.92,7.56,-7.55,-7.57,-7.62,2.36,2.37,2.36
110.74,9.86,7.51,9.84,7.50,-7.49,-7.51,-7.64,2.37,2.36,2.35
111.85,9.77,7.44,9.77,7.44,-7.43,-7.45,-7.66,2.34,2.34,2.33
112.97,9.67,7.35,9.69,7.37,-7.37,-7.39,-7.68,2.30,2.32,2.32
114.10,9.62,7.31,9.61,7.30,-7.31,-7.33,-7.69,2.31,2.29,2.31
115.24,9.54,7.24,9.55,7.25,-7.25,-7.27,-7.70,2.29,2.29,2.30
116.39,9.48,7.19,9.49,7.20,-7.19,-7.21,-7.71,2.29,2.30,2.29
117.55,9.44,7.15,9.42,7.13,-7.13,-7.15,-7.71,2.31,2.29,2.29
118.73,9.35,7.07,9.35,7.07,-7.07,-7.09,-7.71,2.28,2.28,2.28
119.92,9.27,6.99,9.28,7.01,-7.01,-7.03,-7.70,2.26,2.28,2.28
121.12,9.22,6.95,9.22,6.94,-6.95,-6.97,-7.68,2.27,2.27,2.27
122.33,9.17,6.90,9.16,6.89,-6.90,-6.91,-7.66,2.27,2.27,2.27
123.55,9.11,6.83,9.12,6.84,-6.84,-6.84,-7.63,2.27,2.27,2.28
124.79,9.07,6.79,9.06,6.78,-6.80,-6.78,-7.59,2.27,2.26,2.28
126.03,9.01,6.74,9.00,6.73,-6.75,-6.72,-7.54,2.26,2.26,2.27
127.29,8.95,6.67,8.97,6.70,-6.70,-6.66,-7.49,2.25,2.28,2.28
128.57,8.93,6.65,8.93,6.65,-6.65,-6.60,-7.43,2.28,2.29,2.28
129.85,8.93,6.65,8.89,6.61,-6.59,-6.53,-7.36,2.34,2.30,2.28
131.15,8.81,6.53,8.84,6.56,-6.53,-6.47,-7.29,2.28,2.31,2.28
132.46,8.76,6.48,8.75,6.48,-6.47,-6.41,-7.21,2.29,2.29,2.28
133.79,8.68,6.41,8.66,6.39,-6.40,-6.35,-7.12,2.27,2.26,2.27
135.12,8.57,6.30,8.60,6.33,-6.34,-6.28,-7.03,2.23,2.26,2.27
136.48,8.52,6.25,8.52,6.26,-6.27,-6.22,-6.93,2.25,2.25,2.27
137.84,8.48,6.22,8.45,6.19,-6.20,-6.16,-6.83,2.28,2.24,2.26
139.22,8.38,6.12,8.39,6.14,-6.13,-6.09,-6.72,2.25,2.26,2.26
140.61,8.30,6.05,8.33,6.08,-6.06,-6.03,-6.62,2.23,2.27,2.25
142.02,8.29,6.05,8.26,6.02,-6.00,-5.97,-6.50,2.29,2.26,2.24
143.44,8.20,5.97,8.18,5.95,-5.93,-5.90,-6.39,2.26,2.25,2.23
144.87,8.07,5.84,8.09,5.87,-5.87,-5.84,-6.27,2.20,2.22,2.23
146.32,8.00,5.78,8.00,5.79,-5.81,-5.77,-6.16,2.19,2.19,2.22
147.78,7.93,5.73,7.93,5.73,-5.75,-5.71,-6.04,2.18,2.18,2.20
149.26,7.88,5.69,7.87,5.68,-5.69,-5.65,-5.92,2.19,2.18,2.19
150.75,7.82,5.64,7.82,5.64,-5.64,-5.58,-5.81,2.18,2.18,2.18
152.26,7.75,5.58,7.76,5.59,-5.59,-5.52,-5.69,2.16,2.17,2.17
153.78,7.72,5.55,7.71,5.54,-5.54,-5.45,-5.58,2.17,2.16,2.17
155.32,7.65,5.49,7.66,5.50,-5.50,-5.39,-5.46,2.15,2.16,2.16
156.88,7.62,5.47,7.61,5.46,-5.45,-5.32,-5.35,2.17,2.16,2.15
158.44,7.56,5.41,7.55,5.41,-5.40,-5.26,-5.24,2.16,2.15,2.15
160.03,7.48,5.34,7.49,5.35,-5.34,-5.19,-5.14,2.14,2.15,2.14
161.63,7.43,5.30,7.41,5.28,-5.28,-5.13,-5.03,2.15,2.14,2.13
163.24,7.33,5.21,7.34,5.22,-5.21,-5.06,-4.93,2.12,2.12,2.12
164.88,7.25,5.14,7.25,5.15,-5.14,-5.00,-4.83,2.11,2.11,2.11
166.53,7.17,5.07,7.16,5.06,-5.07,-4.93,-4.73,2.10,2.09,2.10
168.19,7.08,4.99,7.08,4.99,-5.00,-4.87,-4.64,2.08,2.08,2.09
169.87,6.98,4.90,6.99,4.91,-4.93,-4.80,-4.55,2.05,2.06,2.08
171.57,6.92,4.85,6.92,4.85,-4.86,-4.73,-4.46,2.06,2.06,2.07
173.29,6.85,4.79,6.85,4.79,-4.79,-4.67,-4.37,2.05,2.05,2.06
175.02,6.79,4.74,6.79,4.73,-4.73,-4.60,-4.29,2.06,2.05,2.05
176.77,6.72,4.67,6.72,4.68,-4.67,-4.54,-4.21,2.05,2.06,2.05
178.54,6.66,4.62,6.66,4.62,-4.61,-4.47,-4.14,2.05,2.05,2.04
180.32,6.61,4.57,6.59,4.55,-4.55,-4.41,-4.07,2.06,2.04,2.04
182.13,6.52,4.48,6.52,4.48,-4.49,-4.34,-4.00,2.03,2.03,2.04
183.95,6.44,4.40,6.45,4.42,-4.43,-4.27,-3.93,2.01,2.02,2.04
185.79,6.39,4.36,6.40,4.36,-4.37,-4.21,-3.87,2.02,2.03,2.03
187.65,6.36,4.32,6.34,4.31,-4.30,-4.14,-3.81,2.06,2.04,2.04
189.52,6.29,4.25,6.28,4.25,-4.23,-4.08,-3.75,2.06,2.05,2.04
191.42,6.21,4.17,6.22,4.18,-4.17,-4.01,-3.69,2.04,2.05,2.04
193.33,6.14,4.10,6.15,4.11,-4.11,-3.94,-3.64,2.03,2.04,2.04
195.27,6.10,4.05,6.08,4.04,-4.05,-3.88,-3.59,2.05,2.04,2.05
197.22,6.02,3.97,6.02,3.97,-3.99,-3.81,-3.54,2.03,2.03,2.05
199.19,5.95,3.90,5.96,3.91,-3.93,-3.74,-3.50,2.02,2.03,2.05
201.18,5.91,3.86,5.91,3.86,-3.87,-3.68,-3.45,2.04,2.03,2.05
203.19,5.87,3.82,5.87,3.82,-3.81,-3.61,-3.41,2.06,2.06,2.05
205.23,5.82,3.77,5.82,3.77,-3.75,-3.54,-3.37,2.07,2.07,2.05
207.28,5.77,3.72,5.75,3.71,-3.68,-3.48,-3.33,2.09,2.08,2.05
209.35,5.66,3.62,5.67,3.63,-3.60,-3.41,-3.29,2.06,2.07,2.04
211.44,5.58,3.54,5.57,3.53,-3.53,-3.35,-3.26,2.05,2.04,2.04
213.56,5.47,3.43,5.47,3.43,-3.45,-3.28,-3.22,2.01,2.01,2.04
215.69,5.37,3.34,5.38,3.35,-3.38,-3.21,-3.19,1.99,2.00,2.03
217.85,5.30,3.27,5.30,3.27,-3.31,-3.15,-3.16,1.99,1.99,2.03
220.03,5.24,3.22,5.25,3.23,-3.24,-3.08,-3.12,2.00,2.01,2.02
222.23,5.20,3.18,5.20,3.18,-3.17,-3.01,-3.09,2.03,2.03,2.02
224.45,5.18,3.16,5.16,3.14,-3.11,-2.95,-3.06,2.07,2.04,2.02
226.70,5.08,3.06,5.09,3.07,-3.05,-2.88,-3.02,2.03,2.04,2.02
228.96,5.02,3.00,5.01,2.99,-2.99,-2.82,-2.99,2.03,2.02,2.02
231.25,4.92,2.89,4.94,2.91,-2.92,-2.75,-2.95,2.00,2.02,2.03
233.57,4.87,2.84,4.88,2.85,-2.85,-2.68,-2.92,2.02,2.03,2.03
235.90,4.85,2.81,4.81,2.78,-2.77,-2.62,-2.88,2.08,2.04,2.04
238.26,4.74,2.70,4.75,2.70,-2.70,-2.55,-2.84,2.04,2.05,2.04
240.64,4.66,2.60,4.67,2.62,-2.63,-2.49,-2.80,2.02,2.04,2.06
243.05,4.62,2.55,4.61,2.55,-2.58,-2.42,-2.76,2.04,2.04,2.07
245.48,4.57,2.49,4.58,2.50,-2.52,-2.35,-2.72,2.05,2.06,2.08
247.93,4.56,2.47,4.54,2.45,-2.46,-2.29,-2.67,2.10,2.08,2.09
250.41,4.50,2.40,4.51,2.41,-2.40,-2.22,-2.62,2.10,2.12,2.10
252.92,4.47,2.36,4.47,2.36,-2.33,-2.16,-2.57,2.14,2.14,2.11
255.45,4.43,2.31,4.41,2.29,-2.26,-2.09,-2.52,2.17,2.15,2.12
258.00,4.33,2.21,4.33,2.21,-2.19,-2.03,-2.47,2.13,2.14,2.12
260.58,4.23,2.11,4.23,2.11,-2.13,-1.96,-2.41,2.10,2.10,2.12
263.19,4.13,2.01,4.13,2.02,-2.05,-1.90,-2.35,2.08,2.08,2.12
265.82,4.05,1.94,4.06,1.95,-1.98,-1.83,-2.29,2.07,2.08,2.11
268.48,4.01,1.90,4.00,1.90,-1.91,-1.77,-2.23,2.10,2.09,2.11
271.16,3.96,1.86,3.95,1.86,-1.84,-1.70,-2.17,2.12,2.12,2.10
273.87,3.88,1.79,3.89,1.80,-1.77,-1.64,-2.10,2.11,2.12,2.09
276.61,3.84,1.75,3.81,1.73,-1.71,-1.57,-2.03,2.12,2.10,2.09
279.38,3.72,1.63,3.73,1.64,-1.66,-1.51,-1.97,2.06,2.07,2.09
282.17,3.65,1.57,3.66,1.58,-1.60,-1.44,-1.90,2.05,2.06,2.08
284.99,3.59,1.51,3.60,1.52,-1.54,-1.38,-1.82,2.05,2.06,2.08
287.84,3.57,1.49,3.56,1.48,-1.47,-1.32,-1.75,2.10,2.09,2.08
290.72,3.50,1.43,3.50,1.43,-1.39,-1.25,-1.68,2.10,2.11,2.07
293.63,3.44,1.37,3.43,1.36,-1.33,-1.19,-1.61,2.11,2.10,2.07
296.57,3.33,1.26,3.34,1.26,-1.27,-1.12,-1.53,2.06,2.07,2.07
299.53,3.25,1.17,3.25,1.18,-1.21,-1.06,-1.46,2.04,2.04,2.08
302.53,3.18,1.10,3.18,1.11,-1.15,-1.00,-1.38,2.03,2.03,2.08
305.55,3.14,1.07,3.14,1.06,-1.09,-0.94,-1.31,2.05,2.05,2.07
308.61,3.09,1.02,3.10,1.03,-1.02,-0.87,-1.23,2.07,2.08,2.07
311.69,3.08,1.01,3.06,1.00,-0.96,-0.81,-1.15,2.12,2.10,2.07
314.81,3.00,0.94,3.00,0.93,-0.90,-0.75,-1.08,2.10,2.10,2.06
317.96,2.92,0.86,2.91,0.85,-0.84,-0.69,-1.00,2.08,2.06,2.06
321.14,2.80,0.74,2.81,0.76,-0.78,-0.62,-0.92,2.02,2.03,2.06
324.35,2.72,0.67,2.75,0.70,-0.72,-0.56,-0.85,2.00,2.03,2.05
327.59,2.71,0.67,2.68,0.64,-0.65,-0.50,-0.77,2.06,2.03,2.04
330.87,2.64,0.60,2.63,0.59,-0.59,-0.44,-0.69,2.05,2.04,2.04
334.18,2.54,0.50,2.57,0.53,-0.52,-0.38,-0.62,2.01,2.04,2.04
337.52,2.51,0.47,2.49,0.46,-0.46,-0.32,-0.54,2.05,2.03,2.04
340.90,2.44,0.41,2.44,0.41,-0.40,-0.26,-0.47,2.04,2.04,2.03
344.30,2.37,0.34,2.38,0.36,-0.34,-0.20,-0.39,2.03,2.04,2.03
347.75,2.33,0.30,2.31,0.29,-0.28,-0.14,-0.31,2.05,2.04,2.03
351.23,2.24,0.22,2.23,0.21,-0.21,-0.08,-0.24,2.03,2.02,2.02
354.74,2.15,0.13,2.16,0.14,-0.15,-0.02,-0.16,2.00,2.01,2.02
358.28,2.07,0.05,2.08,0.06,-0.08,0.04,-0.09,1.99,2.00,2.02
361.87,2.04,0.02,2.03,0.01,-0.02,0.10,-0.01,2.02,2.01,2.02
365.49,1.97,-0.05,1.98,-0.04,0.05,0.16,0.07,2.02,2.03,2.02
369.14,1.95,-0.07,1.93,-0.09,0.11,0.22,0.14,2.06,2.04,2.02
372.83,1.85,-0.17,1.86,-0.16,0.17,0.28,0.22,2.02,2.03,2.02
376.56,1.78,-0.24,1.78,-0.24,0.23,0.33,0.29,2.01,2.01,2.02
380.33,1.70,-0.31,1.70,-0.31,0.28,0.39,0.37,1.98,1.98,2.01
384.13,1.63,-0.38,1.65,-0.35,0.34,0.45,0.44,1.97,1.99,2.01
387.97,1.61,-0.39,1.60,-0.40,0.40,0.51,0.52,2.01,2.00,2.00
391.85,1.58,-0.41,1.55,-0.44,0.45,0.56,0.59,2.03,2.00,1.99
395.77,1.47,-0.51,1.49,-0.49,0.51,0.62,0.67,1.98,2.00,1.98
399.73,1.42,-0.55,1.41,-0.56,0.56,0.67,0.74,1.98,1.97,1.97
403.72,1.34,-0.62,1.33,-0.62,0.62,0.73,0.82,1.96,1.95,1.96
407.76,1.25,-0.69,1.27,-0.67,0.67,0.79,0.89,1.92,1.94,1.94
411.84,1.21,-0.72,1.20,-0.73,0.73,0.84,0.97,1.94,1.93,1.93
415.96,1.13,-0.79,1.12,-0.80,0.79,0.89,1.04,1.92,1.91,1.92
420.12,1.05,-0.86,1.05,-0.86,0.85,0.95,1.11,1.90,1.90,1.91
424.32,0.97,-0.94,0.99,-0.91,0.91,1.00,1.18,1.88,1.90,1.91
428.56,0.95,-0.96,0.95,-0.96,0.96,1.06,1.25,1.91,1.91,1.91
432.85,0.94,-0.98,0.91,-1.01,1.01,1.11,1.32,1.95,1.92,1.92
437.18,0.87,-1.07,0.88,-1.06,1.06,1.16,1.39,1.93,1.94,1.94
441.55,0.84,-1.12,0.84,-1.12,1.11,1.21,1.46,1.95,1.95,1.96
445.96,0.81,-1.18,0.82,-1.17,1.16,1.27,1.52,1.97,1.98,1.99
450.42,0.82,-1.21,0.82,-1.21,1.22,1.32,1.58,2.04,2.04,2.03
454.93,0.81,-1.26,0.81,-1.26,1.28,1.37,1.64,2.09,2.09,2.07
459.48,0.81,-1.31,0.79,-1.32,1.35,1.42,1.70,2.16,2.14,2.12
464.07,0.75,-1.41,0.75,-1.41,1.41,1.47,1.76,2.16,2.16,2.16
468.71,0.71,-1.50,0.71,-1.50,1.48,1.52,1.81,2.18,2.19,2.21
