frequency,raw,error,smoothed,error_smoothed,equalization,parametric_eq,fixed_band_eq,equalized_raw,equalized_smoothed,target
20.00,-12.54,-12.89,-12.54,-12.89,6.00,5.36,2.77,-6.54,-6.54,0.35
20.20,-12.40,-12.75,-12.40,-12.75,6.00,5.41,2.85,-6.40,-6.40,0.35
20.40,-12.26,-12.61,-12.25,-12.61,6.00,5.45,2.93,-6.26,-6.25,0.35
20.61,-12.12,-12.48,-12.12,-12.47,6.00,5.50,3.01,-6.12,-6.12,0.36
20.81,-11.98,-12.34,-11.98,-12.34,6.00,5.55,3.10,-5.98,-5.98,0.36
21.02,-11.84,-12.20,-11.85,-12.21,6.00,5.59,3.19,-5.84,-5.85,0.36
21.23,-11.74,-12.10,-11.74,-12.10,6.00,5.64,3.28,-5.74,-5.74,0.36
21.44,-11.64,-12.01,-11.64,-12.00,6.00,5.68,3.38,-5.64,-5.64,0.37
21.66,-11.54,-11.91,-11.54,-11.91,6.00,5.72,3.47,-5.54,-5.54,0.37
21.87,-11.44,-11.81,-11.44,-11.81,6.00,5.76,3.57,-5.44,-5.44,0.37
22.09,-11.33,-11.70,-11.33,-11.70,6.00,5.80,3.68,-5.33,-5.33,0.37
22.31,-11.22,-11.60,-11.22,-11.59,6.00,5.84,3.78,-5.22,-5.22,0.38
22.54,-11.11,-11.48,-11.11,-11.49,6.00,5.88,3.89,-5.11,-5.11,0.37
22.76,-11.00,-11.38,-11.01,-11.38,6.00,5.92,4.00,-5.00,-5.01,0.38
22.99,-10.90,-11.28,-10.89,-11.26,6.00,5.95,4.11,-4.90,-4.89,0.38
23.22,-10.75,-11.13,-10.75,-11.13,6.00,5.99,4.23,-4.75,-4.75,0.38
23.45,-10.60,-10.97,-10.60,-10.98,6.00,6.02,4.35,-4.60,-4.60,0.38
23.69,-10.45,-10.83,-10.45,-10.83,6.00,6.05,4.47,-4.45,-4.45,0.38
23.92,-10.31,-10.69,-10.31,-10.69,6.00,6.08,4.59,-4.31,-4.31,0.38
24.16,-10.19,-10.56,-10.19,-10.57,6.00,6.11,4.72,-4.19,-4.19,0.37
24.40,-10.09,-10.46,-10.08,-10.46,6.00,6.14,4.84,-4.09,-4.08,0.37
24.65,-9.99,-10.36,-9.98,-10.35,6.00,6.16,4.97,-3.99,-3.98,0.37
24.89,-9.88,-10.24,-9.89,-10.25,6.00,6.19,5.10,-3.88,-3.89,0.36
25.14,-9.80,-10.16,-9.80,-10.16,6.00,6.21,5.24,-3.80,-3.80,0.36
25.39,-9.73,-10.08,-9.73,-10.08,6.00,6.23,5.37,-3.73,-3.73,0.35
25.65,-9.66,-10.01,-9.66,-10.01,6.00,6.25,5.50,-3.66,-3.66,0.35
25.91,-9.60,-9.94,-9.59,-9.93,6.00,6.26,5.64,-3.60,-3.59,0.34
26.16,-9.50,-9.84,-9.50,-9.84,6.00,6.28,5.77,-3.50,-3.50,0.34
26.43,-9.40,-9.73,-9.40,-9.73,6.00,6.29,5.91,-3.40,-3.40,0.33
26.69,-9.30,-9.63,-9.30,-9.63,6.00,6.30,6.04,-3.30,-3.30,0.33
26.96,-9.20,-9.53,-9.21,-9.53,6.00,6.31,6.17,-3.20,-3.21,0.33
27.23,-9.12,-9.45,-9.12,-9.44,6.00,6.32,6.30,-3.12,-3.12,0.33
27.50,-9.04,-9.36,-9.04,-9.36,6.00,6.32,6.42,-3.04,-3.04,0.32
27.77,-8.96,-9.28,-8.96,-9.28,6.00,6.33,6.55,-2.96,-2.96,0.32
28.05,-8.89,-9.22,-8.89,-9.21,6.00,6.33,6.66,-2.89,-2.89,0.33
28.33,-8.82,-9.14,-8.82,-9.15,6.00,6.33,6.77,-2.82,-2.82,0.32
28.62,-8.75,-9.07,-8.75,-9.08,6.00,6.32,6.88,-2.75,-2.75,0.32
28.90,-8.68,-9.00,-8.67,-9.00,6.00,6.32,6.97,-2.68,-2.67,0.32
29.19,-8.58,-8.90,-8.57,-8.89,6.00,6.31,7.06,-2.58,-2.57,0.32
29.48,-8.45,-8.77,-8.45,-8.77,6.00,6.31,7.14,-2.45,-2.45,0.32
29.78,-8.32,-8.64,-8.33,-8.65,6.00,6.30,7.21,-2.32,-2.33,0.32
30.08,-8.21,-8.52,-8.22,-8.54,6.00,6.28,7.27,-2.21,-2.22,0.31
30.38,-8.14,-8.45,-8.13,-8.44,6.00,6.27,7.32,-2.14,-2.13,0.31
30.68,-8.06,-8.37,-8.06,-8.36,6.00,6.25,7.36,-2.06,-2.06,0.31
30.99,-7.98,-8.28,-7.98,-8.28,6.00,6.24,7.39,-1.98,-1.98,0.30
31.30,-7.91,-8.21,-7.92,-8.21,6.00,6.22,7.40,-1.91,-1.92,0.29
31.61,-7.84,-8.12,-7.84,-8.13,6.00,6.20,7.40,-1.84,-1.84,0.28
31.93,-7.77,-8.05,-7.75,-8.03,6.00,6.17,7.40,-1.77,-1.75,0.28
32.24,-7.64,-7.91,-7.64,-7.91,6.00,6.15,7.38,-1.64,-1.64,0.27
32.57,-7.50,-7.76,-7.50,-7.77,6.00,6.12,7.34,-1.50,-1.50,0.26
32.89,-7.36,-7.62,-7.37,-7.63,6.00,6.09,7.30,-1.36,-1.37,0.26
33.22,-7.26,-7.52,-7.26,-7.52,6.00,6.06,7.25,-1.26,-1.26,0.26
33.55,-7.18,-7.42,-7.17,-7.42,6.00,6.03,7.19,-1.18,-1.17,0.24
33.89,-7.10,-7.33,-7.10,-7.33,6.00,6.00,7.12,-1.10,-1.10,0.23
34.23,-7.02,-7.25,-7.03,-7.25,6.00,5.97,7.04,-1.02,-1.03,0.23
34.57,-6.94,-7.16,-6.95,-7.17,6.00,5.93,6.96,-0.94,-0.95,0.22
34.92,-6.86,-7.08,-6.84,-7.06,6.00,5.89,6.87,-0.86,-0.84,0.22
35.27,-6.72,-6.94,-6.70,-6.92,6.00,5.86,6.77,-0.72,-0.70,0.22
35.62,-6.56,-6.77,-6.56,-6.77,6.00,5.82,6.67,-0.56,-0.56,0.21
35.97,-6.40,-6.60,-6.44,-6.65,6.00,5.78,6.57,-0.40,-0.44,0.20
36.33,-6.38,-6.58,-6.38,-6.58,6.00,5.74,6.47,-0.38,-0.38,0.20
36.70,-6.36,-6.56,-6.35,-6.54,6.00,5.69,6.36,-0.36,-0.35,0.20
37.06,-6.33,-6.52,-6.31,-6.51,6.01,5.65,6.25,-0.32,-0.31,0.19
37.43,-6.24,-6.43,-6.25,-6.44,6.01,5.60,6.14,-0.23,-0.23,0.19
37.81,-6.16,-6.36,-6.16,-6.36,6.02,5.56,6.03,-0.14,-0.15,0.20
38.19,-6.08,-6.28,-6.08,-6.28,6.02,5.51,5.92,-0.06,-0.07,0.20
38.57,-6.01,-6.20,-6.01,-6.21,6.00,5.46,5.81,-0.01,-0.01,0.19
38.95,-5.94,-6.13,-5.93,-6.12,5.98,5.41,5.71,0.04,0.05,0.19
39.34,-5.84,-6.03,-5.84,-6.03,5.95,5.37,5.60,0.11,0.11,0.19
39.74,-5.74,-5.93,-5.74,-5.93,5.90,5.32,5.50,0.16,0.16,0.19
40.14,-5.64,-5.82,-5.65,-5.83,5.83,5.27,5.40,0.19,0.18,0.18
40.54,-5.56,-5.74,-5.56,-5.74,5.74,5.21,5.30,0.18,0.18,0.18
40.94,-5.48,-5.65,-5.47,-5.65,5.65,5.16,5.21,0.17,0.17,0.18
41.35,-5.39,-5.55,-5.39,-5.55,5.54,5.11,5.11,0.15,0.16,0.16
41.76,-5.29,-5.44,-5.29,-5.44,5.44,5.06,5.02,0.15,0.15,0.15
42.18,-5.20,-5.33,-5.19,-5.32,5.35,5.00,4.94,0.15,0.16,0.13
42.60,-5.10,-5.22,-5.10,-5.22,5.26,4.95,4.85,0.16,0.16,0.12
43.03,-5.01,-5.12,-5.04,-5.15,5.17,4.90,4.78,0.16,0.13,0.11
43.46,-5.01,-5.09,-5.01,-5.10,5.09,4.84,4.70,0.08,0.08,0.08
43.90,-5.01,-5.08,-4.98,-5.05,5.02,4.79,4.63,0.01,0.04,0.07
44.33,-4.94,-4.99,-4.93,-4.98,4.95,4.73,4.56,0.01,0.02,0.05
44.78,-4.84,-4.88,-4.86,-4.89,4.88,4.68,4.49,0.04,0.03,0.04
45.23,-4.77,-4.79,-4.79,-4.81,4.82,4.62,4.43,0.05,0.03,0.02
45.68,-4.74,-4.75,-4.73,-4.74,4.76,4.57,4.37,0.02,0.02,0.01
46.13,-4.70,-4.70,-4.68,-4.68,4.69,4.51,4.31,-0.01,0.01,0.00
46.60,-4.62,-4.62,-4.63,-4.62,4.63,4.46,4.26,0.00,-0.00,-0.00
47.06,-4.56,-4.55,-4.58,-4.57,4.57,4.40,4.21,0.01,-0.01,-0.01
47.53,-4.53,-4.51,-4.53,-4.52,4.51,4.34,4.16,-0.02,-0.02,-0.02
48.01,-4.51,-4.50,-4.48,-4.47,4.47,4.29,4.12,-0.04,-0.01,-0.01
48.49,-4.42,-4.41,-4.42,-4.41,4.42,4.23,4.07,-0.01,-0.00,-0.01
48.97,-4.33,-4.32,-4.37,-4.37,4.36,4.18,4.04,0.03,-0.01,-0.01
49.46,-4.33,-4.33,-4.33,-4.33,4.31,4.12,4.00,-0.02,-0.02,-0.00
49.96,-4.33,-4.33,-4.28,-4.28,4.26,4.07,3.97,-0.07,-0.02,-0.00
50.46,-4.22,-4.23,-4.22,-4.23,4.22,4.01,3.93,-0.00,-0.00,0.01
50.96,-4.11,-4.12,-4.15,-4.16,4.18,3.96,3.91,0.07,0.03,0.01
51.47,-4.10,-4.12,-4.10,-4.11,4.15,3.90,3.88,0.05,0.05,0.02
51.99,-4.10,-4.11,-4.09,-4.10,4.12,3.85,3.85,0.02,0.03,0.01
52.51,-4.10,-4.10,-4.10,-4.10,4.10,3.79,3.83,-0.00,0.00,-0.00
53.03,-4.10,-4.09,-4.10,-4.09,4.08,3.74,3.81,-0.02,-0.02,-0.01
53.56,-4.10,-4.08,-4.10,-4.08,4.07,3.68,3.78,-0.03,-0.03,-0.02
54.10,-4.10,-4.07,-4.10,-4.07,4.06,3.63,3.76,-0.04,-0.04,-0.03
54.64,-4.10,-4.05,-4.10,-4.05,4.06,3.58,3.74,-0.04,-0.04,-0.05
55.18,-4.10,-4.03,-4.10,-4.03,4.04,3.52,3.72,-0.06,-0.06,-0.07
55.74,-4.10,-4.01,-4.10,-4.01,4.02,3.47,3.70,-0.08,-0.08,-0.09
56.29,-4.10,-3.98,-4.10,-3.98,3.98,3.42,3.68,-0.12,-0.12,-0.12
56.86,-4.10,-3.96,-4.11,-3.97,3.93,3.36,3.66,-0.17,-0.18,-0.14
57.42,-4.10,-3.92,-4.10,-3.93,3.87,3.31,3.64,-0.23,-0.23,-0.18
58.00,-4.10,-3.89,-4.05,-3.84,3.82,3.26,3.62,-0.28,-0.24,-0.21
58.58,-3.97,-3.73,-3.98,-3.74,3.75,3.21,3.59,-0.22,-0.23,-0.24
59.16,-3.87,-3.60,-3.91,-3.64,3.69,3.16,3.57,-0.18,-0.22,-0.27
59.76,-3.87,-3.56,-3.86,-3.55,3.62,3.11,3.54,-0.25,-0.24,-0.31
60.35,-3.87,-3.53,-3.86,-3.52,3.54,3.06,3.51,-0.33,-0.32,-0.34
60.96,-3.87,-3.49,-3.88,-3.51,3.46,3.01,3.48,-0.41,-0.42,-0.38
61.57,-3.87,-3.47,-3.85,-3.45,3.39,2.96,3.45,-0.48,-0.46,-0.40
62.18,-3.83,-3.39,-3.79,-3.36,3.33,2.91,3.41,-0.50,-0.46,-0.44
62.80,-3.69,-3.22,-3.73,-3.25,3.27,2.86,3.37,-0.42,-0.45,-0.47
63.43,-3.65,-3.14,-3.67,-3.16,3.21,2.81,3.33,-0.44,-0.46,-0.51
64.07,-3.65,-3.10,-3.64,-3.09,3.14,2.77,3.29,-0.51,-0.50,-0.55
64.71,-3.65,-3.07,-3.66,-3.08,3.06,2.72,3.24,-0.59,-0.60,-0.58
65.35,-3.65,-3.03,-3.65,-3.03,2.99,2.67,3.20,-0.66,-0.66,-0.62
66.01,-3.65,-3.00,-3.60,-2.95,2.91,2.63,3.15,-0.74,-0.68,-0.65
66.67,-3.50,-2.82,-3.53,-2.85,2.84,2.58,3.10,-0.66,-0.68,-0.68
67.33,-3.42,-2.72,-3.46,-2.76,2.77,2.54,3.04,-0.65,-0.69,-0.70
68.01,-3.42,-2.69,-3.41,-2.68,2.70,2.49,2.99,-0.72,-0.71,-0.73
68.69,-3.40,-2.65,-3.36,-2.62,2.63,2.45,2.93,-0.78,-0.74,-0.75
69.37,-3.31,-2.55,-3.30,-2.54,2.55,2.40,2.87,-0.76,-0.76,-0.76
70.07,-3.19,-2.42,-3.24,-2.46,2.47,2.36,2.81,-0.72,-0.77,-0.77
70.77,-3.19,-2.40,-3.20,-2.41,2.40,2.32,2.75,-0.79,-0.80,-0.79
71.48,-3.19,-2.39,-3.16,-2.36,2.34,2.27,2.69,-0.85,-0.81,-0.80
72.19,-3.14,-2.33,-3.10,-2.29,2.29,2.23,2.63,-0.85,-0.81,-0.81
72.91,-2.98,-2.16,-3.03,-2.21,2.23,2.19,2.57,-0.75,-0.80,-0.82
73.64,-2.96,-2.13,-2.97,-2.14,2.17,2.15,2.50,-0.79,-0.80,-0.83
74.38,-2.96,-2.11,-2.96,-2.11,2.11,2.11,2.44,-0.85,-0.84,-0.85
75.12,-2.96,-2.10,-2.96,-2.10,2.05,2.07,2.38,-0.91,-0.91,-0.86
75.87,-2.96,-2.07,-2.92,-2.04,1.99,2.03,2.31,-0.97,-0.93,-0.89
76.63,-2.85,-1.94,-2.86,-1.95,1.94,1.99,2.25,-0.91,-0.92,-0.91
77.40,-2.76,-1.84,-2.79,-1.86,1.89,1.95,2.19,-0.87,-0.90,-0.92
78.17,-2.74,-1.80,-2.74,-1.80,1.85,1.91,2.12,-0.89,-0.89,-0.94
78.95,-2.74,-1.77,-2.73,-1.76,1.80,1.88,2.06,-0.94,-0.93,-0.97
79.74,-2.74,-1.75,-2.74,-1.75,1.75,1.84,2.00,-0.99,-0.99,-0.99
80.54,-2.74,-1.73,-2.75,-1.74,1.70,1.80,1.94,-1.04,-1.05,-1.01
81.35,-2.74,-1.71,-2.74,-1.71,1.65,1.77,1.88,-1.09,-1.09,-1.03
82.16,-2.72,-1.67,-2.69,-1.64,1.60,1.73,1.82,-1.12,-1.10,-1.05
82.98,-2.63,-1.56,-2.63,-1.55,1.55,1.70,1.77,-1.08,-1.08,-1.07
83.81,-2.53,-1.44,-2.56,-1.47,1.50,1.66,1.71,-1.03,-1.06,-1.09
84.65,-2.51,-1.40,-2.51,-1.41,1.46,1.63,1.65,-1.05,-1.06,-1.11
85.50,-2.51,-1.39,-2.50,-1.38,1.41,1.59,1.60,-1.10,-1.09,-1.12
86.35,-2.51,-1.37,-2.51,-1.37,1.37,1.56,1.54,-1.14,-1.14,-1.14
87.22,-2.51,-1.36,-2.51,-1.36,1.34,1.53,1.49,-1.17,-1.17,-1.15
88.09,-2.51,-1.34,-2.51,-1.34,1.33,1.49,1.44,-1.18,-1.18,-1.17
88.97,-2.51,-1.33,-2.51,-1.33,1.32,1.46,1.39,-1.19,-1.19,-1.18
89.86,-2.51,-1.30,-2.51,-1.31,1.32,1.43,1.34,-1.19,-1.19,-1.21
90.76,-2.51,-1.29,-2.51,-1.29,1.30,1.40,1.29,-1.21,-1.21,-1.22
91.66,-2.51,-1.27,-2.51,-1.27,1.27,1.37,1.24,-1.24,-1.24,-1.24
92.58,-2.51,-1.25,-2.52,-1.26,1.23,1.34,1.19,-1.28,-1.28,-1.26
93.51,-2.51,-1.24,-2.52,-1.24,1.19,1.31,1.15,-1.32,-1.33,-1.27
94.44,-2.51,-1.22,-2.47,-1.18,1.14,1.28,1.10,-1.37,-1.33,-1.29
95.39,-2.41,-1.10,-2.40,-1.09,1.09,1.25,1.06,-1.32,-1.31,-1.31
96.34,-2.28,-0.95,-2.33,-1.00,1.04,1.23,1.02,-1.24,-1.29,-1.33
97.30,-2.28,-0.93,-2.28,-0.93,0.99,1.20,0.97,-1.29,-1.29,-1.35
98.28,-2.28,-0.91,-2.27,-0.90,0.94,1.17,0.93,-1.34,-1.33,-1.37
99.26,-2.28,-0.90,-2.28,-0.89,0.89,1.14,0.89,-1.39,-1.39,-1.38
100.25,-2.28,-0.87,-2.28,-0.87,0.86,1.12,0.85,-1.42,-1.42,-1.41
101.25,-2.28,-0.85,-2.28,-0.85,0.83,1.09,0.81,-1.45,-1.45,-1.43
102.27,-2.28,-0.82,-2.28,-0.82,0.81,1.07,0.78,-1.47,-1.47,-1.46
103.29,-2.28,-0.79,-2.28,-0.79,0.78,1.04,0.74,-1.50,-1.50,-1.49
104.32,-2.28,-0.75,-2.28,-0.75,0.75,1.02,0.71,-1.53,-1.53,-1.53
105.37,-2.28,-0.71,-2.28,-0.71,0.71,1.00,0.67,-1.57,-1.57,-1.57
106.42,-2.28,-0.67,-2.28,-0.67,0.66,0.97,0.64,-1.62,-1.62,-1.61
107.48,-2.28,-0.62,-2.28,-0.62,0.60,0.95,0.60,-1.68,-1.68,-1.66
108.56,-2.28,-0.56,-2.28,-0.57,0.55,0.93,0.57,-1.73,-1.73,-1.72
109.64,-2.28,-0.51,-2.28,-0.51,0.51,0.91,0.54,-1.77,-1.77,-1.77
110.74,-2.28,-0.46,-2.28,-0.46,0.48,0.88,0.51,-1.80,-1.80,-1.82
111.85,-2.28,-0.42,-2.26,-0.40,0.45,0.86,0.49,-1.83,-1.81,-1.86
112.97,-2.28,-0.36,-2.30,-0.38,0.43,0.84,0.46,-1.85,-1.87,-1.92
114.10,-2.32,-0.35,-2.37,-0.40,0.41,0.82,0.43,-1.91,-1.96,-1.97
115.24,-2.51,-0.49,-2.44,-0.42,0.40,0.80,0.41,-2.11,-2.05,-2.02
116.39,-2.51,-0.44,-2.50,-0.44,0.39,0.79,0.39,-2.12,-2.12,-2.07
117.55,-2.51,-0.39,-2.53,-0.41,0.37,0.77,0.37,-2.14,-2.16,-2.12
118.73,-2.51,-0.36,-2.51,-0.36,0.35,0.75,0.35,-2.16,-2.16,-2.15
119.92,-2.51,-0.32,-2.51,-0.32,0.32,0.73,0.33,-2.19,-2.19,-2.19
121.12,-2.51,-0.28,-2.51,-0.28,0.29,0.72,0.31,-2.22,-2.22,-2.23
122.33,-2.51,-0.25,-2.51,-0.25,0.26,0.70,0.29,-2.25,-2.25,-2.26
123.55,-2.51,-0.22,-2.50,-0.21,0.23,0.68,0.28,-2.28,-2.27,-2.29
124.79,-2.51,-0.19,-2.50,-0.18,0.22,0.67,0.27,-2.29,-2.29,-2.32
126.03,-2.51,-0.16,-2.53,-0.18,0.21,0.65,0.26,-2.30,-2.32,-2.35
127.29,-2.58,-0.21,-2.60,-0.22,0.21,0.64,0.25,-2.37,-2.38,-2.37
128.57,-2.69,-0.28,-2.67,-0.26,0.23,0.62,0.24,-2.46,-2.44,-2.41
129.85,-2.74,-0.31,-2.71,-0.28,0.25,0.61,0.23,-2.49,-2.46,-2.43
131.15,-2.74,-0.28,-2.74,-0.28,0.29,0.60,0.22,-2.45,-2.45,-2.46
132.46,-2.74,-0.25,-2.79,-0.30,0.34,0.58,0.22,-2.40,-2.45,-2.49
133.79,-2.87,-0.35,-2.85,-0.33,0.39,0.57,0.22,-2.48,-2.46,-2.52
135.12,-2.97,-0.43,-2.95,-0.41,0.43,0.56,0.22,-2.54,-2.52,-2.54
136.48,-3.02,-0.45,-3.06,-0.49,0.46,0.55,0.22,-2.56,-2.60,-2.57
137.84,-3.17,-0.57,-3.13,-0.54,0.49,0.54,0.22,-2.68,-2.64,-2.60
139.22,-3.19,-0.57,-3.18,-0.56,0.51,0.53,0.22,-2.68,-2.67,-2.62
140.61,-3.19,-0.54,-3.20,-0.55,0.51,0.52,0.22,-2.68,-2.69,-2.65
142.02,-3.19,-0.51,-3.19,-0.51,0.51,0.51,0.22,-2.68,-2.69,-2.68
143.44,-3.19,-0.48,-3.19,-0.48,0.49,0.50,0.23,-2.70,-2.70,-2.71
144.87,-3.19,-0.46,-3.19,-0.45,0.47,0.49,0.23,-2.72,-2.72,-2.73
146.32,-3.19,-0.42,-3.18,-0.41,0.44,0.48,0.24,-2.75,-2.74,-2.77
147.78,-3.19,-0.38,-3.19,-0.38,0.43,0.48,0.25,-2.76,-2.76,-2.81
149.26,-3.19,-0.35,-3.22,-0.38,0.41,0.47,0.26,-2.78,-2.81,-2.84
150.75,-3.29,-0.40,-3.29,-0.40,0.40,0.46,0.26,-2.89,-2.89,-2.89
152.26,-3.38,-0.45,-3.36,-0.42,0.39,0.46,0.27,-2.99,-2.97,-2.93
153.78,-3.42,-0.43,-3.41,-0.42,0.38,0.45,0.28,-3.04,-3.04,-2.99
155.32,-3.42,-0.38,-3.43,-0.39,0.36,0.45,0.29,-3.06,-3.07,-3.04
156.88,-3.42,-0.33,-3.42,-0.33,0.33,0.44,0.30,-3.09,-3.09,-3.09
158.44,-3.42,-0.29,-3.42,-0.28,0.30,0.44,0.31,-3.12,-3.12,-3.13
160.03,-3.42,-0.24,-3.42,-0.24,0.25,0.43,0.33,-3.17,-3.17,-3.18
161.63,-3.42,-0.20,-3.42,-0.21,0.21,0.43,0.34,-3.21,-3.21,-3.22
163.24,-3.42,-0.17,-3.42,-0.17,0.16,0.43,0.35,-3.26,-3.26,-3.25
164.88,-3.42,-0.14,-3.42,-0.14,0.13,0.43,0.36,-3.29,-3.29,-3.28
166.53,-3.42,-0.12,-3.42,-0.12,0.13,0.42,0.38,-3.29,-3.29,-3.30
168.19,-3.42,-0.11,-3.41,-0.09,0.13,0.42,0.39,-3.29,-3.27,-3.31
169.87,-3.42,-0.10,-3.42,-0.10,0.15,0.42,0.40,-3.27,-3.27,-3.32
171.57,-3.42,-0.10,-3.47,-0.15,0.18,0.42,0.42,-3.24,-3.29,-3.32
173.29,-3.56,-0.24,-3.54,-0.22,0.21,0.42,0.43,-3.35,-3.33,-3.32
175.02,-3.65,-0.34,-3.61,-0.30,0.25,0.42,0.44,-3.40,-3.37,-3.31
176.77,-3.65,-0.35,-3.66,-0.36,0.29,0.42,0.46,-3.36,-3.37,-3.30
178.54,-3.65,-0.36,-3.65,-0.36,0.35,0.43,0.47,-3.30,-3.30,-3.29
180.32,-3.65,-0.38,-3.64,-0.37,0.41,0.43,0.49,-3.24,-3.23,-3.27
182.13,-3.65,-0.39,-3.68,-0.43,0.48,0.43,0.51,-3.17,-3.21,-3.26
183.95,-3.74,-0.49,-3.73,-0.48,0.54,0.43,0.52,-3.20,-3.19,-3.25
185.79,-3.86,-0.62,-3.82,-0.58,0.60,0.44,0.54,-3.26,-3.22,-3.24
187.65,-3.87,-0.63,-3.93,-0.69,0.66,0.44,0.55,-3.21,-3.27,-3.24
189.52,-4.05,-0.81,-4.02,-0.78,0.71,0.45,0.57,-3.34,-3.30,-3.24
191.42,-4.10,-0.86,-4.08,-0.83,0.77,0.45,0.59,-3.33,-3.30,-3.24
193.33,-4.10,-0.85,-4.11,-0.86,0.83,0.46,0.61,-3.27,-3.29,-3.25
195.27,-4.10,-0.84,-4.09,-0.84,0.87,0.46,0.62,-3.23,-3.22,-3.26
197.22,-4.10,-0.84,-4.10,-0.84,0.91,0.47,0.64,-3.19,-3.19,-3.26
199.19,-4.11,-0.84,-4.15,-0.89,0.94,0.48,0.66,-3.17,-3.22,-3.27
201.18,-4.24,-0.96,-4.23,-0.95,0.95,0.48,0.68,-3.29,-3.27,-3.28
203.19,-4.33,-1.04,-4.29,-1.01,0.97,0.49,0.69,-3.36,-3.32,-3.29
205.23,-4.33,-1.03,-4.34,-1.04,0.98,0.50,0.71,-3.35,-3.35,-3.30
207.28,-4.33,-1.01,-4.34,-1.02,0.99,0.51,0.73,-3.34,-3.34,-3.32
209.35,-4.33,-0.99,-4.33,-1.00,1.00,0.52,0.75,-3.33,-3.33,-3.34
211.44,-4.33,-0.98,-4.33,-0.98,1.00,0.53,0.77,-3.33,-3.33,-3.35
213.56,-4.33,-0.96,-4.33,-0.97,0.98,0.54,0.78,-3.35,-3.35,-3.37
215.69,-4.33,-0.96,-4.33,-0.95,0.96,0.55,0.80,-3.37,-3.37,-3.37
217.85,-4.33,-0.94,-4.33,-0.94,0.94,0.56,0.82,-3.39,-3.39,-3.39
220.03,-4.33,-0.93,-4.33,-0.93,0.93,0.57,0.83,-3.40,-3.40,-3.40
222.23,-4.33,-0.91,-4.33,-0.92,0.91,0.58,0.85,-3.42,-3.42,-3.42
224.45,-4.33,-0.91,-4.33,-0.90,0.90,0.59,0.87,-3.43,-3.43,-3.42
226.70,-4.33,-0.89,-4.33,-0.89,0.89,0.61,0.88,-3.44,-3.44,-3.44
228.96,-4.33,-0.88,-4.33,-0.88,0.88,0.62,0.90,-3.45,-3.45,-3.45
231.25,-4.33,-0.87,-4.33,-0.87,0.87,0.63,0.91,-3.46,-3.46,-3.46
233.57,-4.33,-0.86,-4.33,-0.86,0.86,0.65,0.93,-3.47,-3.47,-3.47
235.90,-4.33,-0.85,-4.33,-0.85,0.85,0.66,0.94,-3.48,-3.48,-3.48
238.26,-4.33,-0.84,-4.33,-0.84,0.84,0.67,0.95,-3.49,-3.49,-3.49
240.64,-4.33,-0.83,-4.33,-0.83,0.84,0.69,0.96,-3.49,-3.49,-3.50
243.05,-4.33,-0.83,-4.33,-0.83,0.83,0.70,0.97,-3.50,-3.50,-3.50
245.48,-4.33,-0.82,-4.33,-0.82,0.82,0.72,0.98,-3.51,-3.51,-3.51
247.93,-4.33,-0.82,-4.33,-0.82,0.80,0.74,0.99,-3.53,-3.53,-3.51
250.41,-4.33,-0.81,-4.33,-0.81,0.80,0.75,1.00,-3.53,-3.53,-3.52
252.92,-4.33,-0.81,-4.33,-0.81,0.80,0.77,1.01,-3.53,-3.53,-3.52
255.45,-4.33,-0.80,-4.33,-0.80,0.81,0.78,1.01,-3.52,-3.52,-3.53
258.00,-4.33,-0.80,-4.31,-0.78,0.83,0.80,1.02,-3.50,-3.48,-3.53
260.58,-4.33,-0.80,-4.34,-0.81,0.86,0.82,1.02,-3.47,-3.49,-3.53
263.19,-4.35,-0.80,-4.41,-0.86,0.88,0.84,1.03,-3.47,-3.53,-3.55
265.82,-4.54,-0.99,-4.48,-0.93,0.91,0.85,1.03,-3.63,-3.57,-3.55
268.48,-4.56,-1.00,-4.55,-0.99,0.94,0.87,1.03,-3.62,-3.61,-3.56
271.16,-4.56,-0.99,-4.58,-1.01,0.96,0.89,1.04,-3.60,-3.62,-3.57
273.87,-4.56,-0.99,-4.56,-0.99,0.98,0.91,1.04,-3.58,-3.58,-3.57
276.61,-4.56,-0.98,-4.56,-0.98,0.99,0.93,1.04,-3.57,-3.57,-3.58
279.38,-4.56,-0.97,-4.56,-0.97,0.99,0.94,1.04,-3.57,-3.57,-3.59
282.17,-4.56,-0.97,-4.56,-0.97,0.98,0.96,1.04,-3.58,-3.58,-3.59
284.99,-4.56,-0.96,-4.56,-0.96,0.97,0.98,1.04,-3.59,-3.59,-3.60
287.84,-4.56,-0.96,-4.56,-0.96,0.96,1.00,1.04,-3.60,-3.60,-3.60
290.72,-4.56,-0.96,-4.56,-0.96,0.94,1.02,1.04,-3.62,-3.62,-3.60
293.63,-4.56,-0.96,-4.56,-0.96,0.94,1.04,1.05,-3.62,-3.62,-3.60
296.57,-4.56,-0.95,-4.56,-0.95,0.95,1.06,1.05,-3.61,-3.61,-3.61
299.53,-4.56,-0.95,-4.55,-0.94,0.96,1.08,1.05,-3.60,-3.59,-3.61
302.53,-4.56,-0.94,-4.55,-0.93,0.98,1.10,1.05,-3.58,-3.56,-3.62
305.55,-4.56,-0.94,-4.59,-0.96,1.01,1.12,1.05,-3.55,-3.58,-3.62
308.61,-4.62,-1.00,-4.65,-1.02,1.03,1.13,1.06,-3.59,-3.62,-3.62
311.69,-4.77,-1.13,-4.72,-1.09,1.06,1.15,1.06,-3.71,-3.67,-3.64
314.81,-4.79,-1.14,-4.78,-1.13,1.08,1.17,1.06,-3.71,-3.70,-3.65
317.96,-4.79,-1.13,-4.80,-1.14,1.09,1.19,1.07,-3.70,-3.71,-3.66
321.14,-4.79,-1.11,-4.79,-1.11,1.10,1.21,1.07,-3.69,-3.70,-3.68
324.35,-4.79,-1.10,-4.79,-1.10,1.09,1.23,1.08,-3.70,-3.70,-3.69
327.59,-4.79,-1.08,-4.79,-1.08,1.09,1.25,1.09,-3.70,-3.70,-3.71
330.87,-4.79,-1.07,-4.79,-1.07,1.09,1.26,1.10,-3.70,-3.70,-3.72
334.18,-4.79,-1.06,-4.77,-1.05,1.09,1.28,1.11,-3.70,-3.68,-3.73
337.52,-4.79,-1.05,-4.79,-1.06,1.11,1.30,1.12,-3.68,-3.69,-3.74
340.90,-4.79,-1.05,-4.85,-1.10,1.13,1.32,1.13,-3.66,-3.72,-3.74
344.30,-4.96,-1.21,-4.92,-1.17,1.16,1.33,1.14,-3.80,-3.76,-3.75
347.75,-5.01,-1.26,-4.99,-1.23,1.19,1.35,1.15,-3.82,-3.80,-3.75
351.23,-5.01,-1.25,-5.02,-1.27,1.22,1.37,1.17,-3.79,-3.81,-3.76
354.74,-5.01,-1.25,-5.01,-1.26,1.24,1.38,1.18,-3.77,-3.77,-3.76
358.28,-5.01,-1.25,-5.01,-1.25,1.26,1.40,1.20,-3.75,-3.75,-3.76
361.87,-5.01,-1.26,-5.01,-1.26,1.26,1.41,1.21,-3.75,-3.75,-3.75
365.49,-5.01,-1.26,-5.01,-1.26,1.26,1.43,1.23,-3.75,-3.75,-3.75
369.14,-5.01,-1.26,-5.01,-1.26,1.25,1.44,1.25,-3.76,-3.76,-3.75
372.83,-5.01,-1.26,-5.01,-1.26,1.26,1.45,1.27,-3.75,-3.75,-3.75
376.56,-5.01,-1.27,-4.99,-1.25,1.29,1.46,1.29,-3.72,-3.71,-3.74
380.33,-5.01,-1.27,-5.01,-1.27,1.32,1.48,1.31,-3.69,-3.70,-3.74
384.13,-5.01,-1.26,-5.07,-1.32,1.35,1.49,1.33,-3.66,-3.72,-3.75
387.97,-5.17,-1.42,-5.14,-1.39,1.39,1.50,1.36,-3.78,-3.75,-3.75
391.85,-5.23,-1.48,-5.21,-1.46,1.42,1.51,1.38,-3.81,-3.79,-3.75
395.77,-5.24,-1.49,-5.25,-1.50,1.45,1.51,1.40,-3.79,-3.80,-3.75
399.73,-5.24,-1.50,-5.25,-1.50,1.48,1.52,1.42,-3.76,-3.76,-3.74
403.72,-5.24,-1.50,-5.24,-1.50,1.50,1.53,1.45,-3.74,-3.74,-3.74
407.76,-5.24,-1.50,-5.24,-1.50,1.51,1.53,1.47,-3.73,-3.73,-3.74
411.84,-5.24,-1.50,-5.24,-1.50,1.51,1.54,1.50,-3.73,-3.73,-3.74
415.96,-5.24,-1.50,-5.24,-1.50,1.51,1.54,1.52,-3.73,-3.73,-3.74
420.12,-5.24,-1.50,-5.24,-1.50,1.50,1.55,1.54,-3.74,-3.74,-3.74
424.32,-5.24,-1.50,-5.24,-1.50,1.50,1.55,1.56,-3.74,-3.74,-3.74
428.56,-5.24,-1.50,-5.24,-1.50,1.50,1.55,1.58,-3.74,-3.74,-3.74
432.85,-5.24,-1.50,-5.24,-1.50,1.49,1.55,1.60,-3.75,-3.75,-3.74
437.18,-5.24,-1.50,-5.24,-1.49,1.49,1.55,1.62,-3.75,-3.75,-3.74
441.55,-5.24,-1.49,-5.24,-1.49,1.49,1.54,1.64,-3.75,-3.75,-3.75
445.96,-5.24,-1.48,-5.24,-1.49,1.49,1.54,1.65,-3.75,-3.75,-3.76
