frequency,raw,error,smoothed,error_smoothed,equalization,parametric_eq,fixed_band_eq,equalized_raw,equalized_smoothed,target
20.00,12.09,4.50,12.07,4.48,-4.54,-5.06,-2.70,7.55,7.54,7.59
20.20,12.26,4.68,12.28,4.69,-4.72,-5.09,-2.78,7.54,7.55,7.58
20.40,12.44,4.87,12.46,4.89,-4.89,-5.13,-2.86,7.55,7.57,7.56
20.61,12.60,5.05,12.62,5.07,-5.04,-5.17,-2.94,7.56,7.58,7.55
20.81,12.79,5.25,12.78,5.25,-5.17,-5.20,-3.02,7.61,7.61,7.53
21.02,12.93,5.41,12.90,5.37,-5.29,-5.24,-3.10,7.64,7.61,7.52
21.23,12.95,5.44,12.96,5.45,-5.39,-5.27,-3.19,7.56,7.57,7.51
21.44,12.96,5.46,12.98,5.48,-5.47,-5.31,-3.28,7.49,7.51,7.50
21.66,12.98,5.50,12.98,5.49,-5.52,-5.34,-3.37,7.47,7.46,7.48
21.87,12.99,5.51,13.00,5.52,-5.55,-5.38,-3.47,7.45,7.45,7.48
22.09,13.01,5.54,13.01,5.54,-5.57,-5.41,-3.57,7.45,7.45,7.47
22.31,13.03,5.57,13.03,5.57,-5.58,-5.44,-3.67,7.45,7.45,7.46
22.54,13.05,5.60,13.05,5.60,-5.61,-5.48,-3.77,7.45,7.45,7.45
22.76,13.07,5.63,13.07,5.63,-5.63,-5.51,-3.88,7.44,7.44,7.44
22.99,13.09,5.65,13.10,5.66,-5.67,-5.54,-3.99,7.43,7.43,7.44
23.22,13.13,5.71,13.13,5.70,-5.71,-5.57,-4.10,7.43,7.42,7.43
23.45,13.16,5.74,13.17,5.74,-5.75,-5.60,-4.21,7.42,7.42,7.43
23.69,13.20,5.78,13.21,5.78,-5.80,-5.63,-4.32,7.41,7.41,7.43
23.92,13.24,5.82,13.24,5.81,-5.84,-5.66,-4.44,7.41,7.40,7.43
24.16,13.27,5.85,13.27,5.85,-5.86,-5.69,-4.56,7.41,7.41,7.43
24.40,13.29,5.87,13.31,5.88,-5.86,-5.72,-4.68,7.43,7.45,7.43
24.65,13.32,5.90,13.33,5.91,-5.83,-5.75,-4.81,7.49,7.50,7.42
24.89,13.34,5.92,13.32,5.90,-5.78,-5.78,-4.93,7.57,7.54,7.42
25.14,13.27,5.85,13.25,5.83,-5.72,-5.81,-5.06,7.55,7.53,7.42
25.39,13.12,5.70,13.11,5.69,-5.68,-5.84,-5.19,7.44,7.43,7.42
25.65,12.97,5.56,12.96,5.55,-5.67,-5.86,-5.32,7.31,7.29,7.41
25.91,12.83,5.42,12.88,5.47,-5.67,-5.89,-5.45,7.16,7.21,7.41
26.16,12.89,5.49,12.91,5.51,-5.68,-5.91,-5.58,7.21,7.23,7.40
26.43,13.06,5.66,13.06,5.66,-5.69,-5.94,-5.71,7.37,7.37,7.40
26.69,13.24,5.86,13.25,5.86,-5.71,-5.96,-5.83,7.53,7.53,7.39
26.96,13.42,6.04,13.36,5.98,-5.76,-5.99,-5.96,7.66,7.60,7.38
27.23,13.38,6.01,13.37,6.00,-5.85,-6.01,-6.08,7.54,7.53,7.38
27.50,13.29,5.93,13.29,5.92,-5.96,-6.04,-6.21,7.33,7.32,7.36
27.77,13.20,5.85,13.22,5.86,-6.08,-6.06,-6.33,7.12,7.13,7.35
28.05,13.19,5.84,13.27,5.92,-6.18,-6.08,-6.44,7.01,7.09,7.34
28.33,13.47,6.12,13.47,6.13,-6.24,-6.10,-6.55,7.22,7.23,7.34
28.62,13.73,6.39,13.74,6.40,-6.28,-6.12,-6.66,7.45,7.46,7.34
28.90,14.01,6.69,13.92,6.59,-6.31,-6.14,-6.75,7.70,7.61,7.33
29.19,13.96,6.63,13.93,6.59,-6.34,-6.16,-6.85,7.62,7.59,7.34
29.48,13.75,6.42,13.77,6.44,-6.36,-6.18,-6.93,7.40,7.42,7.34
29.78,13.56,6.22,13.57,6.24,-6.35,-6.20,-7.01,7.21,7.22,7.33
30.08,13.41,6.07,13.46,6.13,-6.31,-6.22,-7.08,7.09,7.15,7.33
30.38,13.45,6.12,13.45,6.11,-6.25,-6.23,-7.14,7.20,7.19,7.33
30.68,13.50,6.17,13.49,6.16,-6.20,-6.25,-7.19,7.30,7.28,7.33
30.99,13.55,6.23,13.54,6.21,-6.18,-6.27,-7.23,7.37,7.36,7.33
31.30,13.55,6.23,13.56,6.23,-6.20,-6.28,-7.26,7.36,7.36,7.33
31.61,13.55,6.23,13.56,6.24,-6.22,-6.30,-7.28,7.33,7.34,7.32
31.93,13.55,6.23,13.55,6.24,-6.22,-6.31,-7.29,7.33,7.33,7.32
32.24,13.55,6.24,13.56,6.25,-6.19,-6.33,-7.30,7.37,7.38,7.31
32.57,13.55,6.25,13.56,6.26,-6.14,-6.34,-7.29,7.41,7.42,7.31
32.89,13.55,6.25,13.52,6.22,-6.11,-6.35,-7.28,7.44,7.41,7.30
33.22,13.44,6.14,13.40,6.09,-6.12,-6.36,-7.25,7.33,7.28,7.30
33.55,13.27,5.97,13.25,5.96,-6.15,-6.37,-7.22,7.12,7.10,7.30
33.89,13.10,5.82,13.20,5.91,-6.19,-6.39,-7.18,6.91,7.01,7.29
34.23,13.29,6.01,13.36,6.07,-6.24,-6.40,-7.14,7.05,7.12,7.28
34.57,13.64,6.36,13.63,6.35,-6.29,-6.41,-7.09,7.35,7.34,7.28
34.92,13.99,6.71,13.87,6.59,-6.35,-6.41,-7.04,7.64,7.52,7.28
35.27,13.94,6.67,13.91,6.63,-6.39,-6.42,-6.98,7.55,7.51,7.28
35.62,13.75,6.48,13.79,6.52,-6.41,-6.43,-6.92,7.34,7.38,7.27
35.97,13.56,6.30,13.63,6.37,-6.40,-6.44,-6.86,7.16,7.23,7.26
36.33,13.55,6.30,13.56,6.30,-6.35,-6.45,-6.80,7.20,7.21,7.26
36.70,13.55,6.30,13.53,6.28,-6.30,-6.45,-6.73,7.25,7.23,7.25
37.06,13.53,6.28,13.48,6.23,-6.27,-6.46,-6.66,7.26,7.21,7.25
37.43,13.40,6.17,13.38,6.14,-6.28,-6.46,-6.60,7.12,7.10,7.23
37.81,13.27,6.04,13.34,6.11,-6.32,-6.47,-6.54,6.96,7.02,7.23
38.19,13.37,6.16,13.48,6.27,-6.37,-6.47,-6.47,7.00,7.11,7.22
38.57,13.72,6.52,13.72,6.51,-6.43,-6.48,-6.41,7.30,7.29,7.20
38.95,14.06,6.87,13.89,6.70,-6.47,-6.48,-6.35,7.59,7.43,7.19
39.34,13.91,6.73,13.90,6.72,-6.49,-6.48,-6.29,7.42,7.41,7.18
39.74,13.69,6.53,13.76,6.59,-6.51,-6.49,-6.24,7.19,7.25,7.17
40.14,13.56,6.40,13.60,6.44,-6.52,-6.49,-6.19,7.03,7.07,7.15
40.54,13.55,6.42,13.54,6.40,-6.53,-6.49,-6.14,7.02,7.01,7.14
40.94,13.55,6.42,13.53,6.40,-6.53,-6.49,-6.09,7.03,7.01,7.13
41.35,13.55,6.43,13.54,6.41,-6.52,-6.49,-6.05,7.03,7.02,7.13
41.76,13.55,6.43,13.57,6.45,-6.51,-6.49,-6.02,7.04,7.06,7.12
42.18,13.62,6.51,13.68,6.57,-6.52,-6.49,-5.98,7.11,7.17,7.12
42.60,13.80,6.69,13.79,6.68,-6.53,-6.50,-5.96,7.27,7.27,7.11
43.03,13.93,6.83,13.81,6.71,-6.54,-6.50,-5.93,7.39,7.27,7.10
43.46,13.72,6.63,13.73,6.63,-6.55,-6.49,-5.91,7.17,7.18,7.10
43.90,13.51,6.41,13.58,6.48,-6.56,-6.49,-5.89,6.94,7.01,7.10
44.33,13.45,6.36,13.45,6.36,-6.56,-6.49,-5.88,6.89,6.88,7.09
44.78,13.45,6.37,13.47,6.38,-6.55,-6.49,-5.88,6.91,6.92,7.08
45.23,13.54,6.47,13.60,6.52,-6.51,-6.49,-5.87,7.03,7.09,7.08
45.68,13.73,6.67,13.69,6.63,-6.47,-6.49,-5.87,7.26,7.22,7.07
46.13,13.79,6.73,13.68,6.62,-6.45,-6.49,-5.88,7.34,7.23,7.06
46.60,13.56,6.51,13.58,6.53,-6.45,-6.49,-5.89,7.11,7.14,7.05
47.06,13.35,6.31,13.44,6.40,-6.45,-6.48,-5.90,6.90,6.99,7.04
47.53,13.35,6.32,13.34,6.31,-6.45,-6.48,-5.92,6.90,6.89,7.03
48.01,13.35,6.34,13.33,6.32,-6.44,-6.48,-5.94,6.92,6.90,7.01
48.49,13.36,6.36,13.36,6.36,-6.40,-6.48,-5.97,6.96,6.96,7.00
48.97,13.37,6.39,13.41,6.42,-6.38,-6.47,-6.00,7.00,7.03,6.98
49.46,13.44,6.47,13.45,6.48,-6.37,-6.47,-6.03,7.07,7.08,6.97
49.96,13.51,6.55,13.45,6.49,-6.39,-6.47,-6.07,7.12,7.05,6.96
50.46,13.40,6.46,13.40,6.45,-6.43,-6.47,-6.11,6.98,6.97,6.95
50.96,13.26,6.32,13.30,6.36,-6.45,-6.46,-6.15,6.81,6.85,6.94
51.47,13.25,6.32,13.25,6.32,-6.45,-6.46,-6.19,6.80,6.79,6.93
51.99,13.25,6.34,13.33,6.41,-6.44,-6.46,-6.24,6.81,6.89,6.92
52.51,13.42,6.53,13.43,6.53,-6.43,-6.46,-6.29,6.99,6.99,6.90
53.03,13.58,6.70,13.43,6.55,-6.43,-6.45,-6.34,7.15,7.00,6.88
53.56,13.34,6.48,13.36,6.50,-6.44,-6.45,-6.39,6.90,6.92,6.87
54.10,13.16,6.30,13.23,6.38,-6.45,-6.45,-6.44,6.71,6.78,6.85
54.64,13.15,6.32,13.17,6.33,-6.45,-6.45,-6.49,6.70,6.72,6.84
55.18,13.20,6.38,13.24,6.42,-6.44,-6.45,-6.54,6.76,6.80,6.82
55.74,13.36,6.56,13.29,6.49,-6.43,-6.44,-6.59,6.93,6.86,6.80
56.29,13.33,6.55,13.26,6.48,-6.42,-6.44,-6.64,6.91,6.84,6.79
56.86,13.12,6.35,13.19,6.42,-6.42,-6.44,-6.69,6.70,6.77,6.77
57.42,13.08,6.33,13.12,6.37,-6.42,-6.44,-6.73,6.67,6.70,6.75
58.00,13.12,6.39,13.13,6.40,-6.42,-6.44,-6.77,6.70,6.72,6.73
58.58,13.20,6.49,13.17,6.46,-6.42,-6.44,-6.81,6.79,6.75,6.71
59.16,13.20,6.51,13.14,6.45,-6.41,-6.44,-6.84,6.79,6.73,6.69
59.76,13.03,6.35,13.05,6.38,-6.41,-6.44,-6.87,6.61,6.64,6.67
60.35,12.95,6.31,12.99,6.34,-6.40,-6.44,-6.90,6.55,6.58,6.65
60.96,12.95,6.32,13.02,6.38,-6.40,-6.44,-6.92,6.56,6.62,6.64
61.57,13.11,6.50,13.06,6.45,-6.40,-6.44,-6.93,6.72,6.67,6.61
62.18,13.16,6.57,13.06,6.47,-6.40,-6.44,-6.94,6.76,6.66,6.59
62.80,12.92,6.37,12.99,6.43,-6.41,-6.44,-6.95,6.51,6.58,6.56
63.43,12.85,6.32,12.88,6.36,-6.43,-6.44,-6.95,6.42,6.45,6.53
64.07,12.85,6.36,12.83,6.33,-6.45,-6.44,-6.94,6.40,6.38,6.49
64.71,12.87,6.41,12.92,6.46,-6.47,-6.45,-6.93,6.40,6.45,6.47
65.35,12.97,6.54,12.99,6.56,-6.49,-6.45,-6.91,6.48,6.50,6.43
66.01,13.12,6.72,12.98,6.58,-6.51,-6.45,-6.89,6.61,6.47,6.40
66.67,12.87,6.51,12.90,6.54,-6.53,-6.45,-6.87,6.35,6.38,6.36
67.33,12.75,6.42,12.84,6.50,-6.53,-6.46,-6.84,6.22,6.30,6.33
68.01,12.75,6.46,12.82,6.52,-6.53,-6.46,-6.81,6.22,6.29,6.29
68.69,12.93,6.67,12.83,6.57,-6.52,-6.47,-6.77,6.41,6.31,6.26
69.37,12.85,6.63,12.77,6.54,-6.51,-6.47,-6.73,6.35,6.26,6.22
70.07,12.57,6.39,12.65,6.47,-6.50,-6.48,-6.70,6.08,6.15,6.19
70.77,12.48,6.34,12.56,6.42,-6.50,-6.48,-6.65,5.98,6.06,6.14
71.48,12.56,6.46,12.53,6.42,-6.50,-6.49,-6.61,6.06,6.03,6.11
72.19,12.65,6.59,12.58,6.51,-6.50,-6.50,-6.57,6.15,6.08,6.06
72.91,12.52,6.50,12.62,6.59,-6.50,-6.50,-6.53,6.02,6.12,6.03
73.64,12.62,6.63,12.58,6.59,-6.52,-6.51,-6.49,6.11,6.06,5.99
74.38,12.56,6.61,12.49,6.54,-6.55,-6.52,-6.45,6.02,5.95,5.95
75.12,12.35,6.44,12.43,6.52,-6.58,-6.53,-6.41,5.77,5.85,5.91
75.87,12.35,6.49,12.37,6.51,-6.60,-6.54,-6.37,5.75,5.77,5.86
76.63,12.39,6.57,12.42,6.59,-6.61,-6.55,-6.34,5.78,5.81,5.82
77.40,12.48,6.70,12.45,6.67,-6.60,-6.56,-6.30,5.88,5.85,5.78
78.17,12.51,6.78,12.42,6.69,-6.60,-6.57,-6.27,5.92,5.83,5.74
78.95,12.26,6.57,12.36,6.66,-6.60,-6.58,-6.25,5.66,5.75,5.69
79.74,12.25,6.60,12.26,6.61,-6.61,-6.59,-6.22,5.64,5.65,5.65
80.54,12.20,6.60,12.17,6.56,-6.62,-6.60,-6.20,5.58,5.55,5.61
81.35,12.12,6.56,12.11,6.56,-6.63,-6.61,-6.19,5.49,5.48,5.56
82.16,12.06,6.55,12.09,6.58,-6.64,-6.62,-6.18,5.43,5.45,5.51
82.98,12.04,6.59,12.11,6.65,-6.66,-6.64,-6.17,5.39,5.45,5.46
83.81,12.21,6.81,12.13,6.72,-6.69,-6.65,-6.16,5.52,5.43,5.41
84.65,12.15,6.79,12.11,6.76,-6.73,-6.66,-6.16,5.43,5.38,5.36
85.50,12.02,6.72,12.10,6.79,-6.76,-6.68,-6.17,5.27,5.34,5.30
86.35,12.00,6.75,12.05,6.80,-6.78,-6.69,-6.18,5.23,5.27,5.25
87.22,12.09,6.90,12.01,6.82,-6.79,-6.71,-6.19,5.30,5.22,5.19
88.09,11.97,6.84,11.96,6.83,-6.80,-6.72,-6.21,5.17,5.16,5.14
88.97,11.83,6.76,11.87,6.79,-6.80,-6.74,-6.23,5.03,5.06,5.07
89.86,11.76,6.75,11.75,6.74,-6.81,-6.76,-6.26,4.96,4.95,5.01
90.76,11.69,6.74,11.72,6.77,-6.81,-6.77,-6.29,4.88,4.91,4.96
91.66,11.70,6.81,11.73,6.83,-6.83,-6.79,-6.33,4.87,4.90,4.89
92.58,11.77,6.94,11.71,6.88,-6.86,-6.81,-6.37,4.91,4.85,4.83
93.51,11.69,6.93,11.68,6.91,-6.90,-6.82,-6.42,4.80,4.78,4.77
94.44,11.57,6.87,11.61,6.91,-6.94,-6.84,-6.47,4.64,4.68,4.70
95.39,11.55,6.92,11.57,6.94,-6.97,-6.86,-6.52,4.59,4.60,4.63
96.34,11.57,7.01,11.60,7.03,-7.00,-6.88,-6.58,4.58,4.60,4.57
97.30,11.62,7.13,11.57,7.07,-7.02,-6.89,-6.65,4.61,4.55,4.49
98.28,11.56,7.14,11.50,7.07,-7.03,-6.91,-6.71,4.53,4.46,4.42
99.26,11.28,6.94,11.39,7.04,-7.05,-6.93,-6.78,4.23,4.34,4.35
100.25,11.29,7.02,11.28,7.01,-7.07,-6.95,-6.85,4.23,4.21,4.27
101.25,11.23,7.04,11.21,7.02,-7.08,-6.97,-6.93,4.16,4.14,4.19
102.27,11.18,7.07,11.21,7.09,-7.08,-6.99,-7.01,4.11,4.13,4.11
103.29,11.16,7.13,11.15,7.12,-7.08,-7.01,-7.09,4.08,4.07,4.04
104.32,11.11,7.15,11.09,7.13,-7.10,-7.03,-7.17,4.02,3.99,3.96
105.37,10.98,7.11,10.99,7.12,-7.12,-7.04,-7.25,3.87,3.88,3.87
106.42,10.88,7.09,10.89,7.09,-7.13,-7.06,-7.34,3.75,3.76,3.79
107.48,10.80,7.09,10.83,7.11,-7.14,-7.08,-7.42,3.67,3.69,3.72
108.56,10.77,7.14,10.79,7.16,-7.13,-7.10,-7.50,3.64,3.66,3.64
109.64,10.80,7.24,10.76,7.20,-7.13,-7.12,-7.58,3.67,3.63,3.56
110.74,10.68,7.19,10.67,7.18,-7.15,-7.14,-7.66,3.54,3.52,3.49
111.85,10.56,7.15,10.54,7.12,-7.17,-7.15,-7.74,3.39,3.37,3.42
112.97,10.38,7.04,10.46,7.11,-7.20,-7.17,-7.82,3.19,3.26,3.35
114.10,10.40,7.12,10.43,7.15,-7.22,-7.19,-7.89,3.19,3.22,3.28
115.24,10.52,7.31,10.45,7.23,-7.23,-7.21,-7.95,3.29,3.22,3.22
116.39,10.46,7.31,10.49,7.34,-7.24,-7.22,-8.01,3.22,3.25,3.15
117.55,10.44,7.35,10.44,7.35,-7.26,-7.24,-8.06,3.19,3.18,3.09
118.73,10.39,7.36,10.33,7.30,-7.28,-7.26,-8.11,3.11,3.05,3.03
119.92,10.16,7.19,10.24,7.27,-7.31,-7.27,-8.15,2.86,2.93,2.97
121.12,10.15,7.24,10.16,7.25,-7.33,-7.29,-8.18,2.83,2.84,2.91
122.33,10.16,7.31,10.13,7.26,-7.33,-7.30,-8.20,2.83,2.80,2.86
123.55,10.13,7.32,10.17,7.36,-7.33,-7.31,-8.21,2.80,2.83,2.81
124.79,10.14,7.38,10.15,7.39,-7.34,-7.33,-8.21,2.81,2.81,2.76
126.03,10.17,7.47,10.09,7.38,-7.35,-7.34,-8.20,2.82,2.74,2.70
127.29,9.98,7.32,10.03,7.37,-7.36,-7.35,-8.19,2.62,2.67,2.66
128.57,9.90,7.30,9.97,7.36,-7.37,-7.36,-8.16,2.53,2.60,2.61
129.85,9.97,7.41,9.91,7.35,-7.37,-7.37,-8.13,2.60,2.54,2.56
131.15,9.89,7.38,9.89,7.38,-7.37,-7.38,-8.09,2.52,2.52,2.51
132.46,9.81,7.35,9.83,7.37,-7.37,-7.39,-8.04,2.45,2.46,2.46
133.79,9.75,7.35,9.75,7.34,-7.37,-7.39,-7.98,2.39,2.38,2.40
135.12,9.69,7.34,9.71,7.36,-7.37,-7.40,-7.91,2.32,2.34,2.36
136.48,9.68,7.37,9.69,7.38,-7.38,-7.41,-7.84,2.30,2.31,2.31
137.84,9.69,7.44,9.66,7.40,-7.39,-7.41,-7.77,2.31,2.27,2.26
139.22,9.60,7.39,9.62,7.41,-7.39,-7.41,-7.69,2.21,2.22,2.21
140.61,9.55,7.40,9.56,7.40,-7.39,-7.41,-7.60,2.16,2.17,2.16
142.02,9.49,7.39,9.50,7.39,-7.40,-7.41,-7.52,2.10,2.10,2.11
143.44,9.46,7.41,9.46,7.40,-7.39,-7.41,-7.43,2.07,2.06,2.05
144.87,9.39,7.38,9.41,7.40,-7.39,-7.41,-7.34,2.01,2.02,2.01
146.32,9.36,7.40,9.34,7.38,-7.38,-7.41,-7.25,1.98,1.96,1.96
147.78,9.26,7.36,9.27,7.36,-7.37,-7.40,-7.15,1.89,1.89,1.90
149.26,9.18,7.33,9.21,7.36,-7.36,-7.40,-7.06,1.82,1.85,1.86
150.75,9.16,7.36,9.16,7.35,-7.36,-7.39,-6.97,1.81,1.80,1.81
152.26,9.13,7.37,9.12,7.35,-7.35,-7.38,-6.88,1.78,1.77,1.76
153.78,9.06,7.34,9.07,7.35,-7.34,-7.37,-6.80,1.72,1.73,1.73
155.32,9.00,7.32,9.01,7.33,-7.33,-7.36,-6.71,1.68,1.68,1.68
156.88,8.95,7.32,8.95,7.31,-7.31,-7.35,-6.63,1.64,1.64,1.64
158.44,8.88,7.28,8.90,7.30,-7.29,-7.33,-6.55,1.59,1.61,1.60
160.03,8.86,7.30,8.85,7.29,-7.27,-7.32,-6.48,1.59,1.58,1.56
161.63,8.78,7.26,8.77,7.25,-7.25,-7.30,-6.40,1.54,1.53,1.52
163.24,8.69,7.22,8.70,7.22,-7.22,-7.28,-6.34,1.48,1.48,1.48
164.88,8.58,7.15,8.61,7.17,-7.19,-7.26,-6.27,1.40,1.42,1.44
166.53,8.55,7.15,8.54,7.14,-7.16,-7.24,-6.21,1.40,1.39,1.40
168.19,8.47,7.11,8.48,7.12,-7.12,-7.21,-6.15,1.35,1.36,1.36
169.87,8.43,7.11,8.43,7.10,-7.08,-7.19,-6.10,1.35,1.34,1.32
171.57,8.34,7.06,8.35,7.07,-7.05,-7.16,-6.05,1.29,1.30,1.29
173.29,8.29,7.04,8.27,7.02,-7.02,-7.13,-6.01,1.27,1.25,1.25
175.02,8.19,6.98,8.20,6.98,-7.00,-7.11,-5.97,1.20,1.20,1.22
176.77,8.11,6.92,8.14,6.95,-6.97,-7.08,-5.94,1.14,1.17,1.19
178.54,8.10,6.95,8.09,6.94,-6.95,-7.04,-5.91,1.16,1.15,1.16
180.32,8.07,6.94,8.06,6.93,-6.92,-7.01,-5.88,1.15,1.14,1.13
182.13,8.02,6.91,8.02,6.92,-6.90,-6.98,-5.86,1.13,1.13,1.11
183.95,7.96,6.87,7.97,6.89,-6.87,-6.94,-5.85,1.09,1.10,1.09
185.79,7.92,6.87,7.92,6.85,-6.85,-6.90,-5.83,1.07,1.07,1.06
187.65,7.86,6.82,7.86,6.82,-6.83,-6.86,-5.82,1.04,1.04,1.05
189.52,7.80,6.78,7.81,6.79,-6.80,-6.82,-5.82,1.00,1.01,1.03
191.42,7.77,6.76,7.77,6.76,-6.77,-6.78,-5.82,1.00,1.00,1.01
193.33,7.71,6.72,7.73,6.74,-6.74,-6.74,-5.82,0.98,0.99,0.99
195.27,7.70,6.72,7.69,6.71,-6.70,-6.70,-5.83,1.00,0.99,0.98
197.22,7.64,6.68,7.64,6.67,-6.66,-6.65,-5.84,0.98,0.98,0.97
199.19,7.56,6.62,7.58,6.63,-6.62,-6.61,-5.86,0.94,0.96,0.95
201.18,7.52,6.59,7.51,6.58,-6.57,-6.56,-5.87,0.95,0.94,0.93
203.19,7.44,6.53,7.44,6.52,-6.52,-6.51,-5.89,0.92,0.92,0.92
205.23,7.36,6.46,7.37,6.47,-6.47,-6.46,-5.91,0.90,0.90,0.90
207.28,7.28,6.40,7.29,6.41,-6.41,-6.41,-5.93,0.87,0.88,0.89
209.35,7.22,6.36,7.22,6.35,-6.36,-6.36,-5.96,0.86,0.85,0.86
211.44,7.15,6.31,7.16,6.31,-6.31,-6.31,-5.99,0.84,0.84,0.85
213.56,7.08,6.25,7.09,6.26,-6.27,-6.26,-6.01,0.82,0.82,0.84
215.69,7.04,6.23,7.03,6.21,-6.22,-6.21,-6.04,0.82,0.80,0.81
217.85,6.95,6.15,6.98,6.18,-6.18,-6.15,-6.06,0.78,0.80,0.80
220.03,6.93,6.16,6.92,6.14,-6.13,-6.10,-6.09,0.80,0.79,0.78
222.23,6.88,6.12,6.86,6.09,-6.08,-6.04,-6.11,0.81,0.78,0.77
224.45,6.77,6.02,6.80,6.05,-6.02,-5.99,-6.14,0.75,0.78,0.76
226.70,6.72,5.98,6.72,5.98,-5.97,-5.93,-6.16,0.75,0.75,0.74
228.96,6.66,5.93,6.64,5.90,-5.91,-5.87,-6.17,0.75,0.73,0.73
231.25,6.55,5.82,6.57,5.83,-5.85,-5.82,-6.18,0.70,0.71,0.73
233.57,6.48,5.76,6.50,5.78,-5.79,-5.76,-6.19,0.69,0.71,0.73
235.90,6.45,5.73,6.45,5.73,-5.73,-5.70,-6.20,0.72,0.72,0.73
238.26,6.43,5.72,6.41,5.69,-5.68,-5.64,-6.20,0.75,0.73,0.72
240.64,6.35,5.63,6.36,5.64,-5.63,-5.58,-6.19,0.73,0.73,0.73
243.05,6.30,5.57,6.31,5.58,-5.58,-5.52,-6.18,0.73,0.73,0.73
245.48,6.25,5.52,6.26,5.53,-5.53,-5.46,-6.16,0.72,0.73,0.73
247.93,6.22,5.49,6.22,5.48,-5.48,-5.40,-6.13,0.74,0.73,0.73
250.41,6.17,5.44,6.17,5.43,-5.43,-5.34,-6.10,0.74,0.74,0.74
252.92,6.11,5.37,6.12,5.38,-5.38,-5.28,-6.06,0.73,0.74,0.74
255.45,6.07,5.33,6.07,5.33,-5.33,-5.22,-6.02,0.75,0.74,0.74
258.00,6.01,5.28,6.02,5.28,-5.28,-5.16,-5.97,0.74,0.74,0.74
260.58,5.95,5.22,5.96,5.23,-5.23,-5.10,-5.91,0.73,0.73,0.73
263.19,5.90,5.18,5.89,5.17,-5.18,-5.04,-5.85,0.73,0.71,0.72
265.82,5.82,5.12,5.83,5.12,-5.12,-4.97,-5.78,0.70,0.71,0.71
268.48,5.76,5.06,5.77,5.07,-5.07,-4.91,-5.70,0.70,0.70,0.70
271.16,5.71,5.03,5.70,5.02,-5.01,-4.85,-5.62,0.70,0.69,0.69
273.87,5.62,4.95,5.63,4.96,-4.95,-4.79,-5.54,0.68,0.69,0.67
276.61,5.57,4.91,5.56,4.89,-4.88,-4.73,-5.45,0.69,0.67,0.67
279.38,5.46,4.80,5.48,4.82,-4.82,-4.67,-5.36,0.64,0.66,0.66
282.17,5.40,4.76,5.39,4.74,-4.75,-4.61,-5.27,0.65,0.64,0.65
284.99,5.31,4.67,5.31,4.67,-4.68,-4.54,-5.17,0.63,0.63,0.64
287.84,5.21,4.58,5.25,4.62,-4.61,-4.48,-5.07,0.60,0.64,0.64
290.72,5.21,4.59,5.17,4.55,-4.54,-4.42,-4.97,0.67,0.63,0.62
293.63,5.10,4.48,5.10,4.48,-4.48,-4.36,-4.87,0.62,0.62,0.62
296.57,5.00,4.39,5.03,4.41,-4.42,-4.30,-4.77,0.58,0.61,0.62
299.53,4.96,4.34,4.96,4.34,-4.36,-4.24,-4.66,0.60,0.60,0.62
302.53,4.92,4.31,4.92,4.30,-4.31,-4.18,-4.56,0.61,0.61,0.62
305.55,4.88,4.28,4.88,4.27,-4.26,-4.12,-4.46,0.62,0.62,0.60
308.61,4.81,4.21,4.82,4.22,-4.21,-4.06,-4.36,0.61,0.61,0.60
311.69,4.76,4.17,4.76,4.17,-4.16,-4.00,-4.26,0.60,0.60,0.60
314.81,4.70,4.12,4.70,4.11,-4.11,-3.94,-4.16,0.59,0.59,0.59
317.96,4.63,4.05,4.64,4.06,-4.06,-3.88,-4.06,0.57,0.58,0.58
321.14,4.58,4.00,4.58,4.00,-4.01,-3.82,-3.96,0.57,0.57,0.58
324.35,4.51,3.95,4.52,3.95,-3.95,-3.76,-3.87,0.56,0.57,0.57
327.59,4.45,3.90,4.45,3.89,-3.89,-3.70,-3.78,0.56,0.56,0.55
330.87,4.39,3.84,4.39,3.84,-3.82,-3.65,-3.69,0.57,0.56,0.55
334.18,4.30,3.75,4.32,3.77,-3.76,-3.59,-3.60,0.55,0.56,0.55
337.52,4.25,3.71,4.23,3.69,-3.68,-3.53,-3.51,0.57,0.55,0.55
340.90,4.13,3.60,4.15,3.61,-3.61,-3.47,-3.43,0.52,0.54,0.53
344.30,4.06,3.53,4.07,3.53,-3.54,-3.42,-3.35,0.53,0.53,0.53
347.75,3.99,3.46,3.97,3.44,-3.46,-3.36,-3.27,0.53,0.51,0.53
351.23,3.88,3.37,3.90,3.38,-3.39,-3.30,-3.19,0.50,0.51,0.52
354.74,3.80,3.29,3.83,3.31,-3.31,-3.25,-3.12,0.49,0.52,0.52
358.28,3.78,3.27,3.76,3.25,-3.24,-3.19,-3.05,0.55,0.52,0.51
361.87,3.70,3.19,3.69,3.18,-3.17,-3.13,-2.98,0.54,0.53,0.51
365.49,3.61,3.10,3.62,3.11,-3.10,-3.08,-2.91,0.51,0.52,0.51
369.14,3.52,3.01,3.54,3.03,-3.04,-3.02,-2.84,0.49,0.50,0.51
372.83,3.47,2.97,3.47,2.96,-2.98,-2.97,-2.78,0.49,0.49,0.51
376.56,3.42,2.92,3.41,2.91,-2.92,-2.92,-2.72,0.50,0.49,0.51
380.33,3.35,2.86,3.37,2.87,-2.86,-2.86,-2.66,0.49,0.50,0.50
384.13,3.31,2.82,3.31,2.82,-2.81,-2.81,-2.60,0.50,0.50,0.49
387.97,3.25,2.77,3.25,2.77,-2.76,-2.75,-2.55,0.49,0.49,0.48
391.85,3.18,2.71,3.19,2.72,-2.72,-2.70,-2.50,0.47,0.48,0.47
395.77,3.13,2.67,3.12,2.66,-2.67,-2.65,-2.45,0.46,0.45,0.46
399.73,3.05,2.60,3.06,2.61,-2.62,-2.60,-2.40,0.44,0.44,0.45
403.72,2.99,2.56,3.01,2.57,-2.56,-2.54,-2.35,0.43,0.44,0.44
407.76,2.94,2.53,2.94,2.52,-2.51,-2.49,-2.30,0.44,0.43,0.42
411.84,2.89,2.49,2.87,2.46,-2.45,-2.44,-2.26,0.44,0.42,0.41
415.96,2.77,2.38,2.79,2.40,-2.39,-2.39,-2.21,0.38,0.40,0.39
420.12,2.70,2.32,2.71,2.32,-2.34,-2.34,-2.17,0.37,0.37,0.38
424.32,2.64,2.26,2.64,2.26,-2.27,-2.29,-2.13,0.37,0.37,0.38
428.56,2.58,2.20,2.59,2.21,-2.21,-2.24,-2.09,0.38,0.38,0.38
432.85,2.55,2.16,2.55,2.15,-2.14,-2.19,-2.05,0.41,0.40,0.39
437.18,2.50,2.09,2.51,2.10,-2.08,-2.14,-2.01,0.42,0.43,0.41
441.55,2.46,2.03,2.46,2.03,-2.02,-2.09,-1.97,0.44,0.44,0.43
445.96,2.42,1.97,2.41,1.95,-1.96,-2.04,-1.93,0.46,0.44,0.46
450.42,2.35,1.86,2.39,1.89,-1.91,-1.99,-1.90,0.44,0.48,0.50
454.93,2.37,1.84,2.39,1.85,-1.86,-1.94,-1.86,0.51,0.53,0.54
459.48,2.43,1.85,2.39,1.81,-1.81,-1.89,-1.82,0.62,0.58,0.59
464.07,2.39,1.77,2.40,1.77,-1.76,-1.84,-1.78,0.63,0.64,0.63
468.71,2.37,1.70,2.40,1.72,-1.71,-1.79,-1.74,0.66,0.68,0.68
473.40,2.39,1.67,2.40,1.67,-1.66,-1.74,-1.70,0.73,0.73,0.72
478.13,2.40,1.63,2.40,1.62,-1.61,-1.69,-1.66,0.80,0.79,0.77
482.91,2.40,1.59,2.38,1.56,-1.55,-1.65,-1.62,0.86,0.83,0.81
487.74,2.32,1.47,2.35,1.50,-1.48,-1.60,-1.58,0.84,0.86,0.85
492.62,2.29,1.41,2.30,1.41,-1.42,-1.55,-1.54,0.88,0.88,0.88
497.55,2.26,1.36,2.24,1.33,-1.35,-1.50,-1.50,0.91,0.88,0.90
502.52,2.17,1.25,2.21,1.29,-1.29,-1.45,-1.45,0.88,0.91,0.92
507.55,2.15,1.22,2.16,1.23,-1.24,-1.41,-1.41,0.92,0.92,0.93
512.62,2.14,1.22,2.10,1.17,-1.19,-1.36,-1.36,0.96,0.91,0.92
