frequency,raw,error,smoothed,error_smoothed,equalization,parametric_eq,fixed_band_eq,equalized_raw,equalized_smoothed,target
20.00,-2.95,1.49,-2.95,1.50,-1.50,-1.84,-1.49,-4.44,-4.44,-4.44
20.20,-2.88,1.56,-2.88,1.56,-1.56,-1.87,-1.53,-4.43,-4.44,-4.44
20.40,-2.82,1.62,-2.81,1.62,-1.62,-1.90,-1.57,-4.43,-4.43,-4.43
20.61,-2.75,1.67,-2.75,1.68,-1.68,-1.94,-1.62,-4.42,-4.42,-4.42
20.81,-2.69,1.74,-2.68,1.73,-1.74,-1.97,-1.67,-4.42,-4.42,-4.42
21.02,-2.62,1.79,-2.62,1.79,-1.80,-2.01,-1.72,-4.41,-4.41,-4.41
21.23,-2.56,1.85,-2.55,1.85,-1.86,-2.04,-1.77,-4.41,-4.41,-4.41
21.44,-2.49,1.92,-2.49,1.91,-1.91,-2.08,-1.82,-4.40,-4.40,-4.40
21.66,-2.42,1.97,-2.42,1.98,-1.97,-2.11,-1.87,-4.39,-4.39,-4.39
21.87,-2.36,2.04,-2.35,2.03,-2.03,-2.15,-1.92,-4.39,-4.39,-4.39
22.09,-2.29,2.10,-2.29,2.09,-2.09,-2.19,-1.98,-4.38,-4.38,-4.38
22.31,-2.23,2.15,-2.22,2.15,-2.15,-2.22,-2.04,-4.38,-4.37,-4.37
22.54,-2.16,2.21,-2.16,2.21,-2.21,-2.26,-2.10,-4.37,-4.37,-4.37
22.76,-2.10,2.27,-2.09,2.27,-2.27,-2.30,-2.16,-4.36,-4.36,-4.36
22.99,-2.03,2.32,-2.03,2.32,-2.32,-2.34,-2.22,-4.35,-4.35,-4.35
23.22,-1.97,2.37,-1.96,2.38,-2.38,-2.38,-2.28,-4.34,-4.34,-4.34
23.45,-1.90,2.43,-1.90,2.43,-2.43,-2.42,-2.35,-4.33,-4.33,-4.33
23.69,-1.84,2.48,-1.83,2.49,-2.49,-2.46,-2.42,-4.33,-4.32,-4.32
23.92,-1.77,2.55,-1.77,2.54,-2.54,-2.50,-2.48,-4.31,-4.31,-4.31
24.16,-1.71,2.60,-1.70,2.60,-2.59,-2.54,-2.55,-4.30,-4.30,-4.30
24.40,-1.64,2.66,-1.64,2.65,-2.65,-2.58,-2.62,-4.28,-4.29,-4.29
24.65,-1.58,2.69,-1.58,2.70,-2.70,-2.62,-2.69,-4.28,-4.28,-4.27
24.89,-1.52,2.75,-1.51,2.75,-2.75,-2.66,-2.76,-4.27,-4.26,-4.26
25.14,-1.46,2.80,-1.45,2.80,-2.80,-2.70,-2.84,-4.26,-4.25,-4.25
25.39,-1.39,2.86,-1.39,2.85,-2.85,-2.74,-2.91,-4.24,-4.24,-4.24
25.65,-1.33,2.90,-1.33,2.90,-2.90,-2.79,-2.98,-4.23,-4.23,-4.23
25.91,-1.27,2.94,-1.27,2.95,-2.95,-2.83,-3.06,-4.22,-4.21,-4.21
26.16,-1.21,3.00,-1.21,3.00,-3.00,-2.87,-3.13,-4.20,-4.20,-4.20
26.43,-1.15,3.04,-1.15,3.04,-3.04,-2.91,-3.20,-4.19,-4.19,-4.19
26.69,-1.09,3.09,-1.09,3.09,-3.09,-2.96,-3.28,-4.18,-4.18,-4.18
26.96,-1.03,3.13,-1.03,3.14,-3.14,-3.00,-3.35,-4.16,-4.16,-4.16
27.23,-0.97,3.18,-0.97,3.18,-3.18,-3.04,-3.42,-4.15,-4.15,-4.15
27.50,-0.91,3.22,-0.91,3.23,-3.23,-3.08,-3.49,-4.13,-4.13,-4.13
27.77,-0.85,3.28,-0.84,3.27,-3.27,-3.13,-3.55,-4.12,-4.12,-4.12
28.05,-0.79,3.31,-0.79,3.32,-3.32,-3.17,-3.62,-4.10,-4.10,-4.10
28.33,-0.73,3.36,-0.73,3.36,-3.36,-3.21,-3.68,-4.09,-4.09,-4.09
28.62,-0.68,3.39,-0.67,3.40,-3.40,-3.25,-3.74,-4.08,-4.08,-4.07
28.90,-0.62,3.44,-0.62,3.44,-3.44,-3.30,-3.79,-4.06,-4.06,-4.06
29.19,-0.57,3.47,-0.56,3.48,-3.48,-3.34,-3.84,-4.05,-4.05,-4.04
29.48,-0.51,3.52,-0.51,3.52,-3.52,-3.38,-3.89,-4.02,-4.02,-4.03
29.78,-0.46,3.55,-0.46,3.56,-3.55,-3.42,-3.93,-4.01,-4.01,-4.01
30.08,-0.41,3.59,-0.41,3.59,-3.58,-3.46,-3.97,-3.99,-3.99,-4.00
30.38,-0.38,3.60,-0.37,3.61,-3.61,-3.50,-4.00,-3.98,-3.98,-3.98
30.68,-0.34,3.63,-0.34,3.63,-3.63,-3.55,-4.03,-3.97,-3.97,-3.97
30.99,-0.31,3.64,-0.30,3.65,-3.65,-3.59,-4.05,-3.96,-3.96,-3.95
31.30,-0.27,3.67,-0.27,3.67,-3.67,-3.62,-4.07,-3.94,-3.94,-3.94
31.61,-0.24,3.68,-0.23,3.69,-3.69,-3.66,-4.08,-3.93,-3.93,-3.92
31.93,-0.20,3.71,-0.20,3.71,-3.71,-3.70,-4.09,-3.91,-3.91,-3.91
32.24,-0.16,3.73,-0.16,3.73,-3.73,-3.74,-4.10,-3.89,-3.89,-3.89
32.57,-0.13,3.75,-0.12,3.76,-3.76,-3.78,-4.09,-3.88,-3.88,-3.88
32.89,-0.09,3.77,-0.09,3.78,-3.78,-3.81,-4.09,-3.86,-3.86,-3.86
33.22,-0.05,3.80,-0.05,3.80,-3.80,-3.85,-4.08,-3.85,-3.85,-3.85
33.55,-0.01,3.82,-0.01,3.83,-3.83,-3.88,-4.06,-3.83,-3.83,-3.83
33.89,0.03,3.85,0.03,3.85,-3.85,-3.91,-4.04,-3.82,-3.82,-3.82
34.23,0.07,3.87,0.07,3.87,-3.87,-3.94,-4.02,-3.80,-3.80,-3.80
34.57,0.10,3.89,0.11,3.90,-3.90,-3.98,-4.00,-3.79,-3.79,-3.79
34.92,0.14,3.92,0.14,3.92,-3.92,-4.00,-3.97,-3.78,-3.78,-3.78
35.27,0.18,3.94,0.18,3.94,-3.95,-4.03,-3.94,-3.76,-3.77,-3.76
35.62,0.21,3.96,0.22,3.97,-3.97,-4.06,-3.91,-3.76,-3.76,-3.75
35.97,0.25,3.99,0.25,3.99,-4.00,-4.09,-3.88,-3.74,-3.75,-3.74
36.33,0.29,4.02,0.29,4.03,-4.03,-4.11,-3.84,-3.73,-3.73,-3.73
36.70,0.33,4.05,0.34,4.06,-4.05,-4.13,-3.81,-3.72,-3.72,-3.72
37.06,0.38,4.09,0.38,4.09,-4.08,-4.15,-3.77,-3.70,-3.71,-3.71
37.43,0.41,4.11,0.41,4.11,-4.11,-4.17,-3.74,-3.70,-3.70,-3.70
37.81,0.44,4.13,0.45,4.14,-4.14,-4.19,-3.70,-3.70,-3.69,-3.69
38.19,0.48,4.16,0.48,4.16,-4.17,-4.21,-3.67,-3.68,-3.68,-3.68
38.57,0.52,4.19,0.52,4.19,-4.20,-4.22,-3.64,-3.67,-3.67,-3.67
38.95,0.56,4.22,0.56,4.22,-4.22,-4.23,-3.61,-3.66,-3.66,-3.66
39.34,0.59,4.24,0.59,4.25,-4.25,-4.24,-3.58,-3.65,-3.65,-3.65
39.74,0.62,4.26,0.62,4.27,-4.27,-4.25,-3.55,-3.65,-3.65,-3.64
40.14,0.65,4.29,0.66,4.29,-4.29,-4.26,-3.52,-3.64,-3.64,-3.64
40.54,0.68,4.31,0.69,4.32,-4.31,-4.27,-3.50,-3.63,-3.63,-3.63
40.94,0.72,4.34,0.71,4.34,-4.33,-4.27,-3.48,-3.61,-3.62,-3.62
41.35,0.73,4.34,0.73,4.35,-4.34,-4.27,-3.46,-3.61,-3.61,-3.61
41.76,0.74,4.34,0.75,4.35,-4.35,-4.27,-3.44,-3.61,-3.60,-3.60
42.18,0.76,4.35,0.76,4.35,-4.35,-4.27,-3.42,-3.59,-3.59,-3.59
42.60,0.77,4.35,0.77,4.36,-4.35,-4.26,-3.41,-3.58,-3.58,-3.58
43.03,0.78,4.35,0.78,4.35,-4.35,-4.26,-3.40,-3.56,-3.57,-3.57
43.46,0.78,4.34,0.78,4.34,-4.34,-4.25,-3.40,-3.56,-3.56,-3.56
43.90,0.77,4.32,0.78,4.33,-4.33,-4.24,-3.39,-3.56,-3.55,-3.55
44.33,0.77,4.30,0.78,4.31,-4.32,-4.23,-3.39,-3.54,-3.54,-3.53
44.78,0.77,4.29,0.77,4.29,-4.30,-4.21,-3.39,-3.52,-3.52,-3.52
45.23,0.77,4.28,0.77,4.28,-4.28,-4.20,-3.39,-3.50,-3.51,-3.51
45.68,0.76,4.25,0.76,4.26,-4.25,-4.18,-3.40,-3.49,-3.49,-3.49
46.13,0.75,4.23,0.75,4.23,-4.23,-4.16,-3.41,-3.47,-3.47,-3.48
46.60,0.73,4.19,0.74,4.20,-4.20,-4.14,-3.42,-3.46,-3.46,-3.46
47.06,0.72,4.17,0.72,4.17,-4.17,-4.12,-3.44,-3.44,-3.45,-3.45
47.53,0.69,4.12,0.70,4.13,-4.13,-4.09,-3.45,-3.44,-3.44,-3.43
48.01,0.67,4.09,0.68,4.09,-4.10,-4.07,-3.47,-3.42,-3.42,-3.42
48.49,0.65,4.05,0.65,4.06,-4.06,-4.04,-3.49,-3.41,-3.41,-3.40
48.97,0.63,4.02,0.63,4.02,-4.03,-4.01,-3.51,-3.39,-3.39,-3.39
49.46,0.61,3.98,0.61,3.99,-3.99,-3.98,-3.54,-3.38,-3.37,-3.37
49.96,0.59,3.95,0.59,3.96,-3.95,-3.94,-3.56,-3.36,-3.36,-3.36
50.46,0.57,3.92,0.57,3.92,-3.91,-3.91,-3.59,-3.34,-3.34,-3.35
50.96,0.54,3.87,0.54,3.88,-3.87,-3.87,-3.62,-3.33,-3.33,-3.33
51.47,0.51,3.83,0.51,3.83,-3.83,-3.84,-3.65,-3.32,-3.32,-3.32
51.99,0.47,3.78,0.48,3.79,-3.79,-3.80,-3.68,-3.32,-3.31,-3.31
52.51,0.44,3.74,0.45,3.75,-3.75,-3.76,-3.71,-3.31,-3.30,-3.30
53.03,0.42,3.71,0.42,3.70,-3.70,-3.72,-3.74,-3.28,-3.29,-3.29
53.56,0.38,3.65,0.38,3.66,-3.66,-3.68,-3.77,-3.28,-3.27,-3.27
54.10,0.34,3.60,0.35,3.61,-3.61,-3.64,-3.79,-3.27,-3.26,-3.26
54.64,0.31,3.56,0.31,3.56,-3.56,-3.59,-3.82,-3.25,-3.25,-3.25
55.18,0.27,3.52,0.27,3.52,-3.51,-3.55,-3.84,-3.24,-3.24,-3.25
55.74,0.22,3.47,0.23,3.47,-3.46,-3.50,-3.87,-3.24,-3.24,-3.24
56.29,0.17,3.40,0.17,3.41,-3.41,-3.46,-3.89,-3.24,-3.23,-3.23
56.86,0.12,3.35,0.12,3.35,-3.36,-3.41,-3.90,-3.23,-3.23,-3.23
57.42,0.07,3.29,0.07,3.30,-3.30,-3.36,-3.91,-3.23,-3.23,-3.22
58.00,0.02,3.24,0.02,3.24,-3.25,-3.31,-3.92,-3.22,-3.22,-3.22
58.58,-0.03,3.18,-0.03,3.19,-3.19,-3.26,-3.93,-3.22,-3.22,-3.21
59.16,-0.08,3.13,-0.08,3.13,-3.13,-3.21,-3.92,-3.21,-3.21,-3.21
59.76,-0.14,3.07,-0.13,3.07,-3.07,-3.16,-3.92,-3.21,-3.21,-3.21
60.35,-0.20,3.01,-0.19,3.02,-3.01,-3.11,-3.90,-3.21,-3.20,-3.21
60.96,-0.26,2.95,-0.26,2.95,-2.94,-3.06,-3.89,-3.20,-3.20,-3.21
61.57,-0.33,2.88,-0.33,2.88,-2.88,-3.01,-3.86,-3.20,-3.21,-3.21
62.18,-0.40,2.81,-0.40,2.81,-2.81,-2.96,-3.83,-3.21,-3.21,-3.21
62.80,-0.48,2.73,-0.48,2.74,-2.75,-2.90,-3.79,-3.22,-3.22,-3.21
63.43,-0.55,2.66,-0.54,2.67,-2.68,-2.85,-3.75,-3.22,-3.22,-3.21
64.07,-0.62,2.60,-0.61,2.61,-2.61,-2.80,-3.70,-3.23,-3.22,-3.22
64.71,-0.67,2.55,-0.67,2.55,-2.55,-2.74,-3.64,-3.21,-3.22,-3.22
65.35,-0.74,2.48,-0.73,2.49,-2.48,-2.69,-3.57,-3.22,-3.22,-3.22
66.01,-0.80,2.42,-0.80,2.42,-2.42,-2.64,-3.51,-3.21,-3.22,-3.22
66.67,-0.87,2.35,-0.86,2.36,-2.36,-2.58,-3.43,-3.22,-3.22,-3.22
67.33,-0.93,2.29,-0.93,2.30,-2.29,-2.53,-3.35,-3.22,-3.22,-3.22
68.01,-1.00,2.23,-0.99,2.23,-2.23,-2.47,-3.26,-3.23,-3.23,-3.23
68.69,-1.06,2.17,-1.06,2.17,-2.17,-2.42,-3.17,-3.23,-3.23,-3.23
69.37,-1.12,2.11,-1.12,2.11,-2.11,-2.36,-3.08,-3.23,-3.23,-3.23
70.07,-1.18,2.05,-1.17,2.06,-2.06,-2.31,-2.98,-3.23,-3.23,-3.23
70.77,-1.23,2.00,-1.23,2.00,-2.01,-2.25,-2.87,-3.23,-3.23,-3.23
71.48,-1.28,1.95,-1.28,1.96,-1.96,-2.20,-2.77,-3.23,-3.23,-3.23
72.19,-1.32,1.91,-1.32,1.91,-1.91,-2.14,-2.66,-3.23,-3.23,-3.23
72.91,-1.36,1.86,-1.36,1.87,-1.87,-2.09,-2.54,-3.23,-3.23,-3.22
73.64,-1.39,1.83,-1.39,1.83,-1.83,-2.03,-2.43,-3.22,-3.22,-3.22
74.38,-1.42,1.79,-1.42,1.80,-1.80,-1.98,-2.31,-3.22,-3.22,-3.21
75.12,-1.44,1.77,-1.44,1.77,-1.77,-1.92,-2.19,-3.21,-3.21,-3.21
75.87,-1.46,1.74,-1.45,1.75,-1.75,-1.86,-2.07,-3.20,-3.20,-3.20
76.63,-1.47,1.72,-1.47,1.72,-1.72,-1.81,-1.95,-3.19,-3.19,-3.19
77.40,-1.49,1.69,-1.48,1.70,-1.69,-1.75,-1.83,-3.18,-3.18,-3.18
78.17,-1.50,1.67,-1.50,1.67,-1.67,-1.70,-1.71,-3.16,-3.16,-3.17
78.95,-1.52,1.64,-1.52,1.64,-1.64,-1.64,-1.59,-3.15,-3.15,-3.16
79.74,-1.54,1.61,-1.54,1.61,-1.61,-1.58,-1.46,-3.14,-3.15,-3.15
80.54,-1.57,1.57,-1.57,1.57,-1.58,-1.53,-1.34,-3.14,-3.14,-3.14
81.35,-1.60,1.53,-1.59,1.54,-1.55,-1.47,-1.22,-3.14,-3.14,-3.13
82.16,-1.62,1.50,-1.61,1.51,-1.52,-1.41,-1.09,-3.14,-3.13,-3.12
82.98,-1.63,1.48,-1.63,1.48,-1.49,-1.35,-0.97,-3.11,-3.12,-3.11
83.81,-1.65,1.45,-1.64,1.46,-1.46,-1.30,-0.85,-3.10,-3.10,-3.10
84.65,-1.66,1.43,-1.66,1.43,-1.42,-1.24,-0.72,-3.08,-3.08,-3.09
85.50,-1.69,1.39,-1.69,1.40,-1.38,-1.18,-0.60,-3.07,-3.07,-3.08
86.35,-1.72,1.35,-1.72,1.36,-1.34,-1.12,-0.48,-3.06,-3.06,-3.07
87.22,-1.76,1.30,-1.76,1.30,-1.30,-1.06,-0.35,-3.06,-3.06,-3.06
88.09,-1.80,1.25,-1.80,1.25,-1.25,-1.00,-0.23,-3.05,-3.05,-3.05
88.97,-1.85,1.18,-1.84,1.20,-1.20,-0.94,-0.11,-3.04,-3.04,-3.03
89.86,-1.88,1.14,-1.88,1.14,-1.14,-0.88,0.02,-3.02,-3.03,-3.02
90.76,-1.93,1.08,-1.92,1.08,-1.09,-0.82,0.14,-3.02,-3.01,-3.01
91.66,-1.97,1.02,-1.96,1.03,-1.04,-0.76,0.26,-3.00,-3.00,-2.99
92.58,-2.01,0.97,-2.01,0.97,-0.98,-0.70,0.38,-2.99,-2.99,-2.98
93.51,-2.05,0.92,-2.04,0.92,-0.92,-0.63,0.51,-2.97,-2.97,-2.97
94.44,-2.09,0.86,-2.09,0.87,-0.86,-0.57,0.63,-2.95,-2.95,-2.95
95.39,-2.13,0.81,-2.13,0.81,-0.80,-0.51,0.75,-2.92,-2.93,-2.94
96.34,-2.19,0.73,-2.18,0.74,-0.73,-0.44,0.87,-2.91,-2.91,-2.92
97.30,-2.25,0.66,-2.25,0.67,-0.66,-0.38,0.99,-2.90,-2.90,-2.91
98.28,-2.32,0.58,-2.32,0.58,-0.58,-0.31,1.11,-2.90,-2.90,-2.90
99.26,-2.39,0.50,-2.39,0.50,-0.51,-0.24,1.23,-2.89,-2.89,-2.89
100.25,-2.46,0.41,-2.46,0.41,-0.43,-0.17,1.35,-2.89,-2.89,-2.87
101.25,-2.53,0.33,-2.53,0.34,-0.36,-0.10,1.47,-2.88,-2.88,-2.86
102.27,-2.60,0.25,-2.58,0.27,-0.28,-0.03,1.59,-2.88,-2.86,-2.85
103.29,-2.64,0.21,-2.64,0.21,-0.20,0.04,1.71,-2.84,-2.84,-2.85
104.32,-2.70,0.14,-2.70,0.14,-0.12,0.11,1.82,-2.82,-2.83,-2.84
105.37,-2.78,0.05,-2.77,0.06,-0.04,0.19,1.94,-2.82,-2.82,-2.83
106.42,-2.87,-0.04,-2.86,-0.03,0.04,0.26,2.05,-2.82,-2.82,-2.83
107.48,-2.96,-0.13,-2.96,-0.13,0.13,0.34,2.16,-2.82,-2.83,-2.83
108.56,-3.07,-0.24,-3.06,-0.23,0.23,0.42,2.26,-2.84,-2.83,-2.83
109.64,-3.17,-0.34,-3.16,-0.33,0.33,0.50,2.37,-2.84,-2.83,-2.83
110.74,-3.26,-0.43,-3.26,-0.43,0.43,0.58,2.47,-2.83,-2.83,-2.83
111.85,-3.37,-0.54,-3.37,-0.54,0.53,0.67,2.57,-2.84,-2.84,-2.83
112.97,-3.49,-0.65,-3.48,-0.64,0.63,0.76,2.66,-2.86,-2.85,-2.84
114.10,-3.59,-0.75,-3.59,-0.75,0.73,0.84,2.75,-2.86,-2.86,-2.84
115.24,-3.70,-0.85,-3.68,-0.83,0.83,0.93,2.83,-2.87,-2.85,-2.85
116.39,-3.77,-0.92,-3.77,-0.92,0.93,1.03,2.91,-2.83,-2.84,-2.85
117.55,-3.87,-1.01,-3.88,-1.02,1.04,1.12,2.99,-2.83,-2.84,-2.86
118.73,-4.01,-1.15,-4.01,-1.14,1.15,1.22,3.06,-2.86,-2.86,-2.86
119.92,-4.15,-1.28,-4.14,-1.28,1.27,1.32,3.12,-2.88,-2.88,-2.87
121.12,-4.30,-1.42,-4.27,-1.40,1.39,1.43,3.18,-2.91,-2.88,-2.87
122.33,-4.38,-1.51,-4.39,-1.52,1.52,1.53,3.23,-2.86,-2.87,-2.87
123.55,-4.50,-1.63,-4.52,-1.65,1.66,1.64,3.28,-2.84,-2.87,-2.87
124.79,-4.68,-1.80,-4.67,-1.80,1.80,1.75,3.31,-2.87,-2.86,-2.87
126.03,-4.86,-1.99,-4.82,-1.95,1.96,1.87,3.35,-2.90,-2.86,-2.87
127.29,-4.97,-2.10,-4.98,-2.11,2.12,1.99,3.37,-2.85,-2.86,-2.87
128.57,-5.13,-2.25,-5.15,-2.28,2.29,2.11,3.39,-2.84,-2.87,-2.87
129.85,-5.34,-2.47,-5.33,-2.46,2.46,2.24,3.41,-2.88,-2.87,-2.87
131.15,-5.56,-2.69,-5.51,-2.64,2.64,2.37,3.42,-2.92,-2.87,-2.87
132.46,-5.67,-2.80,-5.70,-2.83,2.82,2.50,3.42,-2.85,-2.88,-2.87
133.79,-5.86,-2.99,-5.87,-3.01,3.00,2.64,3.42,-2.86,-2.87,-2.86
135.12,-6.09,-3.23,-6.05,-3.19,3.18,2.78,3.41,-2.90,-2.87,-2.86
136.48,-6.22,-3.36,-6.24,-3.38,3.37,2.92,3.40,-2.84,-2.86,-2.86
137.84,-6.43,-3.57,-6.41,-3.54,3.57,3.07,3.38,-2.86,-2.84,-2.86
139.22,-6.58,-3.72,-6.59,-3.73,3.76,3.23,3.36,-2.82,-2.84,-2.86
140.61,-6.78,-3.92,-6.80,-3.94,3.95,3.38,3.34,-2.83,-2.85,-2.86
142.02,-7.05,-4.19,-7.01,-4.15,4.14,3.54,3.32,-2.90,-2.86,-2.85
143.44,-7.19,-4.34,-7.21,-4.36,4.33,3.71,3.29,-2.85,-2.87,-2.85
144.87,-7.42,-4.57,-7.40,-4.55,4.53,3.88,3.26,-2.89,-2.88,-2.85
146.32,-7.56,-4.70,-7.57,-4.71,4.71,4.05,3.23,-2.84,-2.86,-2.86
147.78,-7.77,-4.91,-7.76,-4.90,4.90,4.22,3.20,-2.86,-2.85,-2.86
149.26,-7.92,-5.06,-7.92,-5.06,5.09,4.40,3.17,-2.82,-2.83,-2.86
150.75,-8.12,-5.26,-8.11,-5.25,5.28,4.58,3.13,-2.84,-2.83,-2.86
152.26,-8.27,-5.41,-8.28,-5.41,5.45,4.76,3.10,-2.82,-2.83,-2.86
153.78,-8.47,-5.60,-8.46,-5.60,5.60,4.94,3.07,-2.87,-2.86,-2.87
155.32,-8.63,-5.76,-8.63,-5.76,5.73,5.12,3.04,-2.89,-2.89,-2.87
156.88,-8.81,-5.93,-8.79,-5.92,5.84,5.30,3.01,-2.96,-2.95,-2.87
158.44,-8.92,-6.05,-8.93,-6.06,5.93,5.48,2.98,-2.99,-3.01,-2.87
160.03,-9.08,-6.20,-9.05,-6.18,5.98,5.65,2.95,-3.09,-3.07,-2.88
161.63,-9.16,-6.28,-9.16,-6.28,6.02,5.83,2.93,-3.14,-3.14,-2.88
163.24,-9.25,-6.36,-9.27,-6.38,6.03,5.99,2.90,-3.22,-3.24,-2.89
164.88,-9.38,-6.49,-9.36,-6.47,6.03,6.15,2.88,-3.35,-3.33,-2.89
166.53,-9.47,-6.57,-9.46,-6.56,6.02,6.29,2.86,-3.45,-3.45,-2.90
168.19,-9.55,-6.64,-9.56,-6.65,6.01,6.43,2.84,-3.54,-3.56,-2.91
169.87,-9.66,-6.74,-9.64,-6.72,6.00,6.55,2.82,-3.66,-3.64,-2.92
171.57,-9.72,-6.79,-9.71,-6.79,6.00,6.66,2.81,-3.72,-3.71,-2.93
173.29,-9.77,-6.83,-9.78,-6.84,6.00,6.75,2.80,-3.77,-3.78,-2.94
175.02,-9.84,-6.89,-9.83,-6.87,6.00,6.82,2.79,-3.84,-3.83,-2.95
176.77,-9.88,-6.91,-9.87,-6.91,6.00,6.87,2.78,-3.88,-3.87,-2.97
178.54,-9.91,-6.93,-9.91,-6.93,6.00,6.90,2.77,-3.91,-3.91,-2.98
180.32,-9.95,-6.95,-9.94,-6.95,6.00,6.91,2.77,-3.95,-3.94,-3.00
182.13,-9.98,-6.97,-9.97,-6.96,6.00,6.91,2.77,-3.98,-3.97,-3.01
183.95,-9.99,-6.96,-9.99,-6.96,6.00,6.88,2.77,-3.99,-3.99,-3.03
185.79,-10.00,-6.95,-9.99,-6.95,6.00,6.83,2.77,-4.00,-3.99,-3.05
187.65,-9.99,-6.93,-9.99,-6.93,6.00,6.76,2.78,-3.99,-3.99,-3.06
189.52,-9.99,-6.91,-9.99,-6.90,6.00,6.68,2.79,-3.99,-3.99,-3.08
191.42,-9.98,-6.88,-9.97,-6.87,6.00,6.58,2.80,-3.98,-3.97,-3.10
193.33,-9.94,-6.82,-9.94,-6.83,6.00,6.48,2.81,-3.94,-3.94,-3.12
195.27,-9.91,-6.78,-9.91,-6.78,6.00,6.36,2.82,-3.91,-3.91,-3.13
197.22,-9.88,-6.73,-9.87,-6.72,6.00,6.24,2.84,-3.88,-3.87,-3.15
199.19,-9.84,-6.67,-9.84,-6.67,6.01,6.11,2.85,-3.83,-3.83,-3.17
201.18,-9.80,-6.60,-9.79,-6.60,6.03,5.99,2.87,-3.77,-3.77,-3.20
203.19,-9.74,-6.52,-9.74,-6.52,6.04,5.87,2.89,-3.70,-3.70,-3.22
205.23,-9.67,-6.43,-9.67,-6.43,6.03,5.75,2.91,-3.63,-3.63,-3.24
207.28,-9.58,-6.32,-9.58,-6.31,6.01,5.65,2.93,-3.57,-3.57,-3.26
209.35,-9.47,-6.19,-9.47,-6.18,5.97,5.55,2.95,-3.50,-3.50,-3.28
211.44,-9.34,-6.03,-9.34,-6.03,5.90,5.47,2.97,-3.44,-3.44,-3.31
213.56,-9.19,-5.86,-9.18,-5.84,5.80,5.40,2.99,-3.39,-3.38,-3.33
215.69,-9.02,-5.66,-9.02,-5.66,5.66,5.35,3.01,-3.36,-3.36,-3.36
217.85,-8.84,-5.45,-8.86,-5.48,5.49,5.29,3.03,-3.35,-3.37,-3.39
220.03,-8.71,-5.30,-8.69,-5.28,5.29,5.22,3.04,-3.42,-3.41,-3.41
222.23,-8.53,-5.10,-8.50,-5.07,5.06,5.12,3.06,-3.47,-3.45,-3.43
224.45,-8.28,-4.82,-8.27,-4.82,4.81,4.98,3.07,-3.47,-3.46,-3.46
226.70,-8.02,-4.54,-8.03,-4.54,4.56,4.79,3.08,-3.46,-3.47,-3.48
228.96,-7.76,-4.26,-7.79,-4.29,4.31,4.54,3.08,-3.45,-3.48,-3.50
231.25,-7.59,-4.07,-7.55,-4.04,4.06,4.25,3.09,-3.52,-3.49,-3.52
233.57,-7.35,-3.82,-7.33,-3.80,3.82,3.93,3.09,-3.53,-3.52,-3.53
235.90,-7.08,-3.53,-7.11,-3.56,3.57,3.60,3.08,-3.51,-3.54,-3.55
238.26,-6.90,-3.34,-6.88,-3.32,3.32,3.28,3.07,-3.57,-3.56,-3.56
240.64,-6.66,-3.09,-6.67,-3.10,3.08,2.96,3.06,-3.57,-3.59,-3.57
243.05,-6.47,-2.89,-6.45,-2.87,2.85,2.66,3.04,-3.62,-3.60,-3.58
245.48,-6.23,-2.64,-6.21,-2.62,2.61,2.38,3.02,-3.62,-3.60,-3.59
247.93,-5.95,-2.35,-5.97,-2.37,2.37,2.11,2.99,-3.57,-3.60,-3.60
250.41,-5.75,-2.13,-5.73,-2.11,2.14,1.86,2.95,-3.61,-3.59,-3.61
252.92,-5.49,-1.87,-5.50,-1.88,1.90,1.63,2.91,-3.59,-3.61,-3.62
255.45,-5.29,-1.66,-5.29,-1.66,1.66,1.40,2.87,-3.63,-3.63,-3.63
258.00,-5.10,-1.46,-5.08,-1.44,1.42,1.19,2.81,-3.67,-3.65,-3.64
260.58,-4.85,-1.21,-4.86,-1.21,1.19,0.99,2.76,-3.66,-3.66,-3.64
263.19,-4.64,-0.99,-4.62,-0.97,0.96,0.80,2.70,-3.67,-3.66,-3.65
265.82,-4.38,-0.72,-4.40,-0.74,0.74,0.61,2.63,-3.64,-3.66,-3.66
268.48,-4.19,-0.52,-4.19,-0.52,0.53,0.43,2.56,-3.66,-3.66,-3.67
271.16,-4.02,-0.34,-3.98,-0.30,0.32,0.26,2.48,-3.70,-3.66,-3.68
273.87,-3.77,-0.08,-3.79,-0.10,0.11,0.09,2.40,-3.65,-3.68,-3.69
276.61,-3.61,0.09,-3.61,0.09,-0.08,-0.08,2.32,-3.69,-3.69,-3.70
279.38,-3.46,0.25,-3.45,0.26,-0.26,-0.24,2.23,-3.72,-3.71,-3.71
282.17,-3.30,0.42,-3.30,0.42,-0.43,-0.39,2.14,-3.73,-3.73,-3.72
284.99,-3.17,0.56,-3.15,0.58,-0.59,-0.54,2.04,-3.76,-3.74,-3.73
287.84,-2.99,0.75,-3.00,0.74,-0.74,-0.69,1.95,-3.73,-3.74,-3.74
290.72,-2.85,0.90,-2.85,0.90,-0.89,-0.83,1.85,-3.74,-3.74,-3.75
293.63,-2.73,1.03,-2.72,1.04,-1.03,-0.97,1.75,-3.76,-3.75,-3.76
296.57,-2.61,1.16,-2.61,1.16,-1.16,-1.11,1.64,-3.77,-3.77,-3.77
299.53,-2.50,1.28,-2.50,1.29,-1.29,-1.24,1.54,-3.79,-3.79,-3.78
302.53,-2.39,1.40,-2.38,1.41,-1.42,-1.37,1.43,-3.80,-3.80,-3.79
305.55,-2.28,1.53,-2.27,1.53,-1.53,-1.49,1.32,-3.81,-3.81,-3.81
308.61,-2.17,1.65,-2.17,1.65,-1.64,-1.60,1.21,-3.81,-3.82,-3.82
311.69,-2.08,1.75,-2.08,1.75,-1.75,-1.72,1.10,-3.83,-3.83,-3.83
314.81,-2.01,1.84,-2.00,1.85,-1.85,-1.82,0.99,-3.86,-3.85,-3.85
317.96,-1.93,1.93,-1.92,1.94,-1.95,-1.92,0.88,-3.88,-3.87,-3.86
321.14,-1.84,2.04,-1.84,2.04,-2.04,-2.01,0.77,-3.88,-3.88,-3.88
324.35,-1.77,2.12,-1.77,2.13,-2.12,-2.10,0.65,-3.89,-3.89,-3.89
327.59,-1.71,2.20,-1.71,2.20,-2.19,-2.18,0.54,-3.90,-3.90,-3.91
330.87,-1.66,2.26,-1.65,2.27,-2.26,-2.25,0.43,-3.92,-3.91,-3.92
334.18,-1.62,2.32,-1.62,2.32,-2.32,-2.31,0.31,-3.93,-3.93,-3.94
337.52,-1.58,2.37,-1.58,2.37,-2.37,-2.37,0.20,-3.95,-3.95,-3.95
340.90,-1.57,2.40,-1.56,2.41,-2.41,-2.41,0.09,-3.98,-3.97,-3.97
344.30,-1.54,2.44,-1.54,2.44,-2.45,-2.45,-0.03,-3.99,-3.99,-3.98
347.75,-1.53,2.47,-1.53,2.48,-2.48,-2.49,-0.14,-4.01,-4.01,-4.00
351.23,-1.52,2.50,-1.51,2.51,-2.51,-2.51,-0.26,-4.03,-4.02,-4.02
354.74,-1.50,2.53,-1.50,2.54,-2.53,-2.53,-0.37,-4.02,-4.03,-4.03
358.28,-1.50,2.55,-1.50,2.55,-2.54,-2.54,-0.49,-4.04,-4.04,-4.05
361.87,-1.51,2.56,-1.51,2.56,-2.55,-2.55,-0.60,-4.05,-4.06,-4.07
365.49,-1.54,2.54,-1.53,2.55,-2.55,-2.55,-0.72,-4.08,-4.08,-4.08
369.14,-1.57,2.53,-1.56,2.54,-2.54,-2.55,-0.84,-4.11,-4.10,-4.10
372.83,-1.59,2.52,-1.59,2.52,-2.53,-2.54,-0.95,-4.12,-4.12,-4.11
376.56,-1.63,2.50,-1.62,2.51,-2.51,-2.53,-1.07,-4.14,-4.14,-4.13
380.33,-1.66,2.49,-1.65,2.49,-2.49,-2.52,-1.18,-4.15,-4.15,-4.15
384.13,-1.69,2.47,-1.69,2.48,-2.47,-2.50,-1.30,-4.16,-4.16,-4.16
387.97,-1.72,2.46,-1.72,2.46,-2.45,-2.49,-1.42,-4.17,-4.17,-4.18
391.85,-1.76,2.43,-1.75,2.44,-2.43,-2.47,-1.53,-4.19,-4.19,-4.19
395.77,-1.79,2.41,-1.79,2.42,-2.42,-2.45,-1.65,-4.20,-4.20,-4.20
399.73,-1.82,2.39,-1.81,2.40,-2.40,-2.44,-1.77,-4.22,-4.21,-4.21
403.72,-1.84,2.38,-1.84,2.38,-2.39,-2.42,-1.88,-4.22,-4.23,-4.22
407.76,-1.86,2.37,-1.86,2.38,-2.38,-2.41,-2.00,-4.24,-4.24,-4.23
411.84,-1.88,2.37,-1.87,2.37,-2.38,-2.40,-2.11,-4.26,-4.25,-4.25
415.96,-1.89,2.37,-1.88,2.38,-2.38,-2.40,-2.22,-4.27,-4.27,-4.26
420.12,-1.89,2.38,-1.88,2.39,-2.39,-2.40,-2.34,-4.28,-4.28,-4.27
424.32,-1.88,2.40,-1.88,2.40,-2.40,-2.40,-2.45,-4.28,-4.28,-4.28
428.56,-1.87,2.42,-1.87,2.43,-2.41,-2.41,-2.56,-4.28,-4.28,-4.29
432.85,-1.87,2.44,-1.87,2.44,-2.43,-2.42,-2.67,-4.29,-4.29,-4.31
437.18,-1.87,2.45,-1.87,2.45,-2.44,-2.44,-2.77,-4.31,-4.31,-4.32
441.55,-1.88,2.45,-1.88,2.46,-2.46,-2.46,-2.87,-4.33,-4.33,-4.33
