frequency,raw,error,smoothed,error_smoothed,equalization,parametric_eq,fixed_band_eq,equalized_raw,equalized_smoothed,target
20.00,-3.63,-4.68,-3.63,-4.68,4.69,3.61,1.08,1.05,1.05,1.05
20.20,-3.57,-4.59,-3.57,-4.60,4.60,3.57,1.11,1.03,1.03,1.02
20.40,-3.51,-4.51,-3.51,-4.51,4.51,3.54,1.15,1.00,1.00,1.00
20.61,-3.45,-4.43,-3.45,-4.43,4.43,3.51,1.18,0.98,0.98,0.98
20.81,-3.39,-4.35,-3.39,-4.35,4.34,3.47,1.22,0.95,0.96,0.96
21.02,-3.32,-4.26,-3.33,-4.27,4.26,3.44,1.26,0.94,0.94,0.94
21.23,-3.26,-4.18,-3.26,-4.18,4.18,3.41,1.30,0.92,0.92,0.92
21.44,-3.20,-4.10,-3.20,-4.10,4.10,3.37,1.34,0.90,0.90,0.90
21.66,-3.14,-4.02,-3.14,-4.02,4.02,3.34,1.38,0.88,0.88,0.88
21.87,-3.08,-3.95,-3.08,-3.94,3.94,3.30,1.42,0.86,0.86,0.87
22.09,-3.01,-3.86,-3.01,-3.86,3.87,3.27,1.46,0.85,0.85,0.85
22.31,-2.95,-3.79,-2.95,-3.79,3.79,3.23,1.51,0.84,0.84,0.84
22.54,-2.89,-3.72,-2.89,-3.72,3.72,3.20,1.56,0.82,0.83,0.83
22.76,-2.83,-3.65,-2.83,-3.65,3.65,3.16,1.60,0.81,0.81,0.82
22.99,-2.77,-3.58,-2.77,-3.58,3.57,3.13,1.65,0.80,0.80,0.80
23.22,-2.71,-3.51,-2.71,-3.50,3.50,3.09,1.70,0.79,0.79,0.79
23.45,-2.65,-3.43,-2.65,-3.44,3.44,3.06,1.75,0.78,0.78,0.78
23.69,-2.59,-3.37,-2.59,-3.37,3.37,3.02,1.80,0.77,0.78,0.77
23.92,-2.53,-3.30,-2.53,-3.30,3.30,2.99,1.86,0.77,0.77,0.77
24.16,-2.47,-3.23,-2.47,-3.23,3.23,2.95,1.91,0.76,0.76,0.76
24.40,-2.41,-3.17,-2.41,-3.17,3.17,2.91,1.96,0.76,0.76,0.76
24.65,-2.35,-3.10,-2.35,-3.10,3.10,2.88,2.02,0.75,0.75,0.75
24.89,-2.29,-3.04,-2.29,-3.04,3.04,2.84,2.07,0.75,0.74,0.75
25.14,-2.24,-2.98,-2.24,-2.97,2.97,2.81,2.13,0.73,0.73,0.74
25.39,-2.18,-2.91,-2.18,-2.91,2.91,2.77,2.18,0.73,0.73,0.73
25.65,-2.12,-2.85,-2.12,-2.84,2.85,2.73,2.24,0.72,0.72,0.72
25.91,-2.06,-2.78,-2.06,-2.78,2.78,2.70,2.29,0.72,0.72,0.71
26.16,-2.00,-2.71,-2.00,-2.72,2.72,2.66,2.35,0.72,0.71,0.71
26.43,-1.95,-2.66,-1.95,-2.66,2.66,2.62,2.40,0.70,0.71,0.71
26.69,-1.89,-2.59,-1.89,-2.60,2.60,2.59,2.45,0.70,0.70,0.70
26.96,-1.84,-2.54,-1.84,-2.54,2.54,2.55,2.51,0.69,0.69,0.70
27.23,-1.78,-2.47,-1.78,-2.48,2.48,2.51,2.56,0.69,0.69,0.69
27.50,-1.73,-2.42,-1.73,-2.42,2.42,2.48,2.60,0.68,0.69,0.69
27.77,-1.67,-2.36,-1.68,-2.36,2.36,2.44,2.65,0.69,0.68,0.68
28.05,-1.62,-2.30,-1.62,-2.30,2.30,2.40,2.69,0.68,0.68,0.67
28.33,-1.57,-2.24,-1.57,-2.24,2.24,2.36,2.73,0.67,0.67,0.67
28.62,-1.51,-2.18,-1.52,-2.18,2.18,2.33,2.77,0.67,0.67,0.67
28.90,-1.46,-2.12,-1.46,-2.12,2.12,2.29,2.80,0.66,0.66,0.66
29.19,-1.41,-2.07,-1.41,-2.07,2.07,2.25,2.83,0.66,0.66,0.66
29.48,-1.36,-2.02,-1.36,-2.02,2.02,2.22,2.85,0.66,0.66,0.66
29.78,-1.31,-1.97,-1.31,-1.97,1.97,2.18,2.87,0.66,0.66,0.65
30.08,-1.26,-1.91,-1.27,-1.92,1.92,2.14,2.89,0.66,0.65,0.65
30.38,-1.23,-1.87,-1.23,-1.87,1.88,2.10,2.90,0.64,0.65,0.64
30.68,-1.19,-1.83,-1.19,-1.83,1.83,2.07,2.90,0.64,0.64,0.64
30.99,-1.16,-1.80,-1.16,-1.79,1.79,2.03,2.90,0.63,0.63,0.64
31.30,-1.12,-1.76,-1.13,-1.76,1.75,1.99,2.90,0.63,0.63,0.63
31.61,-1.09,-1.71,-1.09,-1.72,1.71,1.95,2.89,0.62,0.62,0.62
31.93,-1.05,-1.67,-1.05,-1.67,1.67,1.92,2.87,0.62,0.62,0.62
32.24,-1.01,-1.63,-1.01,-1.63,1.62,1.88,2.85,0.61,0.61,0.62
32.57,-0.97,-1.58,-0.97,-1.58,1.58,1.84,2.82,0.61,0.61,0.60
32.89,-0.93,-1.53,-0.93,-1.53,1.53,1.80,2.79,0.60,0.60,0.60
33.22,-0.89,-1.49,-0.89,-1.49,1.49,1.77,2.75,0.60,0.60,0.60
33.55,-0.85,-1.44,-0.85,-1.44,1.44,1.73,2.71,0.59,0.59,0.59
33.89,-0.81,-1.40,-0.81,-1.40,1.39,1.69,2.67,0.58,0.58,0.58
34.23,-0.77,-1.35,-0.77,-1.35,1.35,1.65,2.62,0.58,0.58,0.58
34.57,-0.73,-1.30,-0.73,-1.30,1.30,1.62,2.56,0.57,0.57,0.57
34.92,-0.69,-1.26,-0.69,-1.26,1.26,1.58,2.51,0.57,0.57,0.56
35.27,-0.66,-1.22,-0.66,-1.21,1.22,1.54,2.45,0.56,0.56,0.56
35.62,-0.62,-1.17,-0.62,-1.17,1.18,1.51,2.38,0.56,0.55,0.55
35.97,-0.59,-1.14,-0.59,-1.14,1.14,1.47,2.32,0.55,0.54,0.54
36.33,-0.56,-1.10,-0.56,-1.10,1.10,1.43,2.25,0.54,0.54,0.54
36.70,-0.53,-1.07,-0.53,-1.06,1.06,1.39,2.18,0.53,0.53,0.54
37.06,-0.49,-1.02,-0.50,-1.02,1.02,1.36,2.11,0.53,0.53,0.53
37.43,-0.46,-0.98,-0.46,-0.98,0.98,1.32,2.04,0.52,0.52,0.52
37.81,-0.43,-0.95,-0.43,-0.94,0.94,1.28,1.97,0.51,0.51,0.51
38.19,-0.39,-0.90,-0.40,-0.90,0.90,1.25,1.90,0.51,0.51,0.51
38.57,-0.36,-0.86,-0.36,-0.86,0.86,1.21,1.82,0.50,0.49,0.49
38.95,-0.33,-0.82,-0.33,-0.82,0.82,1.17,1.75,0.48,0.49,0.49
39.34,-0.30,-0.78,-0.30,-0.77,0.77,1.13,1.68,0.47,0.47,0.47
39.74,-0.26,-0.73,-0.27,-0.73,0.73,1.10,1.60,0.47,0.47,0.47
40.14,-0.23,-0.69,-0.23,-0.69,0.69,1.06,1.53,0.46,0.46,0.45
40.54,-0.20,-0.65,-0.20,-0.65,0.65,1.02,1.45,0.45,0.45,0.45
40.94,-0.16,-0.60,-0.17,-0.61,0.61,0.99,1.38,0.45,0.44,0.44
41.35,-0.14,-0.58,-0.14,-0.58,0.57,0.95,1.31,0.43,0.44,0.44
41.76,-0.11,-0.54,-0.11,-0.54,0.54,0.91,1.24,0.43,0.43,0.43
42.18,-0.08,-0.51,-0.08,-0.51,0.51,0.88,1.17,0.42,0.42,0.42
42.60,-0.05,-0.47,-0.05,-0.47,0.47,0.84,1.09,0.42,0.42,0.42
43.03,-0.02,-0.44,-0.03,-0.44,0.44,0.80,1.02,0.42,0.41,0.42
43.46,-0.00,-0.41,-0.00,-0.41,0.41,0.76,0.96,0.41,0.41,0.41
43.90,0.02,-0.39,0.02,-0.38,0.38,0.73,0.89,0.40,0.40,0.40
44.33,0.05,-0.35,0.05,-0.35,0.35,0.69,0.82,0.40,0.40,0.40
44.78,0.08,-0.31,0.07,-0.31,0.32,0.65,0.75,0.40,0.40,0.39
45.23,0.10,-0.28,0.09,-0.29,0.29,0.62,0.68,0.39,0.39,0.38
45.68,0.11,-0.26,0.11,-0.26,0.27,0.58,0.62,0.37,0.38,0.37
46.13,0.12,-0.24,0.12,-0.24,0.24,0.54,0.55,0.36,0.36,0.36
46.60,0.14,-0.22,0.13,-0.22,0.21,0.51,0.49,0.35,0.35,0.35
47.06,0.15,-0.20,0.15,-0.19,0.18,0.47,0.43,0.33,0.33,0.34
47.53,0.17,-0.16,0.17,-0.16,0.16,0.43,0.36,0.32,0.32,0.32
48.01,0.19,-0.13,0.19,-0.13,0.13,0.40,0.30,0.32,0.32,0.31
48.49,0.21,-0.10,0.21,-0.09,0.10,0.36,0.24,0.31,0.31,0.30
48.97,0.23,-0.06,0.23,-0.07,0.07,0.32,0.18,0.30,0.30,0.29
49.46,0.24,-0.04,0.24,-0.04,0.04,0.28,0.12,0.28,0.28,0.28
49.96,0.26,-0.01,0.26,-0.01,0.01,0.25,0.06,0.27,0.27,0.27
50.46,0.27,0.01,0.27,0.01,-0.02,0.21,0.00,0.25,0.25,0.26
50.96,0.29,0.04,0.29,0.04,-0.05,0.17,-0.06,0.24,0.24,0.24
51.47,0.31,0.07,0.31,0.07,-0.08,0.13,-0.11,0.23,0.23,0.24
51.99,0.34,0.11,0.33,0.11,-0.11,0.10,-0.17,0.23,0.23,0.23
52.51,0.36,0.14,0.36,0.14,-0.14,0.06,-0.23,0.22,0.22,0.21
53.03,0.38,0.18,0.38,0.18,-0.17,0.02,-0.28,0.20,0.20,0.20
53.56,0.40,0.21,0.40,0.21,-0.21,-0.02,-0.34,0.19,0.19,0.18
54.10,0.42,0.24,0.42,0.24,-0.24,-0.06,-0.39,0.18,0.18,0.18
54.64,0.44,0.27,0.43,0.27,-0.27,-0.10,-0.44,0.17,0.16,0.16
55.18,0.45,0.30,0.45,0.30,-0.30,-0.14,-0.50,0.15,0.15,0.15
55.74,0.46,0.33,0.46,0.33,-0.33,-0.17,-0.55,0.13,0.13,0.13
56.29,0.48,0.36,0.48,0.36,-0.36,-0.21,-0.60,0.12,0.12,0.12
56.86,0.50,0.39,0.49,0.39,-0.39,-0.25,-0.65,0.11,0.10,0.10
57.42,0.51,0.42,0.51,0.42,-0.42,-0.29,-0.69,0.08,0.09,0.09
58.00,0.53,0.45,0.53,0.46,-0.46,-0.33,-0.74,0.07,0.07,0.08
58.58,0.55,0.49,0.54,0.49,-0.49,-0.37,-0.79,0.06,0.06,0.06
59.16,0.56,0.52,0.56,0.52,-0.52,-0.41,-0.83,0.04,0.04,0.04
59.76,0.58,0.55,0.58,0.56,-0.56,-0.46,-0.87,0.02,0.02,0.02
60.35,0.59,0.59,0.59,0.59,-0.59,-0.50,-0.92,-0.00,0.00,0.00
60.96,0.61,0.63,0.60,0.62,-0.62,-0.54,-0.96,-0.02,-0.02,-0.02
61.57,0.62,0.66,0.62,0.66,-0.66,-0.58,-1.00,-0.04,-0.04,-0.04
62.18,0.62,0.68,0.62,0.69,-0.69,-0.62,-1.03,-0.07,-0.06,-0.07
62.80,0.63,0.72,0.63,0.72,-0.71,-0.67,-1.07,-0.09,-0.09,-0.09
63.43,0.63,0.74,0.63,0.74,-0.74,-0.71,-1.11,-0.11,-0.11,-0.12
64.07,0.63,0.77,0.63,0.77,-0.77,-0.75,-1.14,-0.14,-0.14,-0.14
64.71,0.62,0.79,0.62,0.79,-0.79,-0.80,-1.18,-0.17,-0.17,-0.17
65.35,0.62,0.81,0.61,0.81,-0.81,-0.84,-1.21,-0.19,-0.20,-0.20
66.01,0.61,0.83,0.61,0.83,-0.84,-0.88,-1.24,-0.23,-0.23,-0.22
66.67,0.60,0.85,0.60,0.86,-0.86,-0.93,-1.28,-0.26,-0.26,-0.25
67.33,0.60,0.88,0.60,0.88,-0.89,-0.97,-1.31,-0.29,-0.29,-0.28
68.01,0.60,0.91,0.60,0.91,-0.91,-1.02,-1.34,-0.32,-0.32,-0.31
68.69,0.60,0.94,0.60,0.94,-0.94,-1.07,-1.37,-0.34,-0.34,-0.34
69.37,0.60,0.97,0.60,0.98,-0.97,-1.11,-1.40,-0.37,-0.37,-0.38
70.07,0.60,1.01,0.60,1.00,-1.00,-1.16,-1.43,-0.40,-0.40,-0.41
70.77,0.59,1.03,0.59,1.03,-1.03,-1.21,-1.46,-0.44,-0.44,-0.44
71.48,0.59,1.06,0.58,1.06,-1.06,-1.26,-1.49,-0.47,-0.47,-0.47
72.19,0.58,1.08,0.58,1.09,-1.09,-1.30,-1.51,-0.51,-0.51,-0.50
72.91,0.58,1.12,0.58,1.12,-1.12,-1.35,-1.54,-0.54,-0.54,-0.54
73.64,0.59,1.16,0.58,1.15,-1.16,-1.40,-1.58,-0.57,-0.58,-0.58
74.38,0.59,1.19,0.59,1.20,-1.20,-1.45,-1.61,-0.61,-0.61,-0.60
75.12,0.60,1.24,0.60,1.24,-1.25,-1.50,-1.64,-0.65,-0.64,-0.64
75.87,0.63,1.30,0.62,1.29,-1.30,-1.55,-1.67,-0.67,-0.68,-0.67
76.63,0.64,1.35,0.64,1.35,-1.35,-1.60,-1.70,-0.71,-0.71,-0.71
77.40,0.66,1.41,0.66,1.41,-1.41,-1.66,-1.74,-0.75,-0.75,-0.75
78.17,0.69,1.47,0.68,1.47,-1.47,-1.71,-1.77,-0.78,-0.79,-0.78
78.95,0.71,1.54,0.71,1.54,-1.54,-1.76,-1.81,-0.83,-0.83,-0.83
79.74,0.74,1.61,0.74,1.60,-1.60,-1.81,-1.85,-0.87,-0.87,-0.87
80.54,0.77,1.67,0.76,1.67,-1.67,-1.87,-1.88,-0.91,-0.91,-0.90
81.35,0.79,1.74,0.79,1.74,-1.74,-1.92,-1.92,-0.96,-0.95,-0.95
82.16,0.82,1.81,0.82,1.81,-1.81,-1.98,-1.97,-1.00,-1.00,-1.00
82.98,0.85,1.89,0.84,1.89,-1.89,-2.03,-2.01,-1.04,-1.04,-1.04
83.81,0.87,1.96,0.87,1.96,-1.96,-2.09,-2.05,-1.09,-1.08,-1.09
84.65,0.90,2.02,0.90,2.03,-2.02,-2.14,-2.10,-1.13,-1.13,-1.13
85.50,0.92,2.09,0.91,2.09,-2.09,-2.20,-2.15,-1.17,-1.17,-1.17
86.35,0.93,2.15,0.93,2.15,-2.15,-2.25,-2.20,-1.22,-1.22,-1.22
87.22,0.94,2.21,0.94,2.21,-2.21,-2.31,-2.25,-1.27,-1.27,-1.27
88.09,0.95,2.27,0.95,2.27,-2.26,-2.37,-2.30,-1.32,-1.32,-1.32
88.97,0.95,2.32,0.94,2.32,-2.32,-2.43,-2.35,-1.37,-1.37,-1.38
89.86,0.94,2.36,0.94,2.37,-2.37,-2.48,-2.41,-1.43,-1.43,-1.43
90.76,0.93,2.41,0.93,2.41,-2.42,-2.54,-2.47,-1.49,-1.48,-1.48
91.66,0.93,2.46,0.93,2.46,-2.47,-2.60,-2.53,-1.54,-1.54,-1.53
92.58,0.93,2.51,0.93,2.51,-2.52,-2.66,-2.59,-1.59,-1.59,-1.58
93.51,0.93,2.57,0.93,2.57,-2.57,-2.71,-2.65,-1.64,-1.64,-1.64
94.44,0.93,2.62,0.93,2.62,-2.62,-2.77,-2.72,-1.69,-1.69,-1.69
95.39,0.93,2.67,0.93,2.67,-2.67,-2.83,-2.78,-1.74,-1.74,-1.75
96.34,0.93,2.73,0.93,2.73,-2.72,-2.89,-2.85,-1.80,-1.80,-1.80
97.30,0.93,2.77,0.93,2.78,-2.78,-2.95,-2.92,-1.85,-1.85,-1.85
98.28,0.93,2.83,0.93,2.83,-2.83,-3.01,-2.99,-1.91,-1.91,-1.90
99.26,0.93,2.89,0.93,2.88,-2.89,-3.07,-3.06,-1.96,-1.96,-1.96
100.25,0.93,2.94,0.93,2.94,-2.94,-3.12,-3.13,-2.01,-2.01,-2.01
101.25,0.93,3.00,0.93,3.00,-3.00,-3.18,-3.21,-2.07,-2.07,-2.07
102.27,0.93,3.05,0.93,3.05,-3.05,-3.24,-3.28,-2.12,-2.12,-2.13
103.29,0.93,3.11,0.93,3.11,-3.10,-3.30,-3.35,-2.18,-2.18,-2.18
104.32,0.93,3.16,0.93,3.16,-3.16,-3.36,-3.43,-2.23,-2.23,-2.23
105.37,0.93,3.21,0.93,3.21,-3.21,-3.41,-3.50,-2.29,-2.29,-2.28
106.42,0.93,3.27,0.93,3.26,-3.27,-3.47,-3.58,-2.34,-2.34,-2.34
107.48,0.93,3.31,0.93,3.32,-3.32,-3.53,-3.65,-2.39,-2.39,-2.39
108.56,0.93,3.37,0.93,3.37,-3.37,-3.58,-3.72,-2.45,-2.45,-2.44
109.64,0.93,3.43,0.93,3.43,-3.43,-3.64,-3.80,-2.50,-2.50,-2.50
110.74,0.93,3.48,0.93,3.48,-3.48,-3.69,-3.87,-2.55,-2.55,-2.56
111.85,0.93,3.54,0.93,3.54,-3.53,-3.75,-3.94,-2.61,-2.61,-2.61
112.97,0.93,3.58,0.93,3.59,-3.59,-3.80,-4.00,-2.66,-2.66,-2.66
114.10,0.93,3.64,0.93,3.64,-3.64,-3.86,-4.07,-2.71,-2.71,-2.71
115.24,0.93,3.69,0.93,3.69,-3.69,-3.91,-4.13,-2.77,-2.77,-2.77
116.39,0.93,3.75,0.93,3.75,-3.75,-3.97,-4.19,-2.82,-2.82,-2.82
117.55,0.93,3.79,0.93,3.80,-3.80,-4.02,-4.24,-2.87,-2.87,-2.87
118.73,0.93,3.85,0.93,3.85,-3.85,-4.07,-4.30,-2.92,-2.92,-2.92
119.92,0.93,3.90,0.93,3.90,-3.90,-4.12,-4.34,-2.97,-2.97,-2.97
121.12,0.93,3.95,0.93,3.95,-3.95,-4.17,-4.39,-3.02,-3.02,-3.02
122.33,0.93,4.00,0.93,4.00,-4.00,-4.22,-4.42,-3.07,-3.07,-3.07
123.55,0.93,4.05,0.93,4.04,-4.04,-4.27,-4.46,-3.12,-3.12,-3.12
124.79,0.93,4.09,0.93,4.09,-4.09,-4.32,-4.49,-3.16,-3.16,-3.16
126.03,0.93,4.14,0.93,4.14,-4.14,-4.36,-4.52,-3.21,-3.21,-3.21
127.29,0.93,4.18,0.93,4.18,-4.18,-4.41,-4.54,-3.26,-3.26,-3.25
128.57,0.93,4.23,0.93,4.23,-4.23,-4.46,-4.56,-3.30,-3.30,-3.30
129.85,0.93,4.28,0.93,4.28,-4.27,-4.50,-4.57,-3.35,-3.35,-3.35
131.15,0.93,4.32,0.93,4.32,-4.32,-4.55,-4.58,-3.39,-3.39,-3.40
132.46,0.93,4.36,0.93,4.37,-4.37,-4.59,-4.58,-3.44,-3.44,-3.43
133.79,0.93,4.41,0.93,4.41,-4.41,-4.63,-4.59,-3.48,-3.48,-3.48
135.12,0.93,4.45,0.93,4.45,-4.46,-4.67,-4.59,-3.53,-3.53,-3.53
136.48,0.93,4.50,0.93,4.50,-4.50,-4.71,-4.58,-3.57,-3.57,-3.57
137.84,0.93,4.54,0.93,4.54,-4.54,-4.75,-4.58,-3.61,-3.61,-3.62
139.22,0.93,4.59,0.93,4.59,-4.58,-4.79,-4.57,-3.66,-3.66,-3.66
140.61,0.93,4.63,0.93,4.63,-4.63,-4.83,-4.56,-3.70,-3.70,-3.70
142.02,0.93,4.66,0.93,4.67,-4.67,-4.87,-4.55,-3.74,-3.74,-3.73
143.44,0.93,4.70,0.93,4.70,-4.71,-4.90,-4.53,-3.78,-3.78,-3.78
144.87,0.93,4.74,0.93,4.74,-4.74,-4.94,-4.52,-3.81,-3.81,-3.82
146.32,0.93,4.77,0.93,4.78,-4.78,-4.97,-4.51,-3.85,-3.85,-3.85
147.78,0.93,4.81,0.93,4.81,-4.81,-5.00,-4.50,-3.88,-3.88,-3.88
149.26,0.93,4.85,0.93,4.85,-4.84,-5.04,-4.48,-3.91,-3.91,-3.92
150.75,0.93,4.88,0.93,4.88,-4.87,-5.07,-4.47,-3.94,-3.95,-3.95
152.26,0.92,4.90,0.92,4.91,-4.90,-5.10,-4.46,-3.98,-3.98,-3.99
153.78,0.92,4.94,0.92,4.93,-4.93,-5.13,-4.45,-4.01,-4.02,-4.02
155.32,0.91,4.95,0.91,4.96,-4.96,-5.16,-4.45,-4.05,-4.05,-4.05
156.88,0.91,4.99,0.91,4.99,-5.00,-5.19,-4.44,-4.09,-4.09,-4.08
158.44,0.91,5.02,0.91,5.03,-5.03,-5.21,-4.44,-4.12,-4.12,-4.11
160.03,0.93,5.07,0.92,5.07,-5.07,-5.24,-4.43,-4.14,-4.15,-4.15
161.63,0.95,5.12,0.94,5.12,-5.12,-5.27,-4.44,-4.17,-4.17,-4.18
163.24,0.96,5.16,0.97,5.17,-5.17,-5.29,-4.44,-4.21,-4.20,-4.20
164.88,1.00,5.23,0.99,5.22,-5.22,-5.31,-4.45,-4.22,-4.23,-4.23
166.53,1.02,5.27,1.02,5.27,-5.28,-5.34,-4.46,-4.26,-4.26,-4.26
168.19,1.05,5.33,1.05,5.33,-5.34,-5.36,-4.47,-4.29,-4.28,-4.28
169.87,1.09,5.39,1.08,5.39,-5.39,-5.38,-4.49,-4.31,-4.31,-4.30
171.57,1.12,5.45,1.12,5.45,-5.45,-5.40,-4.51,-4.33,-4.33,-4.33
173.29,1.16,5.51,1.16,5.51,-5.51,-5.43,-4.53,-4.35,-4.35,-4.36
175.02,1.20,5.58,1.19,5.57,-5.56,-5.45,-4.55,-4.37,-4.37,-4.38
176.77,1.22,5.61,1.22,5.62,-5.61,-5.47,-4.58,-4.40,-4.39,-4.40
178.54,1.24,5.66,1.24,5.66,-5.66,-5.48,-4.62,-4.42,-4.42,-4.42
180.32,1.26,5.70,1.26,5.70,-5.70,-5.50,-4.65,-4.44,-4.44,-4.44
182.13,1.27,5.73,1.27,5.73,-5.73,-5.52,-4.69,-4.46,-4.46,-4.47
183.95,1.28,5.77,1.27,5.76,-5.75,-5.54,-4.73,-4.47,-4.48,-4.49
185.79,1.27,5.78,1.27,5.78,-5.77,-5.56,-4.78,-4.51,-4.51,-4.51
187.65,1.26,5.79,1.26,5.79,-5.79,-5.57,-4.83,-4.53,-4.53,-4.53
189.52,1.25,5.80,1.25,5.80,-5.81,-5.59,-4.88,-4.56,-4.56,-4.55
191.42,1.25,5.82,1.25,5.82,-5.82,-5.61,-4.93,-4.58,-4.58,-4.57
193.33,1.25,5.84,1.25,5.83,-5.84,-5.62,-4.99,-4.59,-4.59,-4.59
195.27,1.25,5.85,1.25,5.86,-5.85,-5.64,-5.05,-4.61,-4.61,-4.61
197.22,1.25,5.87,1.25,5.87,-5.87,-5.65,-5.12,-4.62,-4.62,-4.62
199.19,1.25,5.89,1.25,5.89,-5.88,-5.67,-5.18,-4.63,-4.63,-4.64
201.18,1.25,5.90,1.25,5.90,-5.90,-5.68,-5.25,-4.65,-4.65,-4.65
203.19,1.25,5.91,1.25,5.91,-5.91,-5.70,-5.32,-4.66,-4.66,-4.66
205.23,1.25,5.92,1.25,5.92,-5.92,-5.71,-5.40,-4.68,-4.68,-4.67
207.28,1.25,5.93,1.25,5.93,-5.93,-5.72,-5.47,-4.69,-4.69,-4.68
209.35,1.25,5.95,1.25,5.94,-5.94,-5.74,-5.55,-4.70,-4.70,-4.70
211.44,1.25,5.95,1.25,5.96,-5.95,-5.75,-5.62,-4.70,-4.70,-4.70
213.56,1.25,5.96,1.25,5.97,-5.96,-5.77,-5.70,-4.71,-4.71,-4.72
215.69,1.25,5.98,1.24,5.97,-5.97,-5.78,-5.78,-4.72,-4.72,-4.73
217.85,1.24,5.98,1.24,5.98,-5.97,-5.79,-5.86,-4.74,-4.74,-4.74
220.03,1.23,5.97,1.23,5.98,-5.98,-5.81,-5.93,-4.76,-4.75,-4.75
222.23,1.23,5.98,1.23,5.99,-6.00,-5.82,-6.01,-4.77,-4.77,-4.76
224.45,1.24,6.01,1.24,6.01,-6.01,-5.84,-6.09,-4.78,-4.78,-4.77
226.70,1.26,6.04,1.26,6.03,-6.03,-5.85,-6.16,-4.78,-4.78,-4.78
228.96,1.28,6.06,1.28,6.06,-6.06,-5.87,-6.23,-4.78,-4.78,-4.78
231.25,1.30,6.09,1.30,6.09,-6.09,-5.88,-6.30,-4.79,-4.79,-4.79
233.57,1.32,6.12,1.32,6.12,-6.12,-5.90,-6.37,-4.80,-4.80,-4.80
235.90,1.36,6.16,1.35,6.16,-6.16,-5.91,-6.43,-4.80,-4.80,-4.80
238.26,1.39,6.20,1.39,6.19,-6.19,-5.93,-6.49,-4.81,-4.81,-4.81
240.64,1.42,6.23,1.42,6.23,-6.23,-5.94,-6.55,-4.81,-4.81,-4.81
243.05,1.46,6.27,1.46,6.27,-6.27,-5.96,-6.60,-4.81,-4.81,-4.81
245.48,1.49,6.29,1.49,6.30,-6.30,-5.98,-6.65,-4.81,-4.81,-4.81
247.93,1.53,6.34,1.52,6.34,-6.33,-5.99,-6.69,-4.80,-4.81,-4.81
250.41,1.55,6.36,1.55,6.36,-6.36,-6.01,-6.73,-4.81,-4.81,-4.81
252.92,1.58,6.39,1.57,6.39,-6.38,-6.03,-6.77,-4.80,-4.80,-4.81
255.45,1.59,6.39,1.59,6.40,-6.39,-6.05,-6.80,-4.80,-4.80,-4.81
258.00,1.60,6.41,1.60,6.41,-6.40,-6.07,-6.82,-4.80,-4.80,-4.81
260.58,1.60,6.41,1.60,6.41,-6.40,-6.09,-6.84,-4.80,-4.80,-4.81
263.19,1.59,6.41,1.59,6.40,-6.40,-6.11,-6.86,-4.81,-4.81,-4.82
265.82,1.57,6.39,1.57,6.39,-6.40,-6.13,-6.88,-4.83,-4.82,-4.82
268.48,1.56,6.38,1.56,6.38,-6.39,-6.15,-6.89,-4.84,-4.83,-4.82
271.16,1.56,6.38,1.56,6.38,-6.40,-6.17,-6.90,-4.84,-4.84,-4.83
273.87,1.57,6.40,1.57,6.40,-6.40,-6.19,-6.91,-4.84,-4.83,-4.83
276.61,1.59,6.41,1.59,6.42,-6.42,-6.22,-6.91,-4.83,-4.83,-4.83
279.38,1.61,6.44,1.60,6.43,-6.44,-6.24,-6.92,-4.83,-4.83,-4.83
282.17,1.63,6.46,1.63,6.46,-6.47,-6.27,-6.92,-4.84,-4.84,-4.83
284.99,1.66,6.49,1.66,6.50,-6.50,-6.29,-6.93,-4.84,-4.84,-4.83
287.84,1.71,6.54,1.70,6.54,-6.54,-6.32,-6.93,-4.83,-4.84,-4.84
290.72,1.74,6.58,1.74,6.58,-6.58,-6.35,-6.93,-4.84,-4.84,-4.84
293.63,1.77,6.61,1.77,6.62,-6.61,-6.38,-6.94,-4.84,-4.84,-4.85
296.57,1.80,6.65,1.80,6.65,-6.64,-6.41,-6.94,-4.85,-4.84,-4.85
299.53,1.84,6.68,1.83,6.68,-6.67,-6.44,-6.95,-4.84,-4.84,-4.84
302.53,1.86,6.71,1.86,6.71,-6.70,-6.47,-6.96,-4.84,-4.84,-4.85
305.55,1.88,6.73,1.88,6.73,-6.72,-6.51,-6.97,-4.84,-4.84,-4.85
308.61,1.89,6.73,1.89,6.73,-6.73,-6.54,-6.99,-4.84,-4.84,-4.85
311.69,1.89,6.74,1.89,6.74,-6.74,-6.58,-7.01,-4.85,-4.85,-4.85
314.81,1.90,6.74,1.90,6.74,-6.75,-6.61,-7.03,-4.85,-4.85,-4.84
317.96,1.91,6.75,1.91,6.75,-6.75,-6.65,-7.06,-4.85,-4.85,-4.85
321.14,1.92,6.76,1.92,6.76,-6.76,-6.69,-7.09,-4.84,-4.84,-4.84
324.35,1.94,6.78,1.93,6.78,-6.77,-6.73,-7.12,-4.83,-4.84,-4.84
327.59,1.95,6.79,1.95,6.79,-6.79,-6.77,-7.16,-4.84,-4.84,-4.84
330.87,1.96,6.80,1.96,6.80,-6.81,-6.81,-7.21,-4.85,-4.84,-4.84
334.18,1.99,6.82,1.99,6.82,-6.83,-6.86,-7.26,-4.84,-4.84,-4.83
337.52,2.03,6.86,2.03,6.86,-6.86,-6.90,-7.31,-4.84,-4.84,-4.83
340.90,2.08,6.90,2.07,6.90,-6.90,-6.95,-7.37,-4.82,-4.83,-4.83
344.30,2.12,6.95,2.12,6.95,-6.95,-7.00,-7.43,-4.83,-4.83,-4.83
347.75,2.16,6.99,2.16,6.99,-6.99,-7.05,-7.50,-4.84,-4.83,-4.83
351.23,2.22,7.05,2.22,7.05,-7.05,-7.10,-7.58,-4.83,-4.83,-4.83
354.74,2.28,7.10,2.28,7.11,-7.11,-7.16,-7.66,-4.83,-4.83,-4.82
358.28,2.35,7.17,2.34,7.17,-7.17,-7.21,-7.74,-4.82,-4.82,-4.83
361.87,2.40,7.23,2.41,7.23,-7.23,-7.27,-7.84,-4.83,-4.82,-4.83
365.49,2.47,7.30,2.46,7.30,-7.29,-7.33,-7.93,-4.82,-4.82,-4.83
369.14,2.53,7.36,2.52,7.36,-7.35,-7.38,-8.04,-4.82,-4.83,-4.83
372.83,2.58,7.41,2.59,7.42,-7.42,-7.45,-8.14,-4.84,-4.83,-4.83
376.56,2.65,7.47,2.65,7.48,-7.48,-7.51,-8.26,-4.84,-4.84,-4.83
380.33,2.72,7.55,2.72,7.55,-7.55,-7.58,-8.38,-4.83,-4.84,-4.83
384.13,2.79,7.62,2.79,7.62,-7.62,-7.64,-8.50,-4.83,-4.83,-4.83
387.97,2.87,7.70,2.87,7.70,-7.69,-7.71,-8.63,-4.83,-4.82,-4.83
391.85,2.95,7.77,2.95,7.78,-7.77,-7.78,-8.77,-4.82,-4.82,-4.82
395.77,3.04,7.86,3.03,7.85,-7.85,-7.86,-8.91,-4.81,-4.82,-4.82
399.73,3.11,7.92,3.11,7.92,-7.93,-7.93,-9.05,-4.82,-4.82,-4.82
403.72,3.18,7.99,3.19,8.00,-8.01,-8.01,-9.20,-4.83,-4.82,-4.82
407.76,3.28,8.09,3.28,8.09,-8.09,-8.09,-9.35,-4.81,-4.82,-4.81
411.84,3.37,8.18,3.37,8.18,-8.17,-8.17,-9.51,-4.81,-4.81,-4.81
415.96,3.47,8.27,3.46,8.27,-8.26,-8.25,-9.67,-4.79,-4.80,-4.80
420.12,3.55,8.35,3.55,8.35,-8.34,-8.34,-9.83,-4.80,-4.79,-4.80
424.32,3.64,8.44,3.63,8.43,-8.43,-8.42,-9.99,-4.80,-4.80,-4.80
428.56,3.72,8.51,3.72,8.52,-8.52,-8.51,-10.15,-4.81,-4.80,-4.79
432.85,3.81,8.60,3.81,8.61,-8.62,-8.61,-10.32,-4.81,-4.80,-4.80
437.18,3.92,8.71,3.91,8.70,-8.71,-8.70,-10.48,-4.79,-4.80,-4.80
441.55,4.00,8.80,4.01,8.80,-8.80,-8.80,-10.64,-4.80,-4.79,-4.80
445.96,4.10,8.90,4.10,8.90,-8.89,-8.90,-10.79,-4.79,-4.79,-4.80
450.42,4.21,9.01,4.19,8.99,-8.98,-9.00,-10.94,-4.78,-4.79,-4.80
454.93,4.28,9.08,4.29,9.09,-9.08,-9.10,-11.09,-4.80,-4.79,-4.80
459.48,4.38,9.18,4.37,9.17,-9.17,-9.21,-11.22,-4.80,-4.80,-4.80
464.07,4.46,9.26,4.46,9.26,-9.27,-9.32,-11.35,-4.81,-4.81,-4.80
468.71,4.55,9.35,4.56,9.36,-9.37,-9.43,-11.46,-4.82,-4.81,-4.80
473.40,4.67,9.47,4.66,9.46,-9.47,-9.54,-11.57,-4.80,-4.81,-4.80
478.13,4.78,9.57,4.77,9.57,-9.57,-9.66,-11.65,-4.79,-4.80,-4.79
482.91,4.89,9.68,4.89,9.68,-9.68,-9.78,-11.73,-4.79,-4.79,-4.79
487.74,5.00,9.79,5.00,9.80,-9.79,-9.90,-11.78,-4.79,-4.79,-4.80
