frequency,raw,error,smoothed,error_smoothed,equalization,parametric_eq,fixed_band_eq,equalized_raw,equalized_smoothed,target
20.00,12.33,8.10,12.33,8.10,-8.11,-8.16,-3.25,4.22,4.22,4.22
20.20,12.31,8.08,12.31,8.09,-8.09,-8.15,-3.34,4.22,4.22,4.22
20.40,12.30,8.07,12.30,8.07,-8.07,-8.13,-3.43,4.23,4.23,4.23
20.61,12.28,8.05,12.28,8.05,-8.04,-8.12,-3.53,4.24,4.24,4.23
20.81,12.26,8.03,12.26,8.03,-8.02,-8.10,-3.62,4.24,4.24,4.23
21.02,12.25,8.02,12.24,8.00,-8.00,-8.09,-3.73,4.25,4.24,4.23
21.23,12.22,7.98,12.22,7.98,-7.98,-8.07,-3.83,4.24,4.24,4.24
21.44,12.20,7.95,12.20,7.95,-7.96,-8.05,-3.94,4.24,4.24,4.25
21.66,12.19,7.94,12.18,7.93,-7.94,-8.03,-4.05,4.25,4.25,4.25
21.87,12.17,7.91,12.17,7.91,-7.91,-8.01,-4.16,4.25,4.25,4.26
22.09,12.15,7.90,12.15,7.89,-7.89,-7.99,-4.28,4.26,4.26,4.25
22.31,12.13,7.87,12.13,7.87,-7.87,-7.96,-4.40,4.26,4.26,4.26
22.54,12.11,7.86,12.11,7.85,-7.85,-7.94,-4.52,4.25,4.25,4.25
22.76,12.09,7.83,12.09,7.83,-7.84,-7.91,-4.65,4.25,4.25,4.26
22.99,12.07,7.81,12.07,7.82,-7.82,-7.89,-4.78,4.25,4.25,4.26
23.22,12.05,7.80,12.05,7.80,-7.80,-7.86,-4.91,4.25,4.25,4.25
23.45,12.03,7.78,12.03,7.78,-7.77,-7.83,-5.04,4.25,4.25,4.25
23.69,12.00,7.75,12.00,7.76,-7.75,-7.80,-5.18,4.25,4.25,4.25
23.92,11.98,7.73,11.98,7.73,-7.73,-7.77,-5.32,4.25,4.25,4.25
24.16,11.96,7.71,11.95,7.71,-7.71,-7.74,-5.47,4.25,4.25,4.24
24.40,11.93,7.67,11.93,7.68,-7.68,-7.71,-5.61,4.25,4.25,4.25
24.65,11.90,7.65,11.90,7.65,-7.65,-7.68,-5.76,4.24,4.25,4.25
24.89,11.88,7.63,11.87,7.62,-7.63,-7.65,-5.91,4.25,4.25,4.25
25.14,11.85,7.61,11.85,7.60,-7.60,-7.62,-6.07,4.25,4.25,4.24
25.39,11.82,7.58,11.82,7.58,-7.58,-7.59,-6.22,4.24,4.25,4.24
25.65,11.80,7.56,11.79,7.55,-7.55,-7.56,-6.38,4.25,4.24,4.24
25.91,11.77,7.53,11.77,7.52,-7.53,-7.52,-6.53,4.24,4.24,4.24
26.16,11.74,7.49,11.74,7.50,-7.50,-7.49,-6.69,4.24,4.24,4.25
26.43,11.72,7.47,11.72,7.47,-7.47,-7.46,-6.84,4.24,4.24,4.25
26.69,11.69,7.45,11.69,7.45,-7.45,-7.43,-7.00,4.24,4.24,4.24
26.96,11.66,7.42,11.66,7.42,-7.42,-7.39,-7.15,4.24,4.24,4.24
27.23,11.63,7.39,11.62,7.39,-7.39,-7.36,-7.30,4.24,4.24,4.23
27.50,11.59,7.36,11.59,7.36,-7.36,-7.33,-7.45,4.23,4.23,4.23
27.77,11.56,7.32,11.56,7.32,-7.33,-7.30,-7.59,4.23,4.23,4.24
28.05,11.54,7.30,11.53,7.30,-7.30,-7.26,-7.73,4.24,4.24,4.24
28.33,11.50,7.27,11.50,7.27,-7.26,-7.23,-7.86,4.23,4.24,4.23
28.62,11.47,7.24,11.47,7.23,-7.23,-7.20,-7.99,4.24,4.24,4.23
28.90,11.43,7.19,11.43,7.20,-7.20,-7.17,-8.11,4.23,4.23,4.24
29.19,11.40,7.16,11.40,7.17,-7.17,-7.13,-8.21,4.23,4.23,4.24
29.48,11.36,7.13,11.36,7.13,-7.13,-7.10,-8.31,4.22,4.23,4.22
29.78,11.33,7.11,11.33,7.10,-7.10,-7.07,-8.40,4.23,4.23,4.22
30.08,11.29,7.06,11.29,7.07,-7.06,-7.04,-8.47,4.23,4.23,4.23
30.38,11.26,7.04,11.26,7.03,-7.03,-7.01,-8.53,4.23,4.23,4.22
30.68,11.22,6.99,11.22,6.99,-6.99,-6.98,-8.58,4.23,4.23,4.23
30.99,11.18,6.95,11.18,6.95,-6.95,-6.94,-8.62,4.22,4.22,4.23
31.30,11.14,6.91,11.14,6.91,-6.92,-6.91,-8.64,4.22,4.22,4.22
31.61,11.10,6.87,11.10,6.88,-6.88,-6.88,-8.65,4.22,4.22,4.23
31.93,11.07,6.85,11.07,6.84,-6.84,-6.85,-8.64,4.23,4.23,4.22
32.24,11.03,6.80,11.03,6.80,-6.80,-6.82,-8.62,4.23,4.23,4.23
32.57,10.99,6.76,10.99,6.77,-6.76,-6.79,-8.59,4.23,4.23,4.23
32.89,10.95,6.72,10.95,6.72,-6.72,-6.76,-8.55,4.23,4.23,4.22
33.22,10.91,6.69,10.90,6.68,-6.68,-6.74,-8.50,4.22,4.22,4.22
33.55,10.86,6.64,10.86,6.64,-6.65,-6.71,-8.43,4.21,4.21,4.22
33.89,10.82,6.60,10.82,6.61,-6.61,-6.68,-8.36,4.21,4.21,4.22
34.23,10.78,6.58,10.78,6.57,-6.57,-6.65,-8.28,4.20,4.20,4.20
34.57,10.74,6.55,10.74,6.54,-6.54,-6.62,-8.19,4.20,4.20,4.19
34.92,10.69,6.51,10.69,6.51,-6.51,-6.60,-8.10,4.18,4.18,4.18
35.27,10.65,6.47,10.65,6.48,-6.48,-6.57,-8.00,4.17,4.16,4.17
35.62,10.60,6.46,10.60,6.45,-6.45,-6.54,-7.90,4.14,4.14,4.14
35.97,10.55,6.42,10.55,6.42,-6.43,-6.52,-7.80,4.12,4.12,4.13
36.33,10.51,6.40,10.51,6.40,-6.40,-6.49,-7.69,4.10,4.10,4.10
36.70,10.46,6.38,10.46,6.38,-6.38,-6.47,-7.58,4.08,4.08,4.08
37.06,10.42,6.36,10.42,6.36,-6.36,-6.44,-7.47,4.06,4.06,4.06
37.43,10.37,6.33,10.37,6.34,-6.33,-6.42,-7.37,4.03,4.04,4.03
37.81,10.33,6.32,10.32,6.31,-6.31,-6.39,-7.26,4.02,4.01,4.01
38.19,10.28,6.28,10.28,6.29,-6.29,-6.37,-7.15,3.99,3.99,4.00
38.57,10.23,6.26,10.23,6.26,-6.26,-6.34,-7.05,3.96,3.97,3.97
38.95,10.19,6.24,10.18,6.24,-6.24,-6.32,-6.95,3.95,3.95,3.95
39.34,10.14,6.22,10.14,6.22,-6.21,-6.30,-6.85,3.93,3.93,3.92
39.74,10.09,6.19,10.09,6.19,-6.19,-6.28,-6.75,3.90,3.91,3.90
40.14,10.05,6.17,10.04,6.16,-6.16,-6.25,-6.66,3.89,3.88,3.88
40.54,9.99,6.12,9.99,6.13,-6.13,-6.23,-6.57,3.86,3.86,3.87
40.94,9.95,6.11,9.95,6.10,-6.11,-6.21,-6.49,3.84,3.84,3.84
41.35,9.90,6.07,9.90,6.08,-6.08,-6.19,-6.41,3.82,3.82,3.83
41.76,9.86,6.06,9.85,6.05,-6.05,-6.17,-6.33,3.80,3.80,3.80
42.18,9.81,6.02,9.81,6.03,-6.03,-6.15,-6.26,3.78,3.78,3.78
42.60,9.76,6.00,9.76,6.00,-6.00,-6.13,-6.19,3.76,3.76,3.76
43.03,9.72,5.98,9.71,5.98,-5.97,-6.11,-6.13,3.74,3.74,3.74
43.46,9.67,5.95,9.67,5.95,-5.95,-6.09,-6.07,3.72,3.72,3.71
43.90,9.62,5.92,9.62,5.93,-5.92,-6.07,-6.02,3.70,3.70,3.70
44.33,9.57,5.90,9.57,5.89,-5.89,-6.05,-5.97,3.67,3.68,3.67
44.78,9.52,5.87,9.52,5.86,-5.87,-6.03,-5.93,3.65,3.65,3.65
45.23,9.47,5.82,9.47,5.83,-5.84,-6.01,-5.89,3.63,3.63,3.64
45.68,9.42,5.81,9.42,5.81,-5.81,-5.99,-5.85,3.60,3.61,3.61
46.13,9.38,5.80,9.38,5.79,-5.79,-5.97,-5.82,3.59,3.58,3.58
46.60,9.33,5.78,9.33,5.77,-5.77,-5.95,-5.79,3.56,3.56,3.55
47.06,9.28,5.75,9.28,5.75,-5.76,-5.94,-5.77,3.52,3.52,3.53
47.53,9.23,5.73,9.23,5.74,-5.74,-5.92,-5.75,3.49,3.49,3.50
48.01,9.19,5.74,9.18,5.73,-5.73,-5.90,-5.73,3.46,3.45,3.45
48.49,9.14,5.72,9.14,5.72,-5.73,-5.89,-5.72,3.41,3.42,3.42
48.97,9.10,5.72,9.10,5.72,-5.72,-5.87,-5.71,3.38,3.38,3.38
49.46,9.06,5.71,9.06,5.72,-5.71,-5.85,-5.71,3.35,3.34,3.35
49.96,9.02,5.73,9.01,5.72,-5.71,-5.83,-5.71,3.31,3.30,3.29
50.46,8.96,5.70,8.97,5.71,-5.70,-5.82,-5.71,3.26,3.26,3.26
50.96,8.92,5.69,8.92,5.70,-5.70,-5.80,-5.71,3.22,3.22,3.22
51.47,8.88,5.69,8.88,5.69,-5.69,-5.79,-5.72,3.19,3.18,3.19
51.99,8.84,5.69,8.84,5.69,-5.69,-5.77,-5.73,3.15,3.15,3.15
52.51,8.80,5.68,8.79,5.68,-5.68,-5.76,-5.74,3.12,3.11,3.11
53.03,8.75,5.67,8.75,5.67,-5.68,-5.74,-5.75,3.07,3.07,3.08
53.56,8.70,5.66,8.71,5.67,-5.67,-5.72,-5.77,3.03,3.03,3.04
54.10,8.67,5.68,8.66,5.67,-5.67,-5.71,-5.78,3.00,2.99,2.99
54.64,8.62,5.66,8.62,5.67,-5.66,-5.69,-5.80,2.96,2.96,2.95
55.18,8.58,5.66,8.58,5.66,-5.66,-5.68,-5.81,2.92,2.92,2.92
55.74,8.54,5.66,8.54,5.65,-5.65,-5.66,-5.82,2.89,2.89,2.88
56.29,8.50,5.64,8.50,5.64,-5.64,-5.65,-5.84,2.86,2.86,2.85
56.86,8.46,5.62,8.46,5.63,-5.63,-5.63,-5.85,2.83,2.83,2.84
57.42,8.42,5.63,8.42,5.62,-5.62,-5.62,-5.86,2.80,2.80,2.79
58.00,8.38,5.62,8.38,5.61,-5.61,-5.61,-5.87,2.77,2.77,2.76
58.58,8.34,5.60,8.33,5.60,-5.60,-5.59,-5.87,2.74,2.74,2.74
59.16,8.29,5.58,8.29,5.58,-5.59,-5.58,-5.87,2.70,2.70,2.71
59.76,8.25,5.57,8.25,5.57,-5.59,-5.56,-5.87,2.66,2.66,2.68
60.35,8.21,5.58,8.21,5.57,-5.59,-5.55,-5.87,2.62,2.62,2.63
60.96,8.16,5.57,8.16,5.58,-5.59,-5.53,-5.86,2.57,2.58,2.59
61.57,8.12,5.60,8.12,5.59,-5.59,-5.52,-5.85,2.53,2.53,2.52
62.18,8.07,5.60,8.07,5.60,-5.59,-5.51,-5.83,2.48,2.48,2.47
62.80,8.03,5.60,8.03,5.60,-5.59,-5.49,-5.81,2.44,2.44,2.42
63.43,7.98,5.60,7.98,5.60,-5.59,-5.48,-5.78,2.39,2.39,2.38
64.07,7.93,5.59,7.93,5.59,-5.59,-5.46,-5.75,2.34,2.34,2.34
64.71,7.88,5.57,7.88,5.58,-5.58,-5.45,-5.72,2.30,2.30,2.31
65.35,7.83,5.57,7.83,5.57,-5.57,-5.44,-5.68,2.25,2.26,2.26
66.01,7.79,5.57,7.79,5.56,-5.57,-5.42,-5.64,2.22,2.22,2.22
66.67,7.75,5.56,7.74,5.56,-5.56,-5.41,-5.59,2.19,2.18,2.19
67.33,7.69,5.55,7.70,5.55,-5.55,-5.39,-5.55,2.14,2.15,2.14
68.01,7.65,5.55,7.65,5.54,-5.54,-5.38,-5.49,2.11,2.11,2.10
68.69,7.60,5.54,7.60,5.53,-5.53,-5.37,-5.44,2.07,2.07,2.06
69.37,7.55,5.52,7.55,5.52,-5.52,-5.35,-5.39,2.03,2.03,2.03
70.07,7.50,5.50,7.50,5.51,-5.51,-5.34,-5.33,1.99,1.99,2.00
70.77,7.45,5.50,7.45,5.49,-5.50,-5.32,-5.27,1.95,1.94,1.95
71.48,7.40,5.49,7.40,5.49,-5.49,-5.31,-5.21,1.91,1.90,1.91
72.19,7.34,5.48,7.35,5.48,-5.48,-5.29,-5.15,1.85,1.86,1.86
72.91,7.30,5.48,7.29,5.48,-5.47,-5.28,-5.09,1.82,1.82,1.82
73.64,7.24,5.47,7.24,5.47,-5.46,-5.27,-5.03,1.78,1.77,1.77
74.38,7.18,5.45,7.18,5.45,-5.45,-5.25,-4.97,1.73,1.73,1.73
75.12,7.13,5.44,7.13,5.44,-5.43,-5.24,-4.91,1.69,1.69,1.69
75.87,7.08,5.42,7.07,5.42,-5.42,-5.22,-4.85,1.66,1.66,1.66
76.63,7.02,5.40,7.02,5.40,-5.40,-5.21,-4.80,1.62,1.63,1.62
77.40,6.97,5.37,6.96,5.37,-5.37,-5.19,-4.74,1.60,1.59,1.60
78.17,6.91,5.35,6.91,5.35,-5.35,-5.18,-4.69,1.56,1.56,1.56
78.95,6.85,5.31,6.85,5.32,-5.32,-5.16,-4.64,1.53,1.53,1.53
79.74,6.80,5.29,6.79,5.29,-5.29,-5.15,-4.59,1.51,1.50,1.51
80.54,6.74,5.26,6.74,5.26,-5.26,-5.13,-4.54,1.48,1.47,1.47
81.35,6.68,5.24,6.68,5.23,-5.24,-5.12,-4.50,1.44,1.44,1.44
82.16,6.62,5.20,6.62,5.20,-5.21,-5.10,-4.46,1.41,1.41,1.42
82.98,6.56,5.17,6.56,5.18,-5.18,-5.09,-4.42,1.38,1.38,1.38
83.81,6.51,5.15,6.50,5.15,-5.15,-5.07,-4.39,1.36,1.35,1.36
84.65,6.45,5.13,6.45,5.13,-5.12,-5.05,-4.36,1.33,1.33,1.32
85.50,6.39,5.10,6.39,5.10,-5.09,-5.04,-4.33,1.29,1.29,1.29
86.35,6.33,5.07,6.33,5.07,-5.07,-5.02,-4.30,1.26,1.26,1.26
87.22,6.27,5.03,6.27,5.04,-5.04,-5.01,-4.28,1.23,1.23,1.24
88.09,6.21,5.01,6.21,5.01,-5.01,-4.99,-4.26,1.20,1.20,1.20
88.97,6.15,4.97,6.15,4.98,-4.98,-4.97,-4.25,1.16,1.17,1.17
89.86,6.10,4.97,6.09,4.96,-4.96,-4.96,-4.23,1.14,1.14,1.13
90.76,6.04,4.93,6.03,4.93,-4.93,-4.94,-4.22,1.11,1.11,1.11
91.66,5.97,4.90,5.97,4.90,-4.90,-4.92,-4.22,1.07,1.07,1.06
92.58,5.91,4.87,5.91,4.87,-4.87,-4.91,-4.21,1.04,1.04,1.04
93.51,5.85,4.84,5.85,4.84,-4.85,-4.89,-4.21,1.00,1.00,1.00
94.44,5.79,4.81,5.79,4.82,-4.82,-4.87,-4.22,0.97,0.97,0.98
95.39,5.73,4.80,5.73,4.79,-4.80,-4.85,-4.22,0.93,0.93,0.93
96.34,5.66,4.77,5.66,4.77,-4.77,-4.83,-4.23,0.88,0.89,0.89
97.30,5.60,4.75,5.60,4.75,-4.75,-4.82,-4.24,0.85,0.85,0.85
98.28,5.54,4.74,5.53,4.73,-4.73,-4.80,-4.25,0.81,0.81,0.80
99.26,5.47,4.71,5.47,4.71,-4.70,-4.78,-4.27,0.76,0.77,0.76
100.25,5.41,4.69,5.41,4.68,-4.68,-4.76,-4.29,0.73,0.72,0.72
101.25,5.34,4.65,5.34,4.65,-4.66,-4.74,-4.31,0.68,0.69,0.69
102.27,5.28,4.62,5.28,4.62,-4.63,-4.72,-4.33,0.65,0.65,0.65
103.29,5.22,4.60,5.21,4.60,-4.60,-4.70,-4.35,0.62,0.61,0.62
104.32,5.15,4.57,5.15,4.57,-4.57,-4.68,-4.37,0.58,0.58,0.58
105.37,5.09,4.55,5.09,4.54,-4.54,-4.66,-4.40,0.55,0.55,0.54
106.42,5.02,4.51,5.02,4.51,-4.51,-4.64,-4.42,0.51,0.51,0.51
107.48,4.96,4.49,4.96,4.49,-4.48,-4.62,-4.45,0.47,0.47,0.46
108.56,4.89,4.45,4.89,4.45,-4.46,-4.60,-4.47,0.43,0.43,0.44
109.64,4.83,4.43,4.83,4.43,-4.43,-4.58,-4.50,0.40,0.40,0.40
110.74,4.76,4.40,4.76,4.40,-4.41,-4.56,-4.52,0.35,0.36,0.36
111.85,4.71,4.38,4.71,4.38,-4.39,-4.54,-4.55,0.32,0.32,0.32
112.97,4.65,4.37,4.65,4.36,-4.37,-4.52,-4.57,0.28,0.28,0.28
114.10,4.59,4.35,4.59,4.35,-4.35,-4.50,-4.59,0.24,0.23,0.24
115.24,4.52,4.33,4.52,4.34,-4.34,-4.47,-4.60,0.18,0.18,0.18
116.39,4.46,4.33,4.46,4.33,-4.32,-4.45,-4.62,0.13,0.13,0.13
117.55,4.39,4.31,4.39,4.32,-4.31,-4.43,-4.63,0.08,0.08,0.07
118.73,4.33,4.31,4.32,4.30,-4.30,-4.40,-4.64,0.03,0.03,0.02
119.92,4.25,4.28,4.25,4.28,-4.28,-4.38,-4.64,-0.03,-0.03,-0.04
121.12,4.18,4.26,4.18,4.27,-4.27,-4.36,-4.64,-0.09,-0.09,-0.08
122.33,4.11,4.25,4.11,4.25,-4.26,-4.33,-4.64,-0.15,-0.15,-0.14
123.55,4.04,4.24,4.04,4.24,-4.24,-4.31,-4.63,-0.21,-0.20,-0.20
124.79,3.98,4.24,3.97,4.23,-4.23,-4.28,-4.62,-0.25,-0.26,-0.26
126.03,3.90,4.22,3.90,4.22,-4.22,-4.26,-4.61,-0.32,-0.32,-0.32
127.29,3.83,4.21,3.83,4.21,-4.21,-4.23,-4.59,-0.39,-0.38,-0.38
128.57,3.76,4.20,3.76,4.20,-4.20,-4.20,-4.56,-0.44,-0.44,-0.44
129.85,3.69,4.19,3.69,4.19,-4.19,-4.17,-4.54,-0.50,-0.50,-0.50
131.15,3.63,4.19,3.62,4.18,-4.18,-4.15,-4.50,-0.55,-0.55,-0.56
132.46,3.55,4.16,3.55,4.16,-4.16,-4.12,-4.47,-0.61,-0.61,-0.61
133.79,3.48,4.14,3.48,4.14,-4.13,-4.09,-4.43,-0.66,-0.65,-0.66
135.12,3.41,4.11,3.41,4.10,-4.11,-4.06,-4.39,-0.70,-0.70,-0.70
136.48,3.34,4.07,3.34,4.08,-4.08,-4.03,-4.34,-0.74,-0.74,-0.73
137.84,3.27,4.04,3.27,4.04,-4.04,-3.99,-4.29,-0.77,-0.78,-0.77
139.22,3.20,4.02,3.20,4.01,-4.01,-3.96,-4.24,-0.81,-0.81,-0.82
140.61,3.12,3.96,3.12,3.97,-3.96,-3.93,-4.19,-0.85,-0.84,-0.84
142.02,3.05,3.92,3.05,3.92,-3.92,-3.89,-4.14,-0.87,-0.87,-0.88
143.44,2.98,3.89,2.97,3.88,-3.88,-3.86,-4.08,-0.90,-0.91,-0.91
144.87,2.90,3.83,2.90,3.83,-3.84,-3.82,-4.03,-0.94,-0.94,-0.93
146.32,2.83,3.79,2.83,3.79,-3.79,-3.78,-3.97,-0.96,-0.96,-0.96
147.78,2.76,3.75,2.76,3.74,-3.75,-3.74,-3.91,-0.99,-0.99,-0.99
149.26,2.69,3.70,2.69,3.70,-3.70,-3.70,-3.86,-1.01,-1.01,-1.02
150.75,2.61,3.66,2.61,3.66,-3.65,-3.66,-3.80,-1.05,-1.04,-1.05
152.26,2.54,3.61,2.54,3.61,-3.61,-3.61,-3.74,-1.07,-1.07,-1.07
153.78,2.46,3.56,2.46,3.56,-3.56,-3.57,-3.69,-1.11,-1.10,-1.11
155.32,2.39,3.52,2.38,3.52,-3.52,-3.53,-3.63,-1.13,-1.14,-1.13
156.88,2.31,3.47,2.31,3.48,-3.48,-3.48,-3.58,-1.17,-1.17,-1.16
158.44,2.23,3.44,2.23,3.43,-3.44,-3.43,-3.53,-1.21,-1.21,-1.21
160.03,2.16,3.40,2.15,3.39,-3.40,-3.39,-3.48,-1.24,-1.24,-1.24
161.63,2.08,3.35,2.08,3.36,-3.36,-3.34,-3.43,-1.28,-1.28,-1.27
163.24,2.01,3.32,2.01,3.32,-3.32,-3.30,-3.39,-1.31,-1.31,-1.31
164.88,1.94,3.29,1.94,3.29,-3.28,-3.26,-3.34,-1.35,-1.35,-1.35
166.53,1.87,3.26,1.87,3.26,-3.25,-3.22,-3.30,-1.38,-1.38,-1.39
168.19,1.79,3.21,1.79,3.22,-3.21,-3.19,-3.26,-1.42,-1.42,-1.42
169.87,1.73,3.19,1.72,3.18,-3.18,-3.16,-3.23,-1.45,-1.45,-1.46
171.57,1.65,3.13,1.65,3.14,-3.14,-3.14,-3.19,-1.49,-1.49,-1.48
173.29,1.59,3.11,1.59,3.11,-3.11,-3.12,-3.16,-1.52,-1.52,-1.52
175.02,1.52,3.07,1.52,3.07,-3.08,-3.10,-3.13,-1.56,-1.56,-1.56
176.77,1.47,3.06,1.47,3.05,-3.05,-3.09,-3.10,-1.59,-1.59,-1.59
178.54,1.41,3.02,1.41,3.03,-3.03,-3.08,-3.07,-1.63,-1.62,-1.61
180.32,1.37,3.03,1.36,3.02,-3.02,-3.08,-3.05,-1.65,-1.66,-1.66
182.13,1.32,3.01,1.32,3.01,-3.01,-3.08,-3.03,-1.69,-1.69,-1.69
183.95,1.28,3.00,1.29,3.01,-3.01,-3.08,-3.01,-1.73,-1.72,-1.72
185.79,1.26,3.01,1.26,3.01,-3.01,-3.08,-2.99,-1.75,-1.76,-1.75
187.65,1.24,3.02,1.23,3.02,-3.02,-3.08,-2.98,-1.78,-1.79,-1.78
189.52,1.21,3.03,1.22,3.03,-3.03,-3.08,-2.97,-1.83,-1.82,-1.82
191.42,1.20,3.04,1.20,3.05,-3.05,-3.08,-2.96,-1.85,-1.85,-1.84
193.33,1.19,3.07,1.18,3.07,-3.07,-3.08,-2.95,-1.88,-1.89,-1.88
195.27,1.17,3.09,1.17,3.09,-3.09,-3.08,-2.94,-1.92,-1.92,-1.92
197.22,1.16,3.11,1.16,3.11,-3.10,-3.08,-2.94,-1.95,-1.95,-1.96
199.19,1.14,3.12,1.14,3.13,-3.12,-3.07,-2.94,-1.98,-1.98,-1.98
201.18,1.13,3.14,1.13,3.14,-3.13,-3.07,-2.93,-2.00,-2.00,-2.01
203.19,1.11,3.14,1.11,3.14,-3.14,-3.06,-2.93,-2.03,-2.03,-2.03
205.23,1.08,3.14,1.08,3.14,-3.14,-3.06,-2.94,-2.06,-2.06,-2.06
207.28,1.05,3.13,1.05,3.13,-3.14,-3.05,-2.94,-2.09,-2.09,-2.08
209.35,1.01,3.13,1.01,3.13,-3.13,-3.04,-2.94,-2.12,-2.12,-2.12
211.44,0.97,3.11,0.97,3.12,-3.11,-3.02,-2.94,-2.15,-2.14,-2.14
213.56,0.94,3.10,0.93,3.10,-3.10,-3.01,-2.95,-2.16,-2.17,-2.17
215.69,0.89,3.08,0.89,3.08,-3.08,-3.00,-2.95,-2.19,-2.19,-2.19
217.85,0.84,3.05,0.84,3.05,-3.05,-2.98,-2.95,-2.22,-2.21,-2.21
220.03,0.79,3.03,0.79,3.03,-3.03,-2.96,-2.96,-2.24,-2.24,-2.24
222.23,0.74,3.00,0.74,3.00,-3.00,-2.95,-2.96,-2.26,-2.26,-2.26
224.45,0.69,2.97,0.68,2.97,-2.97,-2.93,-2.96,-2.28,-2.28,-2.29
226.70,0.63,2.93,0.63,2.94,-2.94,-2.91,-2.96,-2.31,-2.30,-2.31
228.96,0.58,2.89,0.58,2.90,-2.90,-2.89,-2.96,-2.32,-2.32,-2.32
231.25,0.53,2.86,0.52,2.86,-2.87,-2.86,-2.96,-2.34,-2.34,-2.34
233.57,0.47,2.82,0.47,2.83,-2.83,-2.84,-2.96,-2.36,-2.36,-2.36
235.90,0.42,2.80,0.42,2.80,-2.79,-2.82,-2.95,-2.37,-2.38,-2.39
238.26,0.36,2.76,0.36,2.76,-2.76,-2.79,-2.94,-2.40,-2.40,-2.40
240.64,0.31,2.71,0.31,2.72,-2.72,-2.77,-2.93,-2.41,-2.41,-2.40
243.05,0.26,2.68,0.26,2.68,-2.68,-2.74,-2.92,-2.43,-2.43,-2.42
245.48,0.21,2.65,0.21,2.65,-2.65,-2.71,-2.90,-2.44,-2.44,-2.44
247.93,0.16,2.62,0.16,2.61,-2.61,-2.68,-2.88,-2.45,-2.45,-2.46
250.41,0.12,2.58,0.11,2.58,-2.58,-2.65,-2.86,-2.46,-2.46,-2.46
252.92,0.07,2.54,0.07,2.54,-2.54,-2.62,-2.83,-2.47,-2.47,-2.47
255.45,0.02,2.51,0.02,2.51,-2.51,-2.59,-2.80,-2.49,-2.49,-2.49
258.00,-0.02,2.47,-0.02,2.47,-2.48,-2.56,-2.77,-2.50,-2.50,-2.50
260.58,-0.06,2.44,-0.06,2.45,-2.45,-2.53,-2.74,-2.51,-2.51,-2.50
263.19,-0.09,2.43,-0.10,2.42,-2.42,-2.49,-2.70,-2.51,-2.51,-2.52
265.82,-0.13,2.39,-0.13,2.39,-2.39,-2.46,-2.66,-2.52,-2.52,-2.52
268.48,-0.17,2.37,-0.17,2.37,-2.36,-2.43,-2.62,-2.54,-2.53,-2.54
271.16,-0.21,2.33,-0.21,2.34,-2.34,-2.39,-2.58,-2.55,-2.55,-2.54
273.87,-0.25,2.31,-0.25,2.31,-2.31,-2.36,-2.53,-2.56,-2.56,-2.56
276.61,-0.29,2.28,-0.29,2.28,-2.28,-2.32,-2.48,-2.57,-2.57,-2.58
279.38,-0.33,2.26,-0.33,2.26,-2.25,-2.28,-2.43,-2.59,-2.58,-2.59
282.17,-0.36,2.23,-0.37,2.23,-2.23,-2.25,-2.38,-2.59,-2.59,-2.59
284.99,-0.40,2.20,-0.40,2.20,-2.20,-2.21,-2.33,-2.60,-2.60,-2.60
287.84,-0.44,2.15,-0.44,2.17,-2.17,-2.17,-2.27,-2.61,-2.61,-2.59
290.72,-0.47,2.15,-0.48,2.14,-2.14,-2.14,-2.22,-2.61,-2.61,-2.62
293.63,-0.51,2.11,-0.51,2.11,-2.11,-2.10,-2.16,-2.62,-2.62,-2.62
296.57,-0.55,2.07,-0.55,2.08,-2.07,-2.06,-2.10,-2.63,-2.62,-2.63
299.53,-0.58,2.05,-0.58,2.05,-2.04,-2.02,-2.05,-2.63,-2.63,-2.63
302.53,-0.62,2.01,-0.62,2.01,-2.01,-1.98,-1.99,-2.63,-2.63,-2.63
305.55,-0.65,1.98,-0.65,1.98,-1.98,-1.95,-1.93,-2.63,-2.64,-2.64
308.61,-0.69,1.94,-0.69,1.94,-1.95,-1.91,-1.87,-2.64,-2.64,-2.63
311.69,-0.72,1.91,-0.72,1.91,-1.92,-1.87,-1.82,-2.64,-2.64,-2.63
314.81,-0.75,1.88,-0.75,1.88,-1.88,-1.83,-1.76,-2.63,-2.63,-2.64
317.96,-0.78,1.86,-0.78,1.86,-1.85,-1.80,-1.70,-2.63,-2.63,-2.64
321.14,-0.81,1.82,-0.81,1.82,-1.82,-1.76,-1.65,-2.63,-2.63,-2.63
324.35,-0.85,1.78,-0.85,1.78,-1.78,-1.72,-1.59,-2.63,-2.63,-2.63
327.59,-0.88,1.74,-0.88,1.74,-1.75,-1.68,-1.54,-2.63,-2.63,-2.62
330.87,-0.92,1.71,-0.92,1.71,-1.71,-1.65,-1.48,-2.63,-2.63,-2.63
334.18,-0.94,1.69,-0.95,1.68,-1.68,-1.61,-1.43,-2.62,-2.62,-2.63
337.52,-0.98,1.64,-0.98,1.65,-1.64,-1.57,-1.38,-2.62,-2.62,-2.62
340.90,-1.01,1.60,-1.02,1.60,-1.60,-1.53,-1.32,-2.61,-2.62,-2.62
344.30,-1.06,1.56,-1.06,1.56,-1.56,-1.50,-1.27,-2.63,-2.62,-2.62
347.75,-1.09,1.52,-1.09,1.53,-1.53,-1.46,-1.22,-2.62,-2.62,-2.61
351.23,-1.12,1.50,-1.13,1.49,-1.49,-1.43,-1.17,-2.61,-2.61,-2.62
354.74,-1.16,1.44,-1.16,1.45,-1.45,-1.39,-1.12,-2.61,-2.61,-2.60
358.28,-1.21,1.40,-1.20,1.41,-1.41,-1.36,-1.08,-2.62,-2.61,-2.62
361.87,-1.24,1.38,-1.25,1.37,-1.37,-1.32,-1.03,-2.61,-2.62,-2.62
365.49,-1.28,1.33,-1.28,1.33,-1.33,-1.29,-0.98,-2.62,-2.62,-2.61
369.14,-1.32,1.29,-1.32,1.29,-1.30,-1.25,-0.94,-2.62,-2.61,-2.61
372.83,-1.35,1.26,-1.36,1.26,-1.26,-1.22,-0.89,-2.61,-2.62,-2.61
376.56,-1.40,1.22,-1.40,1.22,-1.22,-1.19,-0.85,-2.62,-2.61,-2.62
380.33,-1.43,1.18,-1.43,1.18,-1.18,-1.15,-0.81,-2.61,-2.61,-2.62
384.13,-1.47,1.15,-1.47,1.14,-1.14,-1.12,-0.76,-2.61,-2.61,-2.62
387.97,-1.51,1.10,-1.51,1.10,-1.10,-1.09,-0.72,-2.61,-2.61,-2.61
391.85,-1.55,1.06,-1.55,1.06,-1.06,-1.05,-0.68,-2.61,-2.61,-2.61
395.77,-1.59,1.02,-1.59,1.02,-1.02,-1.02,-0.64,-2.61,-2.61,-2.61
399.73,-1.62,0.98,-1.63,0.98,-0.98,-0.99,-0.60,-2.60,-2.60,-2.60
403.72,-1.66,0.93,-1.66,0.94,-0.94,-0.96,-0.56,-2.60,-2.60,-2.59
407.76,-1.70,0.89,-1.70,0.90,-0.90,-0.93,-0.53,-2.60,-2.60,-2.59
411.84,-1.73,0.86,-1.73,0.86,-0.86,-0.90,-0.49,-2.59,-2.59,-2.60
415.96,-1.76,0.82,-1.77,0.83,-0.82,-0.87,-0.46,-2.58,-2.59,-2.59
420.12,-1.80,0.80,-1.80,0.79,-0.79,-0.84,-0.42,-2.59,-2.59,-2.60
424.32,-1.84,0.76,-1.84,0.75,-0.75,-0.81,-0.39,-2.59,-2.59,-2.60
428.56,-1.87,0.71,-1.87,0.71,-0.72,-0.78,-0.35,-2.59,-2.59,-2.58
432.85,-1.90,0.68,-1.91,0.68,-0.69,-0.75,-0.32,-2.59,-2.59,-2.58
437.18,-1.94,0.65,-1.93,0.65,-0.66,-0.72,-0.29,-2.60,-2.59,-2.59
441.55,-1.96,0.63,-1.97,0.63,-0.62,-0.69,-0.26,-2.59,-2.59,-2.59
445.96,-1.99,0.60,-2.00,0.60,-0.59,-0.66,-0.23,-2.58,-2.59,-2.59
450.42,-2.03,0.56,-2.03,0.57,-0.56,-0.63,-0.20,-2.59,-2.59,-2.59
454.93,-2.06,0.53,-2.06,0.53,-0.53,-0.60,-0.17,-2.59,-2.59,-2.59
459.48,-2.09,0.50,-2.09,0.50,-0.50,-0.57,-0.15,-2.59,-2.59,-2.59
464.07,-2.12,0.46,-2.12,0.46,-0.47,-0.54,-0.12,-2.59,-2.59,-2.59
468.71,-2.15,0.42,-2.15,0.43,-0.43,-0.51,-0.10,-2.59,-2.58,-2.58
473.40,-2.17,0.40,-2.18,0.40,-0.40,-0.48,-0.08,-2.57,-2.58,-2.58
478.13,-2.21,0.37,-2.21,0.37,-0.37,-0.45,-0.05,-2.58,-2.58,-2.58
482.91,-2.23,0.35,-2.23,0.34,-0.34,-0.42,-0.03,-2.58,-2.58,-2.58
487.74,-2.26,0.32,-2.26,0.32,-0.32,-0.39,-0.01,-2.58,-2.58,-2.58
