frequency,raw,error,smoothed,error_smoothed,equalization,parametric_eq,fixed_band_eq,equalized_raw,equalized_smoothed,target
20.00,-4.38,-5.64,-4.38,-5.64,5.64,5.28,1.65,1.26,1.26,1.26
20.20,-4.35,-5.59,-4.35,-5.59,5.59,5.24,1.70,1.24,1.24,1.24
20.40,-4.33,-5.54,-4.33,-5.54,5.54,5.20,1.75,1.21,1.21,1.21
20.61,-4.29,-5.48,-4.29,-5.48,5.48,5.16,1.80,1.19,1.19,1.19
20.81,-4.26,-5.43,-4.26,-5.43,5.42,5.13,1.86,1.16,1.16,1.17
21.02,-4.23,-5.37,-4.23,-5.37,5.37,5.09,1.91,1.14,1.14,1.14
21.23,-4.19,-5.31,-4.19,-5.31,5.31,5.05,1.97,1.12,1.12,1.12
21.44,-4.15,-5.25,-4.16,-5.25,5.25,5.01,2.03,1.10,1.10,1.10
21.66,-4.12,-5.20,-4.12,-5.19,5.19,4.97,2.09,1.07,1.08,1.08
21.87,-4.08,-5.14,-4.08,-5.14,5.13,4.93,2.15,1.05,1.05,1.06
22.09,-4.04,-5.08,-4.04,-5.08,5.07,4.89,2.21,1.03,1.03,1.04
22.31,-4.00,-5.02,-4.00,-5.01,5.01,4.85,2.28,1.01,1.01,1.02
22.54,-3.97,-4.96,-3.96,-4.95,4.95,4.81,2.35,0.98,0.99,0.99
22.76,-3.92,-4.89,-3.93,-4.89,4.89,4.77,2.42,0.97,0.97,0.96
22.99,-3.89,-4.84,-3.89,-4.83,4.84,4.73,2.49,0.95,0.95,0.94
23.22,-3.85,-4.78,-3.85,-4.78,4.78,4.69,2.56,0.93,0.93,0.92
23.45,-3.81,-4.72,-3.81,-4.72,4.72,4.65,2.63,0.91,0.91,0.91
23.69,-3.78,-4.67,-3.77,-4.67,4.67,4.60,2.71,0.89,0.90,0.89
23.92,-3.73,-4.61,-3.74,-4.62,4.62,4.56,2.78,0.89,0.88,0.88
24.16,-3.70,-4.56,-3.70,-4.57,4.56,4.52,2.86,0.86,0.86,0.86
24.40,-3.67,-4.52,-3.66,-4.51,4.51,4.48,2.94,0.84,0.85,0.85
24.65,-3.62,-4.46,-3.62,-4.46,4.46,4.44,3.02,0.84,0.84,0.84
24.89,-3.58,-4.40,-3.58,-4.41,4.41,4.40,3.10,0.83,0.83,0.82
25.14,-3.54,-4.35,-3.54,-4.35,4.35,4.36,3.18,0.81,0.81,0.81
25.39,-3.50,-4.30,-3.50,-4.30,4.30,4.32,3.27,0.80,0.80,0.80
25.65,-3.46,-4.25,-3.46,-4.25,4.25,4.28,3.35,0.78,0.78,0.79
25.91,-3.42,-4.20,-3.42,-4.20,4.19,4.24,3.43,0.77,0.77,0.78
26.16,-3.37,-4.14,-3.37,-4.14,4.14,4.20,3.51,0.77,0.76,0.77
26.43,-3.33,-4.08,-3.33,-4.08,4.08,4.15,3.59,0.75,0.75,0.75
26.69,-3.29,-4.03,-3.29,-4.03,4.03,4.11,3.67,0.74,0.74,0.74
26.96,-3.25,-3.98,-3.25,-3.97,3.98,4.07,3.75,0.73,0.73,0.72
27.23,-3.21,-3.93,-3.21,-3.93,3.93,4.03,3.83,0.71,0.71,0.71
27.50,-3.17,-3.87,-3.17,-3.88,3.87,3.99,3.90,0.70,0.70,0.70
27.77,-3.13,-3.83,-3.13,-3.83,3.83,3.95,3.97,0.70,0.70,0.70
28.05,-3.08,-3.77,-3.09,-3.78,3.78,3.91,4.04,0.70,0.69,0.69
28.33,-3.05,-3.73,-3.05,-3.73,3.73,3.87,4.10,0.68,0.69,0.68
28.62,-3.01,-3.69,-3.01,-3.69,3.69,3.83,4.17,0.68,0.68,0.68
28.90,-2.97,-3.64,-2.97,-3.64,3.64,3.79,4.22,0.67,0.67,0.67
29.19,-2.94,-3.61,-2.94,-3.60,3.60,3.75,4.27,0.66,0.66,0.67
29.48,-2.90,-3.56,-2.90,-3.56,3.56,3.71,4.31,0.66,0.66,0.66
29.78,-2.87,-3.53,-2.87,-3.52,3.52,3.67,4.35,0.65,0.65,0.65
30.08,-2.83,-3.48,-2.84,-3.48,3.48,3.63,4.38,0.65,0.64,0.64
30.38,-2.81,-3.45,-2.80,-3.44,3.44,3.58,4.41,0.63,0.64,0.64
30.68,-2.77,-3.40,-2.77,-3.41,3.41,3.54,4.43,0.64,0.63,0.63
30.99,-2.74,-3.36,-2.75,-3.37,3.38,3.51,4.44,0.63,0.63,0.62
31.30,-2.73,-3.35,-2.72,-3.34,3.34,3.47,4.44,0.61,0.62,0.62
31.61,-2.70,-3.31,-2.71,-3.31,3.31,3.43,4.44,0.61,0.61,0.61
31.93,-2.69,-3.29,-2.69,-3.29,3.29,3.39,4.43,0.59,0.60,0.60
32.24,-2.67,-3.26,-2.67,-3.26,3.26,3.35,4.42,0.59,0.59,0.59
32.57,-2.65,-3.23,-2.65,-3.23,3.23,3.31,4.39,0.58,0.58,0.58
32.89,-2.63,-3.20,-2.63,-3.20,3.20,3.27,4.36,0.57,0.57,0.57
33.22,-2.61,-3.17,-2.61,-3.17,3.17,3.23,4.32,0.56,0.56,0.56
33.55,-2.59,-3.14,-2.59,-3.14,3.14,3.19,4.28,0.55,0.55,0.55
33.89,-2.57,-3.11,-2.57,-3.10,3.11,3.15,4.23,0.53,0.54,0.54
34.23,-2.54,-3.06,-2.55,-3.07,3.07,3.12,4.18,0.53,0.53,0.52
34.57,-2.52,-3.04,-2.52,-3.04,3.04,3.08,4.13,0.52,0.52,0.52
34.92,-2.50,-3.01,-2.50,-3.01,3.01,3.04,4.07,0.51,0.51,0.51
35.27,-2.47,-2.97,-2.47,-2.97,2.97,3.00,4.00,0.50,0.50,0.50
35.62,-2.45,-2.95,-2.45,-2.94,2.94,2.97,3.93,0.49,0.49,0.49
35.97,-2.42,-2.90,-2.42,-2.91,2.91,2.93,3.86,0.49,0.48,0.48
36.33,-2.40,-2.88,-2.40,-2.88,2.88,2.89,3.79,0.48,0.47,0.48
36.70,-2.38,-2.85,-2.38,-2.84,2.84,2.86,3.72,0.46,0.47,0.47
37.06,-2.35,-2.81,-2.35,-2.81,2.81,2.82,3.64,0.46,0.46,0.46
37.43,-2.32,-2.77,-2.32,-2.77,2.78,2.78,3.56,0.46,0.45,0.45
37.81,-2.30,-2.74,-2.30,-2.74,2.74,2.75,3.49,0.44,0.44,0.44
38.19,-2.27,-2.71,-2.27,-2.71,2.71,2.71,3.41,0.44,0.43,0.44
38.57,-2.25,-2.67,-2.25,-2.67,2.67,2.68,3.33,0.42,0.42,0.42
38.95,-2.22,-2.64,-2.22,-2.64,2.64,2.64,3.26,0.42,0.42,0.42
39.34,-2.19,-2.60,-2.19,-2.60,2.60,2.61,3.18,0.41,0.41,0.41
39.74,-2.16,-2.56,-2.16,-2.57,2.57,2.57,3.10,0.40,0.40,0.40
40.14,-2.14,-2.53,-2.14,-2.53,2.53,2.54,3.03,0.39,0.39,0.39
40.54,-2.11,-2.50,-2.11,-2.50,2.50,2.50,2.96,0.38,0.38,0.39
40.94,-2.08,-2.45,-2.08,-2.46,2.46,2.47,2.88,0.38,0.38,0.37
41.35,-2.06,-2.43,-2.06,-2.42,2.43,2.44,2.81,0.37,0.37,0.37
41.76,-2.03,-2.39,-2.03,-2.39,2.39,2.40,2.75,0.36,0.36,0.36
42.18,-2.01,-2.36,-2.01,-2.36,2.36,2.37,2.68,0.35,0.35,0.35
42.60,-1.99,-2.33,-1.99,-2.33,2.32,2.34,2.61,0.33,0.34,0.34
43.03,-1.96,-2.29,-1.96,-2.29,2.29,2.31,2.55,0.33,0.33,0.33
43.46,-1.94,-2.26,-1.94,-2.26,2.26,2.27,2.49,0.32,0.32,0.32
43.90,-1.91,-2.22,-1.91,-2.22,2.22,2.24,2.43,0.31,0.31,0.31
44.33,-1.88,-2.19,-1.88,-2.19,2.19,2.21,2.37,0.31,0.31,0.31
44.78,-1.86,-2.15,-1.86,-2.15,2.16,2.18,2.31,0.29,0.30,0.29
45.23,-1.83,-2.12,-1.83,-2.12,2.12,2.15,2.26,0.29,0.29,0.29
45.68,-1.81,-2.09,-1.81,-2.09,2.09,2.12,2.21,0.28,0.28,0.28
46.13,-1.78,-2.06,-1.78,-2.06,2.05,2.09,2.16,0.27,0.27,0.28
46.60,-1.75,-2.02,-1.75,-2.02,2.02,2.06,2.11,0.27,0.27,0.27
47.06,-1.73,-1.99,-1.73,-1.99,1.99,2.02,2.06,0.26,0.27,0.26
47.53,-1.70,-1.96,-1.70,-1.96,1.96,2.00,2.02,0.26,0.26,0.26
48.01,-1.68,-1.93,-1.68,-1.93,1.94,1.97,1.97,0.25,0.25,0.25
48.49,-1.66,-1.90,-1.66,-1.91,1.91,1.94,1.93,0.25,0.24,0.24
48.97,-1.65,-1.89,-1.65,-1.88,1.88,1.91,1.89,0.23,0.23,0.24
49.46,-1.63,-1.86,-1.63,-1.86,1.86,1.88,1.85,0.23,0.23,0.23
49.96,-1.61,-1.83,-1.61,-1.83,1.83,1.85,1.81,0.22,0.22,0.22
50.46,-1.59,-1.80,-1.59,-1.80,1.81,1.82,1.78,0.21,0.21,0.21
50.96,-1.57,-1.78,-1.57,-1.78,1.78,1.79,1.74,0.21,0.21,0.21
51.47,-1.56,-1.76,-1.56,-1.75,1.75,1.76,1.71,0.19,0.20,0.20
51.99,-1.54,-1.73,-1.54,-1.73,1.73,1.73,1.68,0.19,0.19,0.19
52.51,-1.52,-1.70,-1.53,-1.70,1.70,1.71,1.65,0.18,0.18,0.18
53.03,-1.51,-1.68,-1.51,-1.68,1.68,1.68,1.62,0.17,0.17,0.17
53.56,-1.49,-1.65,-1.49,-1.65,1.65,1.65,1.59,0.16,0.16,0.16
54.10,-1.47,-1.62,-1.48,-1.63,1.62,1.62,1.56,0.15,0.15,0.15
54.64,-1.46,-1.60,-1.46,-1.60,1.60,1.59,1.53,0.13,0.14,0.14
55.18,-1.44,-1.57,-1.44,-1.57,1.57,1.56,1.50,0.13,0.13,0.13
55.74,-1.42,-1.54,-1.42,-1.54,1.54,1.54,1.47,0.12,0.12,0.12
56.29,-1.40,-1.51,-1.40,-1.51,1.51,1.51,1.45,0.11,0.11,0.11
56.86,-1.38,-1.48,-1.38,-1.47,1.48,1.48,1.42,0.10,0.10,0.09
57.42,-1.36,-1.44,-1.36,-1.45,1.45,1.45,1.40,0.09,0.09,0.08
58.00,-1.34,-1.42,-1.34,-1.42,1.42,1.43,1.37,0.08,0.08,0.08
58.58,-1.33,-1.40,-1.32,-1.39,1.39,1.40,1.34,0.06,0.07,0.07
59.16,-1.30,-1.35,-1.31,-1.36,1.36,1.37,1.32,0.06,0.05,0.05
59.76,-1.29,-1.33,-1.29,-1.33,1.33,1.34,1.29,0.04,0.04,0.04
60.35,-1.27,-1.31,-1.27,-1.30,1.30,1.31,1.26,0.03,0.03,0.04
60.96,-1.25,-1.27,-1.25,-1.27,1.27,1.28,1.24,0.02,0.02,0.02
61.57,-1.23,-1.24,-1.23,-1.24,1.24,1.26,1.21,0.01,0.01,0.01
62.18,-1.21,-1.20,-1.21,-1.20,1.21,1.23,1.18,-0.00,-0.00,-0.01
62.80,-1.19,-1.16,-1.20,-1.17,1.17,1.20,1.15,-0.02,-0.02,-0.03
63.43,-1.18,-1.15,-1.18,-1.14,1.14,1.17,1.13,-0.04,-0.04,-0.03
64.07,-1.17,-1.12,-1.16,-1.11,1.11,1.14,1.10,-0.06,-0.05,-0.05
64.71,-1.14,-1.07,-1.15,-1.08,1.08,1.11,1.07,-0.06,-0.07,-0.07
65.35,-1.13,-1.05,-1.13,-1.05,1.05,1.08,1.04,-0.09,-0.09,-0.09
66.01,-1.12,-1.02,-1.11,-1.01,1.01,1.05,1.01,-0.11,-0.10,-0.10
66.67,-1.10,-0.98,-1.10,-0.98,0.98,1.02,0.98,-0.12,-0.12,-0.12
67.33,-1.08,-0.94,-1.09,-0.94,0.95,0.99,0.95,-0.13,-0.14,-0.14
68.01,-1.08,-0.92,-1.07,-0.91,0.91,0.96,0.91,-0.17,-0.16,-0.16
68.69,-1.06,-0.88,-1.06,-0.88,0.88,0.93,0.88,-0.18,-0.18,-0.18
69.37,-1.05,-0.85,-1.05,-0.85,0.85,0.90,0.85,-0.20,-0.21,-0.20
70.07,-1.04,-0.81,-1.04,-0.81,0.81,0.87,0.82,-0.23,-0.22,-0.23
70.77,-1.03,-0.78,-1.03,-0.78,0.78,0.84,0.78,-0.25,-0.25,-0.25
71.48,-1.02,-0.75,-1.02,-0.75,0.75,0.80,0.75,-0.27,-0.27,-0.27
72.19,-1.02,-0.73,-1.01,-0.72,0.72,0.77,0.71,-0.30,-0.30,-0.30
72.91,-1.00,-0.68,-1.01,-0.69,0.69,0.74,0.68,-0.32,-0.32,-0.32
73.64,-1.00,-0.65,-1.00,-0.65,0.65,0.71,0.65,-0.35,-0.35,-0.35
74.38,-1.00,-0.62,-1.00,-0.62,0.62,0.67,0.61,-0.38,-0.38,-0.38
75.12,-0.99,-0.59,-0.99,-0.59,0.59,0.64,0.58,-0.40,-0.41,-0.40
75.87,-0.99,-0.55,-0.99,-0.55,0.55,0.60,0.54,-0.44,-0.44,-0.44
76.63,-0.99,-0.52,-0.99,-0.52,0.52,0.57,0.51,-0.47,-0.47,-0.47
77.40,-0.99,-0.49,-0.99,-0.49,0.48,0.53,0.47,-0.51,-0.51,-0.50
78.17,-0.99,-0.45,-0.99,-0.45,0.45,0.50,0.44,-0.54,-0.54,-0.54
78.95,-0.99,-0.41,-0.99,-0.41,0.41,0.46,0.40,-0.58,-0.58,-0.58
79.74,-0.99,-0.37,-0.99,-0.37,0.37,0.43,0.37,-0.62,-0.62,-0.62
80.54,-0.99,-0.33,-0.99,-0.33,0.33,0.39,0.33,-0.66,-0.66,-0.66
81.35,-0.99,-0.29,-0.99,-0.29,0.29,0.36,0.30,-0.70,-0.70,-0.70
82.16,-0.99,-0.25,-0.99,-0.25,0.25,0.32,0.26,-0.74,-0.74,-0.74
82.98,-1.00,-0.22,-1.00,-0.21,0.21,0.28,0.23,-0.79,-0.78,-0.78
83.81,-1.00,-0.18,-1.00,-0.18,0.18,0.24,0.19,-0.82,-0.83,-0.82
84.65,-1.01,-0.13,-1.01,-0.14,0.14,0.21,0.16,-0.87,-0.87,-0.88
85.50,-1.02,-0.10,-1.02,-0.10,0.10,0.17,0.12,-0.92,-0.91,-0.92
86.35,-1.02,-0.07,-1.03,-0.07,0.07,0.13,0.09,-0.95,-0.96,-0.95
87.22,-1.04,-0.05,-1.03,-0.04,0.04,0.09,0.05,-1.01,-1.00,-1.00
88.09,-1.04,-0.00,-1.04,-0.00,0.00,0.05,0.02,-1.04,-1.04,-1.04
88.97,-1.05,0.03,-1.05,0.03,-0.03,0.02,-0.02,-1.08,-1.08,-1.08
89.86,-1.06,0.07,-1.06,0.07,-0.06,-0.02,-0.06,-1.12,-1.12,-1.13
90.76,-1.07,0.09,-1.07,0.10,-0.10,-0.06,-0.09,-1.17,-1.17,-1.16
91.66,-1.08,0.13,-1.08,0.13,-0.13,-0.10,-0.13,-1.21,-1.21,-1.21
92.58,-1.09,0.16,-1.09,0.16,-0.16,-0.14,-0.16,-1.25,-1.25,-1.25
93.51,-1.10,0.19,-1.10,0.19,-0.19,-0.18,-0.20,-1.29,-1.29,-1.29
94.44,-1.11,0.22,-1.11,0.22,-0.22,-0.22,-0.23,-1.33,-1.33,-1.33
95.39,-1.12,0.26,-1.12,0.25,-0.25,-0.26,-0.27,-1.37,-1.37,-1.38
96.34,-1.14,0.27,-1.14,0.28,-0.28,-0.30,-0.31,-1.42,-1.42,-1.41
97.30,-1.15,0.31,-1.15,0.31,-0.31,-0.34,-0.34,-1.46,-1.46,-1.46
98.28,-1.16,0.34,-1.16,0.34,-0.34,-0.38,-0.38,-1.50,-1.50,-1.50
99.26,-1.17,0.38,-1.17,0.37,-0.37,-0.41,-0.41,-1.54,-1.55,-1.55
100.25,-1.19,0.40,-1.19,0.41,-0.41,-0.45,-0.45,-1.60,-1.59,-1.59
101.25,-1.20,0.44,-1.20,0.44,-0.44,-0.49,-0.48,-1.64,-1.64,-1.64
102.27,-1.21,0.48,-1.22,0.48,-0.48,-0.53,-0.52,-1.69,-1.69,-1.69
103.29,-1.23,0.51,-1.23,0.51,-0.51,-0.57,-0.55,-1.74,-1.74,-1.74
104.32,-1.24,0.55,-1.24,0.55,-0.54,-0.61,-0.59,-1.79,-1.78,-1.79
105.37,-1.25,0.58,-1.26,0.58,-0.58,-0.64,-0.62,-1.83,-1.83,-1.84
106.42,-1.27,0.61,-1.27,0.61,-0.61,-0.68,-0.65,-1.88,-1.88,-1.88
107.48,-1.29,0.64,-1.29,0.64,-0.65,-0.72,-0.69,-1.94,-1.93,-1.93
108.56,-1.30,0.68,-1.30,0.68,-0.68,-0.75,-0.72,-1.98,-1.98,-1.98
109.64,-1.31,0.72,-1.31,0.72,-0.72,-0.79,-0.75,-2.03,-2.03,-2.03
110.74,-1.32,0.76,-1.32,0.75,-0.75,-0.82,-0.78,-2.07,-2.07,-2.08
111.85,-1.34,0.78,-1.34,0.78,-0.78,-0.86,-0.81,-2.12,-2.12,-2.12
112.97,-1.36,0.81,-1.36,0.82,-0.82,-0.89,-0.84,-2.18,-2.17,-2.17
114.10,-1.37,0.85,-1.37,0.85,-0.85,-0.92,-0.86,-2.22,-2.22,-2.22
115.24,-1.38,0.89,-1.39,0.88,-0.88,-0.96,-0.89,-2.26,-2.27,-2.27
116.39,-1.40,0.91,-1.40,0.91,-0.91,-0.99,-0.91,-2.31,-2.31,-2.31
117.55,-1.42,0.94,-1.42,0.94,-0.94,-1.02,-0.93,-2.36,-2.36,-2.36
118.73,-1.43,0.98,-1.44,0.97,-0.97,-1.05,-0.95,-2.40,-2.40,-2.41
119.92,-1.45,0.99,-1.45,1.00,-0.99,-1.08,-0.97,-2.45,-2.45,-2.44
121.12,-1.47,1.02,-1.47,1.02,-1.02,-1.11,-0.99,-2.49,-2.49,-2.49
122.33,-1.48,1.04,-1.48,1.04,-1.04,-1.13,-1.00,-2.53,-2.53,-2.52
123.55,-1.50,1.07,-1.50,1.07,-1.07,-1.16,-1.02,-2.57,-2.57,-2.57
124.79,-1.51,1.09,-1.51,1.09,-1.09,-1.19,-1.03,-2.61,-2.61,-2.60
126.03,-1.53,1.12,-1.53,1.12,-1.12,-1.21,-1.04,-2.65,-2.65,-2.65
127.29,-1.54,1.14,-1.54,1.14,-1.15,-1.23,-1.04,-2.69,-2.69,-2.68
128.57,-1.55,1.16,-1.55,1.17,-1.17,-1.26,-1.05,-2.72,-2.72,-2.72
129.85,-1.56,1.20,-1.56,1.19,-1.19,-1.28,-1.05,-2.75,-2.75,-2.76
131.15,-1.57,1.22,-1.57,1.22,-1.22,-1.30,-1.05,-2.79,-2.79,-2.79
132.46,-1.58,1.24,-1.58,1.24,-1.24,-1.32,-1.05,-2.82,-2.82,-2.82
133.79,-1.60,1.25,-1.60,1.25,-1.25,-1.34,-1.05,-2.85,-2.85,-2.85
135.12,-1.62,1.26,-1.62,1.27,-1.27,-1.36,-1.05,-2.89,-2.88,-2.88
136.48,-1.63,1.28,-1.63,1.28,-1.28,-1.37,-1.05,-2.91,-2.91,-2.91
137.84,-1.65,1.28,-1.65,1.29,-1.29,-1.39,-1.04,-2.94,-2.94,-2.93
139.22,-1.67,1.29,-1.67,1.30,-1.29,-1.40,-1.03,-2.96,-2.96,-2.96
140.61,-1.69,1.30,-1.69,1.30,-1.29,-1.42,-1.02,-2.99,-2.99,-2.99
142.02,-1.71,1.30,-1.72,1.30,-1.30,-1.43,-1.02,-3.01,-3.01,-3.01
143.44,-1.74,1.29,-1.74,1.30,-1.30,-1.44,-1.01,-3.04,-3.04,-3.03
144.87,-1.76,1.29,-1.76,1.29,-1.30,-1.45,-1.00,-3.06,-3.06,-3.06
146.32,-1.77,1.30,-1.78,1.30,-1.30,-1.46,-0.99,-3.07,-3.07,-3.07
147.78,-1.79,1.30,-1.79,1.30,-1.30,-1.47,-0.98,-3.09,-3.09,-3.09
149.26,-1.81,1.30,-1.81,1.30,-1.30,-1.47,-0.96,-3.11,-3.11,-3.11
150.75,-1.83,1.30,-1.83,1.30,-1.30,-1.48,-0.95,-3.13,-3.13,-3.13
152.26,-1.84,1.30,-1.84,1.30,-1.30,-1.48,-0.94,-3.14,-3.14,-3.14
153.78,-1.86,1.29,-1.86,1.30,-1.30,-1.49,-0.93,-3.16,-3.15,-3.16
155.32,-1.87,1.30,-1.87,1.30,-1.29,-1.49,-0.92,-3.16,-3.17,-3.17
156.88,-1.89,1.29,-1.89,1.29,-1.29,-1.49,-0.91,-3.18,-3.18,-3.18
158.44,-1.91,1.28,-1.91,1.28,-1.28,-1.49,-0.90,-3.19,-3.19,-3.19
160.03,-1.93,1.27,-1.93,1.27,-1.28,-1.49,-0.89,-3.21,-3.21,-3.20
161.63,-1.95,1.26,-1.95,1.26,-1.27,-1.49,-0.88,-3.22,-3.22,-3.21
163.24,-1.97,1.25,-1.97,1.26,-1.26,-1.48,-0.87,-3.23,-3.22,-3.23
164.88,-1.98,1.25,-1.98,1.25,-1.25,-1.48,-0.86,-3.23,-3.23,-3.24
166.53,-2.00,1.24,-2.00,1.24,-1.24,-1.47,-0.85,-3.24,-3.24,-3.24
168.19,-2.03,1.22,-2.03,1.23,-1.23,-1.47,-0.85,-3.26,-3.25,-3.25
169.87,-2.05,1.21,-2.05,1.21,-1.21,-1.46,-0.84,-3.27,-3.27,-3.26
171.57,-2.07,1.21,-2.07,1.20,-1.20,-1.45,-0.83,-3.27,-3.28,-3.28
173.29,-2.10,1.19,-2.10,1.19,-1.19,-1.44,-0.83,-3.29,-3.28,-3.29
175.02,-2.12,1.17,-2.12,1.17,-1.17,-1.43,-0.82,-3.29,-3.29,-3.29
176.77,-2.15,1.16,-2.15,1.15,-1.15,-1.42,-0.82,-3.31,-3.31,-3.31
178.54,-2.18,1.13,-2.18,1.14,-1.14,-1.41,-0.82,-3.32,-3.32,-3.31
180.32,-2.21,1.12,-2.21,1.12,-1.12,-1.40,-0.81,-3.33,-3.33,-3.33
182.13,-2.24,1.10,-2.24,1.10,-1.10,-1.38,-0.81,-3.34,-3.35,-3.34
183.95,-2.28,1.08,-2.27,1.09,-1.09,-1.37,-0.81,-3.37,-3.36,-3.36
185.79,-2.30,1.07,-2.30,1.07,-1.07,-1.35,-0.81,-3.37,-3.37,-3.37
187.65,-2.33,1.06,-2.34,1.05,-1.05,-1.34,-0.81,-3.38,-3.39,-3.39
189.52,-2.37,1.03,-2.37,1.03,-1.03,-1.32,-0.81,-3.40,-3.40,-3.40
191.42,-2.40,1.01,-2.40,1.01,-1.01,-1.30,-0.81,-3.41,-3.41,-3.41
193.33,-2.43,0.99,-2.44,0.99,-0.99,-1.29,-0.81,-3.42,-3.43,-3.42
195.27,-2.47,0.97,-2.47,0.97,-0.97,-1.27,-0.81,-3.44,-3.44,-3.44
197.22,-2.51,0.95,-2.51,0.95,-0.95,-1.25,-0.82,-3.46,-3.45,-3.46
199.19,-2.54,0.93,-2.54,0.93,-0.92,-1.23,-0.82,-3.47,-3.47,-3.47
201.18,-2.58,0.91,-2.59,0.90,-0.90,-1.21,-0.82,-3.48,-3.49,-3.49
203.19,-2.63,0.87,-2.63,0.88,-0.88,-1.19,-0.83,-3.51,-3.50,-3.50
205.23,-2.67,0.85,-2.67,0.85,-0.85,-1.16,-0.83,-3.52,-3.52,-3.52
207.28,-2.70,0.83,-2.71,0.83,-0.83,-1.14,-0.83,-3.53,-3.54,-3.53
209.35,-2.75,0.80,-2.74,0.81,-0.80,-1.12,-0.84,-3.55,-3.55,-3.55
211.44,-2.78,0.79,-2.78,0.78,-0.78,-1.10,-0.84,-3.56,-3.56,-3.57
213.56,-2.82,0.76,-2.82,0.76,-0.76,-1.07,-0.84,-3.58,-3.58,-3.58
215.69,-2.86,0.74,-2.86,0.73,-0.73,-1.05,-0.85,-3.59,-3.60,-3.60
217.85,-2.90,0.70,-2.90,0.71,-0.71,-1.02,-0.85,-3.61,-3.61,-3.61
220.03,-2.93,0.69,-2.93,0.69,-0.69,-1.00,-0.85,-3.63,-3.62,-3.62
222.23,-2.95,0.68,-2.96,0.67,-0.68,-0.97,-0.85,-3.63,-3.63,-3.63
224.45,-2.98,0.66,-2.98,0.66,-0.66,-0.95,-0.85,-3.64,-3.64,-3.64
226.70,-3.00,0.64,-3.00,0.65,-0.65,-0.92,-0.85,-3.65,-3.65,-3.65
228.96,-3.01,0.64,-3.02,0.64,-0.64,-0.90,-0.85,-3.65,-3.65,-3.65
231.25,-3.03,0.63,-3.03,0.63,-0.63,-0.87,-0.85,-3.66,-3.66,-3.66
233.57,-3.04,0.61,-3.04,0.62,-0.62,-0.84,-0.84,-3.66,-3.66,-3.66
235.90,-3.05,0.61,-3.05,0.61,-0.61,-0.82,-0.84,-3.66,-3.66,-3.66
238.26,-3.05,0.61,-3.05,0.61,-0.61,-0.79,-0.83,-3.66,-3.66,-3.66
240.64,-3.05,0.60,-3.05,0.61,-0.60,-0.76,-0.82,-3.65,-3.65,-3.65
243.05,-3.05,0.61,-3.06,0.60,-0.59,-0.74,-0.81,-3.65,-3.65,-3.66
245.48,-3.07,0.58,-3.06,0.59,-0.59,-0.71,-0.80,-3.66,-3.65,-3.65
247.93,-3.07,0.58,-3.07,0.58,-0.58,-0.68,-0.78,-3.65,-3.65,-3.65
250.41,-3.07,0.57,-3.08,0.57,-0.57,-0.66,-0.76,-3.65,-3.65,-3.65
252.92,-3.08,0.57,-3.08,0.57,-0.57,-0.63,-0.75,-3.65,-3.65,-3.65
255.45,-3.09,0.55,-3.09,0.56,-0.56,-0.60,-0.73,-3.65,-3.64,-3.64
258.00,-3.09,0.55,-3.09,0.55,-0.55,-0.57,-0.70,-3.64,-3.64,-3.64
260.58,-3.10,0.54,-3.10,0.54,-0.54,-0.55,-0.68,-3.64,-3.64,-3.64
263.19,-3.11,0.54,-3.11,0.53,-0.53,-0.52,-0.65,-3.64,-3.64,-3.65
265.82,-3.12,0.52,-3.12,0.53,-0.52,-0.49,-0.63,-3.64,-3.64,-3.64
268.48,-3.13,0.52,-3.13,0.52,-0.51,-0.47,-0.60,-3.65,-3.65,-3.65
271.16,-3.14,0.51,-3.15,0.50,-0.51,-0.44,-0.57,-3.65,-3.65,-3.65
273.87,-3.16,0.49,-3.16,0.49,-0.49,-0.42,-0.53,-3.66,-3.65,-3.65
276.61,-3.17,0.48,-3.17,0.48,-0.48,-0.39,-0.50,-3.65,-3.65,-3.65
279.38,-3.17,0.48,-3.18,0.47,-0.47,-0.37,-0.46,-3.64,-3.65,-3.65
282.17,-3.19,0.46,-3.19,0.46,-0.46,-0.34,-0.43,-3.65,-3.65,-3.65
284.99,-3.20,0.45,-3.20,0.45,-0.45,-0.32,-0.39,-3.65,-3.65,-3.65
287.84,-3.22,0.43,-3.21,0.43,-0.43,-0.29,-0.35,-3.65,-3.65,-3.65
290.72,-3.22,0.42,-3.23,0.42,-0.42,-0.27,-0.31,-3.64,-3.65,-3.64
293.63,-3.24,0.40,-3.24,0.40,-0.40,-0.24,-0.26,-3.64,-3.64,-3.65
296.57,-3.26,0.38,-3.26,0.39,-0.38,-0.22,-0.22,-3.64,-3.64,-3.64
299.53,-3.27,0.37,-3.28,0.36,-0.36,-0.20,-0.18,-3.63,-3.64,-3.64
302.53,-3.29,0.34,-3.29,0.34,-0.34,-0.18,-0.13,-3.63,-3.63,-3.63
305.55,-3.31,0.31,-3.31,0.32,-0.32,-0.15,-0.09,-3.63,-3.63,-3.63
308.61,-3.32,0.30,-3.32,0.29,-0.29,-0.13,-0.04,-3.61,-3.62,-3.62
311.69,-3.34,0.27,-3.34,0.27,-0.27,-0.11,0.01,-3.61,-3.61,-3.61
314.81,-3.36,0.24,-3.36,0.24,-0.24,-0.09,0.06,-3.60,-3.60,-3.60
317.96,-3.39,0.20,-3.38,0.21,-0.21,-0.07,0.10,-3.60,-3.59,-3.59
321.14,-3.40,0.19,-3.41,0.18,-0.18,-0.05,0.15,-3.58,-3.59,-3.59
324.35,-3.43,0.15,-3.43,0.15,-0.15,-0.04,0.20,-3.58,-3.58,-3.58
327.59,-3.45,0.12,-3.45,0.12,-0.12,-0.02,0.25,-3.57,-3.57,-3.57
330.87,-3.48,0.09,-3.48,0.09,-0.09,0.00,0.31,-3.57,-3.57,-3.57
334.18,-3.50,0.06,-3.50,0.07,-0.06,0.02,0.36,-3.56,-3.56,-3.56
337.52,-3.52,0.05,-3.53,0.04,-0.04,0.03,0.41,-3.56,-3.56,-3.57
340.90,-3.55,0.01,-3.55,0.01,-0.01,0.05,0.46,-3.56,-3.56,-3.56
344.30,-3.58,-0.02,-3.58,-0.02,0.01,0.07,0.52,-3.57,-3.56,-3.56
347.75,-3.60,-0.04,-3.60,-0.04,0.04,0.08,0.57,-3.56,-3.56,-3.56
351.23,-3.62,-0.06,-3.63,-0.06,0.06,0.10,0.62,-3.56,-3.56,-3.56
354.74,-3.65,-0.09,-3.65,-0.08,0.08,0.11,0.68,-3.57,-3.57,-3.56
358.28,-3.68,-0.11,-3.68,-0.10,0.11,0.13,0.74,-3.58,-3.57,-3.57
361.87,-3.70,-0.12,-3.70,-0.13,0.13,0.15,0.79,-3.57,-3.58,-3.58
365.49,-3.72,-0.14,-3.73,-0.15,0.15,0.16,0.85,-3.57,-3.58,-3.58
369.14,-3.75,-0.17,-3.75,-0.17,0.17,0.18,0.91,-3.58,-3.58,-3.58
372.83,-3.77,-0.19,-3.77,-0.19,0.19,0.20,0.96,-3.58,-3.58,-3.58
376.56,-3.79,-0.22,-3.79,-0.22,0.22,0.22,1.02,-3.57,-3.57,-3.57
380.33,-3.82,-0.25,-3.82,-0.25,0.25,0.24,1.08,-3.57,-3.57,-3.57
384.13,-3.84,-0.27,-3.84,-0.27,0.28,0.26,1.14,-3.57,-3.57,-3.57
387.97,-3.87,-0.31,-3.87,-0.30,0.31,0.28,1.20,-3.56,-3.57,-3.56
391.85,-3.90,-0.34,-3.90,-0.34,0.34,0.31,1.26,-3.56,-3.56,-3.56
395.77,-3.93,-0.37,-3.93,-0.37,0.37,0.33,1.31,-3.56,-3.56,-3.56
399.73,-3.95,-0.40,-3.95,-0.40,0.40,0.36,1.37,-3.55,-3.55,-3.55
403.72,-3.98,-0.43,-3.98,-0.44,0.44,0.39,1.43,-3.54,-3.54,-3.55
407.76,-4.01,-0.47,-4.01,-0.47,0.47,0.42,1.49,-3.54,-3.54,-3.54
411.84,-4.04,-0.51,-4.04,-0.51,0.50,0.45,1.55,-3.54,-3.53,-3.53
415.96,-4.06,-0.54,-4.06,-0.54,0.54,0.49,1.60,-3.52,-3.53,-3.52
420.12,-4.08,-0.56,-4.09,-0.57,0.57,0.52,1.66,-3.51,-3.52,-3.52
424.32,-4.11,-0.60,-4.11,-0.60,0.60,0.56,1.71,-3.52,-3.51,-3.51
428.56,-4.13,-0.63,-4.13,-0.63,0.62,0.60,1.77,-3.51,-3.51,-3.50
432.85,-4.15,-0.66,-4.15,-0.66,0.65,0.64,1.82,-3.50,-3.50,-3.49
437.18,-4.17,-0.69,-4.17,-0.68,0.68,0.69,1.87,-3.49,-3.48,-3.48
441.55,-4.18,-0.71,-4.19,-0.71,0.72,0.73,1.92,-3.46,-3.47,-3.47
445.96,-4.21,-0.75,-4.21,-0.75,0.75,0.78,1.96,-3.46,-3.46,-3.46
450.42,-4.24,-0.79,-4.24,-0.79,0.79,0.83,2.00,-3.45,-3.45,-3.46
454.93,-4.28,-0.83,-4.28,-0.83,0.83,0.88,2.04,-3.45,-3.44,-3.45
459.48,-4.31,-0.87,-4.32,-0.88,0.88,0.93,2.07,-3.43,-3.44,-3.44
