frequency,raw
20.00,-10.36
20.20,-10.29
20.40,-10.22
20.61,-10.15
20.81,-10.07
21.02,-10.00
21.23,-9.92
21.44,-9.84
21.66,-9.75
21.87,-9.67
22.09,-9.57
22.31,-9.48
22.54,-9.37
22.76,-9.26
22.99,-9.15
23.22,-9.04
23.45,-8.93
23.69,-8.82
23.92,-8.71
24.16,-8.62
24.40,-8.52
24.65,-8.42
24.89,-8.32
25.14,-8.23
25.39,-8.15
25.65,-8.07
25.91,-7.98
26.16,-7.90
26.43,-7.84
26.69,-7.76
26.96,-7.69
27.23,-7.63
27.50,-7.56
27.77,-7.50
28.05,-7.44
28.33,-7.37
28.62,-7.30
28.90,-7.25
29.19,-7.19
29.48,-7.13
29.78,-7.07
30.08,-7.01
30.38,-6.96
30.68,-6.90
30.99,-6.84
31.30,-6.80
31.61,-6.74
31.93,-6.70
32.24,-6.64
32.57,-6.59
32.89,-6.54
33.22,-6.47
33.55,-6.41
33.89,-6.36
34.23,-6.33
34.57,-6.27
34.92,-6.21
35.27,-6.15
35.62,-6.10
35.97,-6.05
36.33,-6.00
36.70,-5.95
37.06,-5.89
37.43,-5.86
37.81,-5.84
38.19,-5.82
38.57,-5.81
38.95,-5.79
39.34,-5.78
39.74,-5.77
40.14,-5.74
40.54,-5.71
40.94,-5.70
41.35,-5.69
41.76,-5.68
42.18,-5.67
42.60,-5.66
43.03,-5.63
43.46,-5.60
43.90,-5.56
44.33,-5.52
44.78,-5.47
45.23,-5.41
45.68,-5.35
46.13,-5.28
46.60,-5.23
47.06,-5.16
47.53,-5.08
48.01,-5.00
48.49,-4.91
48.97,-4.82
49.46,-4.72
49.96,-4.63
50.46,-4.54
50.96,-4.45
51.47,-4.36
51.99,-4.27
52.51,-4.18
53.03,-4.10
53.56,-4.02
54.10,-3.93
54.64,-3.85
55.18,-3.77
55.74,-3.70
56.29,-3.63
56.86,-3.56
57.42,-3.50
58.00,-3.44
58.58,-3.37
59.16,-3.31
59.76,-3.26
60.35,-3.20
60.96,-3.15
61.57,-3.09
62.18,-3.03
62.80,-2.97
63.43,-2.90
64.07,-2.84
64.71,-2.79
65.35,-2.74
66.01,-2.71
66.67,-2.67
67.33,-2.62
68.01,-2.58
68.69,-2.54
69.37,-2.51
70.07,-2.46
70.77,-2.42
71.48,-2.39
72.19,-2.35
72.91,-2.33
73.64,-2.32
74.38,-2.29
75.12,-2.27
75.87,-2.25
76.63,-2.24
77.40,-2.22
78.17,-2.20
78.95,-2.19
79.74,-2.20
80.54,-2.23
81.35,-2.26
82.16,-2.29
82.98,-2.33
83.81,-2.35
84.65,-2.39
85.50,-2.43
86.35,-2.47
87.22,-2.51
88.09,-2.56
88.97,-2.60
89.86,-2.64
90.76,-2.68
91.66,-2.71
92.58,-2.73
93.51,-2.76
94.44,-2.78
95.39,-2.78
96.34,-2.78
97.30,-2.80
98.28,-2.80
99.26,-2.81
100.25,-2.82
101.25,-2.83
102.27,-2.84
103.29,-2.84
104.32,-2.85
105.37,-2.85
106.42,-2.85
107.48,-2.86
108.56,-2.85
109.64,-2.85
110.74,-2.85
111.85,-2.85
112.97,-2.84
114.10,-2.83
115.24,-2.83
116.39,-2.82
117.55,-2.81
118.73,-2.81
119.92,-2.80
121.12,-2.80
122.33,-2.79
123.55,-2.79
124.79,-2.79
126.03,-2.79
127.29,-2.79
128.57,-2.79
129.85,-2.79
131.15,-2.79
132.46,-2.79
133.79,-2.79
135.12,-2.79
136.48,-2.79
137.84,-2.79
139.22,-2.79
140.61,-2.78
142.02,-2.78
143.44,-2.77
144.87,-2.77
146.32,-2.77
147.78,-2.78
149.26,-2.80
150.75,-2.82
152.26,-2.84
153.78,-2.87
155.32,-2.89
156.88,-2.92
158.44,-2.95
160.03,-2.97
161.63,-2.99
163.24,-3.02
164.88,-3.03
166.53,-3.04
168.19,-3.05
169.87,-3.04
171.57,-3.04
173.29,-3.02
175.02,-3.00
176.77,-2.98
178.54,-2.96
180.32,-2.94
182.13,-2.93
183.95,-2.91
185.79,-2.89
187.65,-2.87
189.52,-2.85
191.42,-2.83
193.33,-2.82
195.27,-2.80
197.22,-2.77
199.19,-2.75
201.18,-2.73
203.19,-2.71
205.23,-2.69
207.28,-2.66
209.35,-2.64
211.44,-2.61
213.56,-2.58
215.69,-2.57
217.85,-2.55
220.03,-2.52
222.23,-2.50
224.45,-2.46
226.70,-2.42
228.96,-2.38
231.25,-2.33
233.57,-2.29
235.90,-2.25
238.26,-2.20
240.64,-2.15
243.05,-2.11
245.48,-2.07
247.93,-2.03
250.41,-2.00
252.92,-1.97
255.45,-1.94
258.00,-1.92
260.58,-1.90
263.19,-1.89
265.82,-1.90
268.48,-1.90
271.16,-1.90
273.87,-1.88
276.61,-1.86
279.38,-1.84
282.17,-1.80
284.99,-1.77
287.84,-1.73
290.72,-1.70
293.63,-1.67
296.57,-1.62
299.53,-1.58
302.53,-1.53
305.55,-1.47
308.61,-1.41
311.69,-1.36
314.81,-1.32
317.96,-1.26
321.14,-1.19
324.35,-1.14
327.59,-1.08
330.87,-1.03
334.18,-0.96
337.52,-0.88
340.90,-0.82
344.30,-0.75
347.75,-0.68
351.23,-0.60
354.74,-0.55
358.28,-0.50
361.87,-0.46
365.49,-0.44
369.14,-0.42
372.83,-0.43
376.56,-0.43
380.33,-0.45
384.13,-0.49
387.97,-0.56
391.85,-0.61
395.77,-0.68
399.73,-0.77
403.72,-0.86
407.76,-0.94
411.84,-1.04
415.96,-1.14
420.12,-1.26
424.32,-1.37
428.56,-1.49
432.85,-1.62
437.18,-1.74
441.55,-1.86
445.96,-2.00
450.42,-2.12
454.93,-2.25
459.48,-2.39
464.07,-2.51
468.71,-2.62
473.40,-2.74
478.13,-2.87
482.91,-2.98
487.74,-3.10
492.62,-3.21
497.55,-3.32
502.52,-3.42
507.55,-3.51
512.62,-3.60
517.75,-3.68
522.93,-3.78
528.16,-3.86
533.44,-3.92
538.77,-3.96
544.16,-4.00
549.60,-4.00
555.10,-3.99
560.65,-3.95
566.25,-3.90
571.92,-3.80
577.64,-3.68
583.41,-3.56
589.25,-3.41
595.14,-3.23
601.09,-3.06
607.10,-2.90
613.17,-2.72
619.30,-2.54
625.50,-2.34
631.75,-2.15
638.07,-1.96
644.45,-1.79
650.89,-1.63
657.40,-1.45
663.98,-1.29
670.62,-1.13
677.32,-0.97
684.10,-0.82
690.94,-0.66
697.85,-0.49
704.83,-0.30
711.87,-0.11
718.99,0.06
726.18,0.25
733.44,0.43
740.78,0.60
748.19,0.75
755.67,0.88
763.23,1.02
770.86,1.16
778.57,1.27
786.35,1.36
794.22,1.41
802.16,1.47
810.18,1.50
818.28,1.52
826.46,1.53
834.73,1.52
843.08,1.50
851.51,1.47
860.02,1.44
868.62,1.40
877.31,1.34
886.08,1.27
894.94,1.17
903.89,1.07
912.93,0.94
922.06,0.79
931.28,0.62
940.59,0.45
950.00,0.28
959.50,0.10
969.09,-0.10
978.78,-0.28
988.57,-0.44
998.46,-0.59
1008.44,-0.74
1018.53,-0.86
1028.71,-0.98
1039.00,-1.12
1049.39,-1.27
1059.88,-1.42
1070.48,-1.61
1081.19,-1.80
1092.00,-2.01
1102.92,-2.22
1113.95,-2.45
1125.09,-2.67
1136.34,-2.88
1147.70,-3.09
1159.18,-3.26
1170.77,-3.41
1182.48,-3.53
1194.30,-3.63
1206.25,-3.69
1218.31,-3.71
1230.49,-3.70
1242.80,-3.67
1255.22,-3.62
1267.78,-3.57
1280.45,-3.52
1293.26,-3.50
1306.19,-3.48
1319.25,-3.49
1332.45,-3.52
1345.77,-3.57
1359.23,-3.63
1372.82,-3.70
1386.55,-3.80
1400.41,-3.90
1414.42,-4.01
1428.56,-4.12
1442.85,-4.26
1457.28,-4.40
1471.85,-4.54
1486.57,-4.69
1501.43,-4.82
1516.45,-4.96
1531.61,-5.10
1546.93,-5.24
1562.40,-5.36
1578.02,-5.47
1593.80,-5.57
1609.74,-5.65
1625.84,-5.70
1642.10,-5.74
1658.52,-5.75
1675.10,-5.73
1691.85,-5.68
1708.77,-5.60
1725.86,-5.48
1743.12,-5.36
1760.55,-5.20
1778.15,-5.01
1795.94,-4.80
1813.90,-4.58
1832.03,-4.33
1850.36,-4.08
1868.86,-3.84
1887.55,-3.62
1906.42,-3.39
1925.49,-3.19
1944.74,-3.00
1964.19,-2.83
1983.83,-2.67
2003.67,-2.53
2023.71,-2.41
2043.94,-2.30
2064.38,-2.19
2085.03,-2.09
2105.88,-2.02
2126.94,-1.95
2148.20,-1.87
2169.69,-1.81
2191.38,-1.73
2213.30,-1.63
2235.43,-1.54
2257.78,-1.44
2280.36,-1.34
2303.17,-1.23
2326.20,-1.12
2349.46,-1.02
2372.95,-0.93
2396.68,-0.81
2420.65,-0.72
2444.86,-0.62
2469.31,-0.51
2494.00,-0.41
2518.94,-0.30
2544.13,-0.18
2569.57,-0.07
2595.27,0.01
2621.22,0.10
2647.43,0.21
2673.90,0.31
2700.64,0.42
2727.65,0.55
2754.93,0.68
2782.48,0.82
2810.30,0.97
2838.40,1.10
2866.79,1.22
2895.46,1.33
2924.41,1.42
2953.65,1.50
2983.19,1.57
3013.02,1.63
3043.15,1.67
3073.58,1.69
3104.32,1.69
3135.36,1.67
3166.72,1.62
3198.38,1.53
3230.37,1.43
3262.67,1.33
3295.30,1.19
3328.25,1.03
3361.53,0.86
3395.15,0.67
3429.10,0.47
3463.39,0.25
3498.03,0.02
3533.01,-0.23
3568.34,-0.48
3604.02,-0.74
3640.06,-1.00
3676.46,-1.25
3713.22,-1.49
3750.36,-1.73
3787.86,-1.95
3825.74,-2.15
3864.00,-2.36
3902.64,-2.56
3941.66,-2.73
3981.08,-2.90
4020.89,-3.04
4061.10,-3.18
4101.71,-3.30
4142.73,-3.39
4184.15,-3.47
4226.00,-3.51
4268.26,-3.51
4310.94,-3.47
4354.05,-3.40
4397.59,-3.29
4441.56,-3.15
4485.98,-2.98
4530.84,-2.76
4576.15,-2.51
4621.91,-2.27
4668.13,-2.00
4714.81,-1.74
4761.96,-1.48
4809.58,-1.23
4857.67,-0.98
4906.25,-0.77
4955.31,-0.58
5004.87,-0.43
5054.91,-0.29
5105.46,-0.20
5156.52,-0.13
5208.08,-0.08
5260.16,-0.05
5312.77,-0.05
5365.89,-0.08
5419.55,-0.15
5473.75,-0.24
5528.49,-0.38
5583.77,-0.56
5639.61,-0.80
5696.00,-1.09
5752.96,-1.45
5810.49,-1.88
5868.60,-2.36
5927.28,-2.90
5986.56,-3.51
6046.42,-4.17
6106.89,-4.87
6167.96,-5.61
6229.64,-6.34
6291.93,-7.06
6354.85,-7.74
6418.40,-8.36
6482.58,-8.88
6547.41,-9.31
6612.88,-9.63
6679.01,-9.83
6745.80,-9.93
6813.26,-9.89
6881.39,-9.73
6950.21,-9.47
7019.71,-9.10
7089.91,-8.65
7160.81,-8.12
7232.41,-7.56
7304.74,-6.97
7377.79,-6.36
7451.56,-5.75
7526.08,-5.17
7601.34,-4.61
7677.35,-4.10
7754.13,-3.64
7831.67,-3.23
7909.98,-2.88
7989.08,-2.58
8068.98,-2.37
8149.67,-2.25
8231.16,-2.21
8313.47,-2.27
8396.61,-2.42
8480.57,-2.66
8565.38,-2.98
8651.03,-3.37
8737.54,-3.81
8824.92,-4.31
8913.17,-4.85
9002.30,-5.40
9092.32,-5.96
9183.25,-6.50
9275.08,-7.01
9367.83,-7.47
9461.51,-7.88
9556.12,-8.22
9651.68,-8.49
9748.20,-8.67
9845.68,-8.77
9944.14,-8.81
10043.58,-8.81
10144.02,-8.78
10245.46,-8.71
10347.91,-8.65
10451.39,-8.60
10555.91,-8.55
10661.46,-8.53
10768.08,-8.54
10875.76,-8.58
10984.52,-8.65
11094.36,-8.71
11205.31,-8.77
11317.36,-8.79
11430.53,-8.77
11544.84,-8.69
11660.29,-8.54
11776.89,-8.35
11894.66,-8.10
12013.60,-7.80
12133.74,-7.48
12255.08,-7.16
12377.63,-6.87
12501.41,-6.61
12626.42,-6.40
12752.68,-6.24
12880.21,-6.14
13009.01,-6.09
13139.10,-6.10
13270.49,-6.17
13403.20,-6.31
13537.23,-6.47
13672.60,-6.69
13809.33,-6.91
13947.42,-7.15
14086.90,-7.40
14227.77,-7.64
14370.04,-7.86
14513.74,-8.07
14658.88,-8.24
14805.47,-8.37
14953.52,-8.47
15103.06,-8.51
15254.09,-8.50
15406.63,-8.45
15560.70,-8.36
15716.30,-8.24
15873.47,-8.09
16032.20,-7.93
16192.52,-7.76
16354.45,-7.63
16517.99,-7.56
16683.17,-7.57
16850.01,-7.64
17018.51,-7.80
17188.69,-8.03
17360.58,-8.34
17534.18,-8.72
17709.53,-9.17
17886.62,-9.65
18065.49,-10.02
18246.14,-10.41
18428.60,-10.82
18612.89,-11.25
18799.02,-11.71
18987.01,-12.18
19176.88,-12.67
19368.65,-13.19
19562.33,-13.72
19757.96,-14.27
19955.54,-14.84
