frequency,raw,error,smoothed,error_smoothed,equalization,parametric_eq,fixed_band_eq,equalized_raw,equalized_smoothed,target
20.00,13.04,8.22,13.05,8.23,-8.19,-8.17,-4.02,4.85,4.86,4.82
20.20,13.04,8.23,13.04,8.23,-8.22,-8.18,-4.13,4.83,4.82,4.81
20.40,13.04,8.24,13.03,8.24,-8.24,-8.19,-4.24,4.80,4.79,4.80
20.61,13.04,8.24,13.04,8.25,-8.27,-8.19,-4.35,4.77,4.77,4.80
20.81,13.04,8.26,13.04,8.26,-8.30,-8.20,-4.47,4.74,4.74,4.78
21.02,13.04,8.27,13.06,8.28,-8.32,-8.21,-4.59,4.72,4.73,4.78
21.23,13.09,8.32,13.09,8.32,-8.35,-8.22,-4.71,4.74,4.74,4.77
21.44,13.14,8.37,13.14,8.37,-8.38,-8.23,-4.84,4.77,4.76,4.77
21.66,13.19,8.43,13.19,8.43,-8.41,-8.23,-4.97,4.78,4.78,4.76
21.87,13.24,8.48,13.24,8.47,-8.45,-8.24,-5.11,4.79,4.79,4.76
22.09,13.27,8.51,13.26,8.50,-8.48,-8.25,-5.24,4.79,4.79,4.76
22.31,13.27,8.51,13.27,8.52,-8.50,-8.26,-5.39,4.77,4.77,4.76
22.54,13.27,8.52,13.27,8.52,-8.52,-8.27,-5.53,4.75,4.76,4.75
22.76,13.27,8.51,13.27,8.51,-8.52,-8.28,-5.68,4.75,4.75,4.76
22.99,13.27,8.51,13.27,8.51,-8.52,-8.29,-5.83,4.75,4.75,4.76
23.22,13.27,8.51,13.27,8.51,-8.52,-8.30,-5.99,4.76,4.76,4.76
23.45,13.27,8.51,13.27,8.51,-8.51,-8.31,-6.15,4.76,4.76,4.76
23.69,13.27,8.50,13.27,8.51,-8.50,-8.31,-6.32,4.77,4.77,4.77
23.92,13.27,8.50,13.27,8.50,-8.50,-8.32,-6.48,4.78,4.78,4.77
24.16,13.27,8.48,13.27,8.49,-8.49,-8.33,-6.66,4.78,4.78,4.79
24.40,13.27,8.48,13.27,8.48,-8.49,-8.34,-6.83,4.78,4.78,4.80
24.65,13.27,8.48,13.27,8.48,-8.48,-8.35,-7.01,4.79,4.79,4.79
24.89,13.27,8.48,13.27,8.48,-8.48,-8.36,-7.19,4.79,4.79,4.79
25.14,13.27,8.49,13.27,8.48,-8.48,-8.38,-7.37,4.79,4.79,4.78
25.39,13.27,8.49,13.27,8.49,-8.48,-8.39,-7.56,4.79,4.79,4.78
25.65,13.27,8.48,13.27,8.48,-8.48,-8.40,-7.75,4.79,4.79,4.79
25.91,13.27,8.48,13.27,8.48,-8.48,-8.41,-7.94,4.79,4.79,4.79
26.16,13.27,8.48,13.27,8.48,-8.48,-8.42,-8.13,4.79,4.79,4.79
26.43,13.27,8.48,13.27,8.48,-8.49,-8.43,-8.32,4.78,4.78,4.79
26.69,13.27,8.48,13.27,8.49,-8.49,-8.44,-8.51,4.78,4.78,4.79
26.96,13.27,8.49,13.27,8.49,-8.49,-8.45,-8.70,4.78,4.78,4.78
27.23,13.27,8.50,13.27,8.49,-8.49,-8.46,-8.88,4.78,4.78,4.77
27.50,13.27,8.50,13.27,8.50,-8.49,-8.48,-9.07,4.78,4.78,4.77
27.77,13.27,8.50,13.27,8.50,-8.49,-8.49,-9.25,4.78,4.78,4.77
28.05,13.27,8.50,13.27,8.50,-8.49,-8.50,-9.43,4.78,4.78,4.77
28.33,13.27,8.50,13.27,8.50,-8.51,-8.51,-9.59,4.76,4.76,4.77
28.62,13.27,8.51,13.27,8.51,-8.53,-8.53,-9.76,4.74,4.73,4.76
28.90,13.27,8.52,13.28,8.53,-8.57,-8.54,-9.91,4.71,4.72,4.75
29.19,13.31,8.57,13.32,8.58,-8.60,-8.55,-10.06,4.71,4.72,4.74
29.48,13.38,8.64,13.38,8.64,-8.64,-8.56,-10.19,4.74,4.74,4.74
29.78,13.45,8.72,13.44,8.71,-8.68,-8.58,-10.31,4.77,4.76,4.73
30.08,13.50,8.76,13.49,8.76,-8.72,-8.59,-10.41,4.78,4.76,4.74
30.38,13.50,8.79,13.50,8.79,-8.76,-8.61,-10.51,4.74,4.74,4.72
30.68,13.50,8.80,13.51,8.80,-8.79,-8.62,-10.58,4.71,4.72,4.70
30.99,13.50,8.81,13.50,8.81,-8.81,-8.63,-10.65,4.69,4.69,4.69
31.30,13.50,8.81,13.50,8.81,-8.83,-8.65,-10.69,4.68,4.68,4.69
31.61,13.50,8.81,13.50,8.82,-8.83,-8.66,-10.73,4.67,4.67,4.69
31.93,13.50,8.84,13.50,8.83,-8.84,-8.68,-10.74,4.66,4.66,4.66
32.24,13.50,8.84,13.50,8.84,-8.85,-8.69,-10.74,4.65,4.65,4.66
32.57,13.50,8.85,13.50,8.85,-8.86,-8.71,-10.72,4.64,4.64,4.65
32.89,13.50,8.85,13.50,8.85,-8.86,-8.72,-10.70,4.65,4.65,4.65
33.22,13.50,8.86,13.51,8.86,-8.85,-8.74,-10.66,4.66,4.66,4.64
33.55,13.50,8.85,13.51,8.85,-8.83,-8.75,-10.61,4.68,4.68,4.65
33.89,13.50,8.84,13.49,8.84,-8.80,-8.77,-10.54,4.70,4.69,4.66
34.23,13.45,8.81,13.44,8.79,-8.77,-8.78,-10.47,4.68,4.67,4.65
34.57,13.37,8.73,13.37,8.73,-8.73,-8.80,-10.39,4.64,4.64,4.64
34.92,13.29,8.65,13.31,8.67,-8.70,-8.81,-10.31,4.59,4.61,4.64
35.27,13.27,8.63,13.27,8.64,-8.68,-8.83,-10.22,4.59,4.60,4.65
35.62,13.27,8.65,13.26,8.63,-8.66,-8.85,-10.12,4.61,4.61,4.62
35.97,13.27,8.64,13.27,8.64,-8.65,-8.86,-10.03,4.62,4.62,4.63
36.33,13.27,8.66,13.27,8.66,-8.65,-8.88,-9.93,4.62,4.62,4.61
36.70,13.27,8.67,13.27,8.67,-8.66,-8.90,-9.83,4.61,4.61,4.60
37.06,13.27,8.68,13.27,8.69,-8.68,-8.91,-9.73,4.59,4.59,4.59
37.43,13.27,8.71,13.27,8.70,-8.70,-8.93,-9.64,4.57,4.57,4.56
37.81,13.27,8.72,13.27,8.72,-8.73,-8.95,-9.54,4.54,4.54,4.55
38.19,13.27,8.75,13.27,8.75,-8.75,-8.96,-9.45,4.52,4.52,4.52
38.57,13.27,8.78,13.27,8.78,-8.78,-8.98,-9.36,4.49,4.49,4.49
38.95,13.27,8.81,13.27,8.81,-8.81,-9.00,-9.28,4.46,4.46,4.46
39.34,13.27,8.84,13.27,8.84,-8.84,-9.02,-9.20,4.43,4.43,4.43
39.74,13.27,8.87,13.27,8.87,-8.87,-9.03,-9.12,4.40,4.40,4.40
40.14,13.27,8.90,13.27,8.90,-8.89,-9.05,-9.05,4.38,4.38,4.37
40.54,13.27,8.93,13.27,8.93,-8.92,-9.07,-8.98,4.35,4.35,4.34
40.94,13.27,8.95,13.27,8.95,-8.95,-9.09,-8.92,4.32,4.32,4.32
41.35,13.27,8.97,13.27,8.97,-8.97,-9.11,-8.87,4.30,4.30,4.30
41.76,13.27,9.00,13.27,8.99,-9.00,-9.13,-8.82,4.27,4.27,4.28
42.18,13.27,9.01,13.27,9.01,-9.02,-9.14,-8.77,4.25,4.25,4.26
42.60,13.27,9.04,13.27,9.04,-9.05,-9.16,-8.74,4.23,4.23,4.23
43.03,13.27,9.07,13.27,9.07,-9.07,-9.18,-8.71,4.20,4.20,4.20
43.46,13.27,9.09,13.27,9.09,-9.10,-9.20,-8.68,4.17,4.17,4.18
43.90,13.27,9.12,13.27,9.12,-9.12,-9.22,-8.66,4.15,4.15,4.15
44.33,13.27,9.14,13.27,9.14,-9.14,-9.24,-8.65,4.13,4.13,4.13
44.78,13.27,9.17,13.27,9.16,-9.15,-9.25,-8.64,4.12,4.12,4.10
45.23,13.26,9.17,13.26,9.18,-9.15,-9.27,-8.64,4.11,4.11,4.09
45.68,13.23,9.18,13.23,9.18,-9.15,-9.29,-8.65,4.08,4.08,4.05
46.13,13.19,9.17,13.17,9.15,-9.14,-9.31,-8.66,4.05,4.03,4.02
46.60,13.11,9.12,13.11,9.12,-9.14,-9.33,-8.68,3.97,3.97,3.99
47.06,13.04,9.08,13.06,9.11,-9.14,-9.35,-8.71,3.90,3.92,3.96
47.53,13.04,9.11,13.04,9.11,-9.15,-9.37,-8.74,3.89,3.88,3.93
48.01,13.04,9.16,13.03,9.15,-9.17,-9.39,-8.77,3.87,3.87,3.88
48.49,13.04,9.19,13.04,9.20,-9.19,-9.40,-8.81,3.85,3.85,3.85
48.97,13.04,9.24,13.04,9.24,-9.22,-9.42,-8.86,3.82,3.82,3.80
49.46,13.04,9.27,13.04,9.28,-9.27,-9.44,-8.91,3.77,3.77,3.77
49.96,13.04,9.33,13.04,9.32,-9.31,-9.46,-8.97,3.73,3.73,3.71
50.46,13.04,9.35,13.04,9.35,-9.36,-9.48,-9.03,3.68,3.68,3.69
50.96,13.04,9.38,13.04,9.38,-9.39,-9.50,-9.09,3.65,3.65,3.66
51.47,13.04,9.41,13.04,9.42,-9.42,-9.51,-9.16,3.62,3.62,3.63
51.99,13.04,9.45,13.05,9.46,-9.43,-9.53,-9.23,3.61,3.62,3.59
52.51,13.04,9.49,13.04,9.49,-9.44,-9.55,-9.30,3.60,3.60,3.55
53.03,13.03,9.51,12.99,9.48,-9.45,-9.57,-9.38,3.58,3.54,3.52
53.56,12.92,9.45,12.92,9.45,-9.46,-9.58,-9.45,3.46,3.47,3.47
54.10,12.82,9.40,12.86,9.43,-9.47,-9.60,-9.53,3.35,3.39,3.42
54.64,12.82,9.44,12.82,9.44,-9.48,-9.62,-9.61,3.34,3.33,3.38
55.18,12.82,9.49,12.81,9.48,-9.50,-9.63,-9.69,3.32,3.31,3.33
55.74,12.82,9.53,12.82,9.52,-9.53,-9.65,-9.76,3.29,3.29,3.30
56.29,12.82,9.55,12.82,9.56,-9.56,-9.67,-9.83,3.26,3.26,3.27
56.86,12.82,9.58,12.82,9.59,-9.58,-9.68,-9.90,3.24,3.24,3.24
57.42,12.82,9.63,12.82,9.63,-9.60,-9.70,-9.97,3.22,3.22,3.19
58.00,12.82,9.66,12.83,9.66,-9.61,-9.71,-10.03,3.21,3.22,3.16
58.58,12.82,9.68,12.81,9.67,-9.62,-9.73,-10.09,3.20,3.19,3.14
59.16,12.78,9.66,12.75,9.63,-9.62,-9.74,-10.14,3.16,3.13,3.12
59.76,12.65,9.56,12.68,9.59,-9.62,-9.76,-10.18,3.03,3.06,3.09
60.35,12.59,9.55,12.61,9.57,-9.63,-9.77,-10.21,2.96,2.98,3.04
60.96,12.59,9.60,12.58,9.59,-9.65,-9.78,-10.24,2.94,2.93,3.00
61.57,12.59,9.65,12.58,9.64,-9.67,-9.80,-10.26,2.92,2.92,2.94
62.18,12.59,9.70,12.59,9.70,-9.69,-9.81,-10.27,2.90,2.90,2.89
62.80,12.59,9.75,12.59,9.75,-9.72,-9.82,-10.27,2.87,2.87,2.84
63.43,12.59,9.79,12.60,9.79,-9.75,-9.83,-10.26,2.84,2.85,2.80
64.07,12.59,9.83,12.59,9.83,-9.77,-9.85,-10.24,2.82,2.82,2.76
64.71,12.55,9.83,12.53,9.82,-9.79,-9.86,-10.21,2.76,2.75,2.72
65.35,12.48,9.81,12.47,9.79,-9.81,-9.87,-10.18,2.67,2.66,2.67
66.01,12.36,9.73,12.40,9.77,-9.82,-9.88,-10.13,2.54,2.58,2.63
66.67,12.36,9.77,12.36,9.78,-9.84,-9.89,-10.09,2.52,2.52,2.59
67.33,12.36,9.83,12.35,9.81,-9.85,-9.89,-10.03,2.51,2.50,2.53
68.01,12.36,9.87,12.36,9.87,-9.86,-9.90,-9.97,2.50,2.51,2.49
68.69,12.36,9.91,12.37,9.93,-9.87,-9.91,-9.90,2.50,2.51,2.45
69.37,12.36,9.95,12.35,9.94,-9.88,-9.92,-9.83,2.48,2.47,2.41
70.07,12.34,9.98,12.29,9.93,-9.90,-9.92,-9.76,2.44,2.39,2.37
70.77,12.18,9.86,12.22,9.90,-9.92,-9.93,-9.68,2.26,2.30,2.32
71.48,12.13,9.86,12.15,9.88,-9.94,-9.94,-9.61,2.19,2.21,2.27
72.19,12.13,9.91,12.12,9.90,-9.96,-9.94,-9.53,2.17,2.16,2.22
72.91,12.13,9.95,12.13,9.95,-9.97,-9.94,-9.45,2.16,2.15,2.18
73.64,12.13,10.00,12.13,10.01,-9.98,-9.95,-9.37,2.15,2.15,2.13
74.38,12.13,10.05,12.14,10.05,-9.99,-9.95,-9.30,2.14,2.14,2.08
75.12,12.12,10.08,12.11,10.06,-10.01,-9.95,-9.22,2.11,2.10,2.04
75.87,12.08,10.07,12.05,10.04,-10.02,-9.96,-9.15,2.06,2.03,2.01
76.63,11.96,9.98,11.98,10.00,-10.03,-9.96,-9.08,1.93,1.95,1.98
77.40,11.90,9.95,11.92,9.97,-10.02,-9.96,-9.02,1.88,1.90,1.95
78.17,11.90,9.99,11.90,9.98,-10.00,-9.96,-8.96,1.90,1.90,1.91
78.95,11.90,10.00,11.90,10.01,-9.98,-9.96,-8.90,1.92,1.92,1.90
79.74,11.90,10.04,11.87,10.01,-9.97,-9.96,-8.85,1.93,1.91,1.87
80.54,11.82,9.98,11.81,9.97,-9.96,-9.95,-8.80,1.86,1.85,1.84
81.35,11.73,9.93,11.75,9.94,-9.96,-9.95,-8.76,1.77,1.78,1.81
82.16,11.68,9.89,11.69,9.91,-9.96,-9.95,-8.73,1.72,1.73,1.79
82.98,11.68,9.94,11.68,9.93,-9.95,-9.95,-8.69,1.73,1.73,1.74
83.81,11.68,9.97,11.68,9.98,-9.94,-9.94,-8.67,1.74,1.74,1.71
84.65,11.68,10.01,11.66,9.99,-9.94,-9.94,-8.65,1.74,1.72,1.67
85.50,11.62,9.99,11.60,9.97,-9.94,-9.93,-8.64,1.68,1.66,1.63
86.35,11.51,9.91,11.53,9.93,-9.95,-9.93,-8.63,1.56,1.58,1.60
87.22,11.45,9.89,11.47,9.91,-9.96,-9.92,-8.63,1.49,1.51,1.56
88.09,11.45,9.93,11.45,9.92,-9.96,-9.91,-8.63,1.49,1.48,1.52
88.97,11.45,9.97,11.46,9.98,-9.96,-9.91,-8.65,1.49,1.49,1.48
89.86,11.45,10.01,11.44,10.01,-9.96,-9.90,-8.66,1.49,1.48,1.44
90.76,11.43,10.03,11.39,9.99,-9.96,-9.89,-8.69,1.47,1.43,1.40
91.66,11.29,9.94,11.31,9.96,-9.96,-9.88,-8.72,1.33,1.36,1.35
92.58,11.22,9.91,11.26,9.94,-9.95,-9.87,-8.76,1.27,1.31,1.31
93.51,11.22,9.94,11.22,9.94,-9.94,-9.87,-8.80,1.28,1.27,1.28
94.44,11.22,9.99,11.17,9.94,-9.94,-9.86,-8.85,1.28,1.24,1.23
95.39,11.12,9.93,11.11,9.92,-9.93,-9.85,-8.90,1.19,1.18,1.19
96.34,10.99,9.85,11.04,9.89,-9.93,-9.84,-8.96,1.06,1.11,1.14
97.30,10.99,9.89,10.99,9.89,-9.94,-9.83,-9.02,1.06,1.05,1.10
98.28,10.99,9.94,10.98,9.94,-9.94,-9.82,-9.10,1.05,1.04,1.05
99.26,10.99,9.99,11.00,9.99,-9.95,-9.81,-9.17,1.05,1.05,1.00
100.25,10.98,10.02,10.95,9.99,-9.95,-9.79,-9.25,1.03,1.01,0.96
101.25,10.91,9.97,10.88,9.96,-9.94,-9.78,-9.33,0.97,0.94,0.94
102.27,10.76,9.87,10.82,9.93,-9.94,-9.77,-9.42,0.82,0.88,0.89
103.29,10.76,9.92,10.77,9.92,-9.93,-9.76,-9.51,0.83,0.84,0.84
104.32,10.76,9.94,10.72,9.91,-9.92,-9.75,-9.61,0.85,0.81,0.82
105.37,10.70,9.92,10.68,9.90,-9.90,-9.74,-9.70,0.80,0.78,0.78
106.42,10.57,9.82,10.61,9.86,-9.88,-9.73,-9.80,0.69,0.73,0.75
107.48,10.54,9.83,10.55,9.83,-9.86,-9.72,-9.90,0.68,0.69,0.71
108.56,10.54,9.85,10.55,9.86,-9.85,-9.70,-10.00,0.69,0.70,0.69
109.64,10.54,9.87,10.53,9.87,-9.83,-9.69,-10.10,0.71,0.70,0.67
110.74,10.53,9.90,10.47,9.83,-9.81,-9.68,-10.19,0.72,0.66,0.63
111.85,10.34,9.74,10.40,9.79,-9.79,-9.67,-10.29,0.55,0.61,0.60
112.97,10.31,9.73,10.34,9.76,-9.77,-9.66,-10.38,0.54,0.57,0.58
114.10,10.31,9.77,10.28,9.74,-9.76,-9.65,-10.46,0.55,0.52,0.54
115.24,10.28,9.78,10.24,9.74,-9.75,-9.63,-10.54,0.53,0.49,0.50
116.39,10.15,9.71,10.17,9.72,-9.73,-9.62,-10.61,0.42,0.44,0.44
117.55,10.08,9.67,10.11,9.70,-9.72,-9.61,-10.68,0.36,0.39,0.41
118.73,10.08,9.71,10.08,9.71,-9.71,-9.60,-10.73,0.37,0.37,0.37
119.92,10.08,9.75,10.07,9.74,-9.71,-9.59,-10.78,0.37,0.37,0.33
121.12,10.07,9.76,10.02,9.72,-9.70,-9.58,-10.81,0.37,0.32,0.31
122.33,9.93,9.67,9.95,9.69,-9.69,-9.57,-10.83,0.24,0.26,0.26
123.55,9.85,9.62,9.89,9.66,-9.69,-9.56,-10.85,0.16,0.20,0.23
124.79,9.85,9.67,9.85,9.67,-9.68,-9.55,-10.84,0.17,0.17,0.19
126.03,9.85,9.72,9.82,9.68,-9.68,-9.54,-10.84,0.17,0.14,0.13
127.29,9.78,9.70,9.77,9.68,-9.68,-9.52,-10.80,0.10,0.09,0.08
128.57,9.68,9.64,9.70,9.66,-9.67,-9.51,-10.77,0.01,0.03,0.05
129.85,9.63,9.62,9.66,9.66,-9.66,-9.50,-10.72,-0.03,-0.00,0.01
131.15,9.63,9.67,9.63,9.67,-9.64,-9.49,-10.66,-0.01,-0.02,-0.04
132.46,9.63,9.72,9.58,9.67,-9.62,-9.48,-10.59,0.01,-0.04,-0.09
133.79,9.49,9.62,9.52,9.64,-9.59,-9.47,-10.51,-0.10,-0.07,-0.13
135.12,9.39,9.55,9.41,9.57,-9.56,-9.46,-10.42,-0.17,-0.15,-0.16
136.48,9.34,9.53,9.30,9.49,-9.54,-9.45,-10.33,-0.20,-0.24,-0.19
137.84,9.19,9.41,9.23,9.45,-9.52,-9.44,-10.23,-0.33,-0.29,-0.22
139.22,9.17,9.43,9.18,9.44,-9.49,-9.43,-10.12,-0.32,-0.31,-0.26
140.61,9.17,9.47,9.17,9.47,-9.47,-9.42,-10.01,-0.29,-0.29,-0.30
142.02,9.17,9.50,9.16,9.49,-9.44,-9.41,-9.89,-0.27,-0.28,-0.33
143.44,9.16,9.52,9.11,9.47,-9.41,-9.39,-9.78,-0.25,-0.30,-0.36
144.87,8.98,9.37,9.04,9.43,-9.39,-9.38,-9.66,-0.41,-0.35,-0.39
146.32,8.95,9.37,8.95,9.37,-9.37,-9.37,-9.54,-0.42,-0.42,-0.42
147.78,8.89,9.34,8.85,9.30,-9.34,-9.36,-9.42,-0.45,-0.49,-0.45
149.26,8.77,9.25,8.79,9.27,-9.31,-9.35,-9.31,-0.54,-0.52,-0.48
150.75,8.71,9.22,8.74,9.25,-9.27,-9.33,-9.19,-0.56,-0.54,-0.51
152.26,8.71,9.25,8.71,9.26,-9.25,-9.32,-9.08,-0.54,-0.53,-0.54
153.78,8.71,9.29,8.68,9.26,-9.23,-9.31,-8.97,-0.52,-0.55,-0.58
155.32,8.66,9.26,8.63,9.23,-9.22,-9.29,-8.86,-0.56,-0.59,-0.60
156.88,8.51,9.15,8.56,9.19,-9.21,-9.28,-8.76,-0.70,-0.65,-0.63
158.44,8.49,9.16,8.51,9.18,-9.20,-9.26,-8.66,-0.70,-0.68,-0.67
160.03,8.49,9.19,8.48,9.18,-9.18,-9.25,-8.57,-0.68,-0.70,-0.70
161.63,8.49,9.22,8.44,9.18,-9.15,-9.23,-8.48,-0.66,-0.71,-0.73
163.24,8.35,9.12,8.38,9.15,-9.11,-9.21,-8.39,-0.76,-0.74,-0.77
164.88,8.26,9.06,8.28,9.09,-9.07,-9.19,-8.32,-0.81,-0.79,-0.80
166.53,8.22,9.06,8.18,9.02,-9.03,-9.17,-8.24,-0.81,-0.85,-0.84
168.19,8.10,8.96,8.12,8.99,-9.00,-9.15,-8.18,-0.89,-0.87,-0.86
169.87,8.03,8.93,8.06,8.96,-8.96,-9.13,-8.11,-0.92,-0.90,-0.90
171.57,8.03,8.96,7.97,8.90,-8.92,-9.11,-8.06,-0.89,-0.95,-0.93
173.29,7.89,8.86,7.90,8.87,-8.89,-9.09,-8.01,-1.00,-0.99,-0.97
175.02,7.80,8.81,7.85,8.85,-8.87,-9.06,-7.96,-1.07,-1.03,-1.01
176.77,7.80,8.85,7.80,8.85,-8.85,-9.04,-7.92,-1.05,-1.06,-1.05
178.54,7.80,8.88,7.77,8.85,-8.84,-9.01,-7.89,-1.04,-1.07,-1.08
180.32,7.72,8.86,7.71,8.84,-8.82,-8.99,-7.86,-1.10,-1.11,-1.14
182.13,7.62,8.79,7.66,8.83,-8.80,-8.96,-7.84,-1.18,-1.15,-1.17
183.95,7.57,8.78,7.58,8.79,-8.79,-8.93,-7.82,-1.22,-1.21,-1.21
185.79,7.57,8.82,7.51,8.76,-8.78,-8.90,-7.81,-1.21,-1.27,-1.25
187.65,7.41,8.70,7.44,8.73,-8.76,-8.87,-7.81,-1.35,-1.32,-1.28
189.52,7.35,8.68,7.39,8.72,-8.74,-8.84,-7.81,-1.39,-1.35,-1.33
191.42,7.35,8.71,7.34,8.71,-8.71,-8.81,-7.81,-1.36,-1.37,-1.36
193.33,7.35,8.75,7.31,8.71,-8.69,-8.77,-7.82,-1.33,-1.38,-1.40
195.27,7.24,8.68,7.26,8.69,-8.65,-8.74,-7.84,-1.41,-1.40,-1.44
197.22,7.14,8.62,7.17,8.64,-8.62,-8.70,-7.86,-1.48,-1.45,-1.48
199.19,7.11,8.61,7.07,8.57,-8.58,-8.66,-7.88,-1.47,-1.51,-1.50
201.18,6.98,8.51,6.99,8.52,-8.54,-8.63,-7.91,-1.56,-1.54,-1.53
203.19,6.89,8.45,6.93,8.49,-8.49,-8.59,-7.94,-1.60,-1.56,-1.56
205.23,6.89,8.47,6.85,8.43,-8.45,-8.55,-7.97,-1.56,-1.60,-1.58
207.28,6.81,8.41,6.79,8.39,-8.41,-8.50,-8.01,-1.60,-1.62,-1.60
209.35,6.69,8.32,6.72,8.36,-8.37,-8.46,-8.05,-1.68,-1.65,-1.63
211.44,6.66,8.33,6.69,8.35,-8.35,-8.42,-8.09,-1.69,-1.66,-1.67
213.56,6.66,8.35,6.64,8.33,-8.32,-8.37,-8.13,-1.66,-1.68,-1.69
215.69,6.66,8.37,6.59,8.30,-8.29,-8.33,-8.17,-1.63,-1.71,-1.71
217.85,6.45,8.19,6.52,8.27,-8.26,-8.28,-8.21,-1.81,-1.74,-1.74
220.03,6.43,8.21,6.45,8.23,-8.23,-8.23,-8.25,-1.80,-1.77,-1.78
222.23,6.43,8.23,6.37,8.18,-8.19,-8.18,-8.29,-1.75,-1.81,-1.80
224.45,6.33,8.15,6.34,8.17,-8.14,-8.13,-8.33,-1.81,-1.80,-1.82
226.70,6.22,8.08,6.26,8.10,-8.08,-8.08,-8.36,-1.86,-1.83,-1.85
228.96,6.21,8.08,6.15,8.02,-8.03,-8.03,-8.39,-1.82,-1.88,-1.87
231.25,6.04,7.93,6.08,7.97,-7.98,-7.97,-8.41,-1.94,-1.90,-1.89
233.57,5.98,7.90,6.01,7.92,-7.93,-7.92,-8.43,-1.95,-1.91,-1.92
235.90,5.98,7.92,5.93,7.86,-7.88,-7.86,-8.45,-1.90,-1.95,-1.94
238.26,5.87,7.83,5.87,7.82,-7.84,-7.81,-8.45,-1.97,-1.97,-1.95
240.64,5.77,7.73,5.80,7.77,-7.79,-7.75,-8.45,-2.02,-1.99,-1.96
243.05,5.75,7.73,5.77,7.75,-7.75,-7.70,-8.44,-2.00,-1.98,-1.98
245.48,5.75,7.75,5.74,7.74,-7.72,-7.64,-8.42,-1.97,-1.98,-2.00
247.93,5.75,7.77,5.68,7.70,-7.67,-7.58,-8.40,-1.92,-1.99,-2.02
250.41,5.56,7.58,5.62,7.64,-7.62,-7.52,-8.36,-2.06,-2.00,-2.02
252.92,5.52,7.54,5.55,7.57,-7.57,-7.46,-8.32,-2.05,-2.02,-2.02
255.45,5.52,7.56,5.46,7.50,-7.51,-7.40,-8.26,-1.99,-2.05,-2.04
258.00,5.39,7.44,5.42,7.47,-7.44,-7.34,-8.20,-2.05,-2.03,-2.05
260.58,5.30,7.37,5.32,7.39,-7.38,-7.28,-8.13,-2.08,-2.05,-2.07
263.19,5.28,7.35,5.22,7.29,-7.32,-7.22,-8.05,-2.04,-2.10,-2.07
265.82,5.09,7.17,5.14,7.22,-7.26,-7.15,-7.96,-2.17,-2.12,-2.08
268.48,5.07,7.16,5.10,7.18,-7.20,-7.09,-7.87,-2.13,-2.10,-2.08
271.16,5.07,7.16,5.05,7.14,-7.15,-7.03,-7.77,-2.08,-2.10,-2.09
273.87,5.07,7.17,5.02,7.12,-7.10,-6.96,-7.66,-2.03,-2.08,-2.10
276.61,4.93,7.03,4.95,7.06,-7.04,-6.90,-7.55,-2.11,-2.08,-2.10
279.38,4.85,6.97,4.89,7.00,-6.98,-6.83,-7.44,-2.13,-2.09,-2.12
282.17,4.84,6.95,4.81,6.92,-6.92,-6.77,-7.32,-2.08,-2.11,-2.11
284.99,4.79,6.90,4.75,6.86,-6.85,-6.70,-7.20,-2.06,-2.10,-2.11
287.84,4.62,6.72,4.68,6.78,-6.77,-6.64,-7.07,-2.15,-2.09,-2.10
290.72,4.61,6.72,4.58,6.68,-6.70,-6.57,-6.94,-2.09,-2.12,-2.11
293.63,4.50,6.60,4.49,6.59,-6.62,-6.51,-6.82,-2.12,-2.13,-2.10
296.57,4.40,6.50,4.45,6.55,-6.54,-6.44,-6.69,-2.14,-2.09,-2.09
299.53,4.38,6.48,4.38,6.47,-6.47,-6.37,-6.56,-2.09,-2.10,-2.10
302.53,4.38,6.47,4.31,6.40,-6.41,-6.31,-6.44,-2.03,-2.10,-2.09
305.55,4.19,6.29,4.24,6.34,-6.34,-6.24,-6.31,-2.15,-2.10,-2.10
308.61,4.16,6.25,4.19,6.28,-6.28,-6.17,-6.19,-2.12,-2.09,-2.09
311.69,4.16,6.24,4.14,6.23,-6.23,-6.11,-6.06,-2.07,-2.09,-2.08
314.81,4.16,6.24,4.10,6.18,-6.18,-6.04,-5.94,-2.02,-2.07,-2.08
317.96,4.01,6.09,4.04,6.12,-6.11,-5.97,-5.83,-2.10,-2.08,-2.08
321.14,3.93,6.00,3.98,6.05,-6.05,-5.91,-5.71,-2.12,-2.08,-2.07
324.35,3.93,6.01,3.90,5.98,-5.98,-5.84,-5.60,-2.05,-2.08,-2.08
327.59,3.89,5.96,3.86,5.93,-5.91,-5.77,-5.49,-2.02,-2.05,-2.07
330.87,3.75,5.82,3.78,5.86,-5.83,-5.71,-5.38,-2.08,-2.04,-2.07
334.18,3.70,5.78,3.68,5.74,-5.74,-5.64,-5.28,-2.04,-2.07,-2.08
337.52,3.57,5.63,3.58,5.64,-5.66,-5.57,-5.18,-2.09,-2.08,-2.06
340.90,3.49,5.54,3.52,5.57,-5.58,-5.51,-5.08,-2.09,-2.06,-2.05
344.30,3.47,5.51,3.45,5.49,-5.50,-5.44,-4.99,-2.03,-2.05,-2.04
347.75,3.41,5.44,3.38,5.41,-5.42,-5.37,-4.90,-2.01,-2.05,-2.03
351.23,3.28,5.31,3.31,5.33,-5.35,-5.31,-4.82,-2.07,-2.04,-2.03
354.74,3.24,5.25,3.27,5.28,-5.29,-5.24,-4.73,-2.05,-2.02,-2.01
358.28,3.24,5.25,3.23,5.24,-5.23,-5.17,-4.66,-1.99,-2.00,-2.01
361.87,3.24,5.24,3.18,5.18,-5.17,-5.11,-4.58,-1.93,-1.99,-2.00
365.49,3.08,5.08,3.12,5.12,-5.11,-5.04,-4.51,-2.03,-1.99,-2.00
369.14,3.03,5.02,3.06,5.05,-5.04,-4.98,-4.44,-2.01,-1.98,-1.99
372.83,3.02,5.00,2.99,4.97,-4.97,-4.91,-4.37,-1.95,-1.98,-1.98
376.56,2.96,4.95,2.94,4.93,-4.89,-4.85,-4.31,-1.93,-1.95,-1.99
380.33,2.82,4.80,2.86,4.84,-4.82,-4.78,-4.25,-2.00,-1.96,-1.98
384.13,2.79,4.77,2.75,4.72,-4.74,-4.72,-4.20,-1.95,-2.00,-1.97
387.97,2.63,4.60,2.65,4.62,-4.67,-4.65,-4.14,-2.04,-2.02,-1.97
391.85,2.57,4.54,2.60,4.57,-4.60,-4.59,-4.09,-2.03,-2.00,-1.97
395.77,2.56,4.53,2.56,4.53,-4.53,-4.52,-4.05,-1.97,-1.97,-1.97
399.73,2.56,4.53,2.53,4.49,-4.46,-4.46,-4.00,-1.90,-1.94,-1.97
403.72,2.48,4.43,2.46,4.42,-4.39,-4.40,-3.96,-1.91,-1.93,-1.95
407.76,2.36,4.31,2.41,4.36,-4.33,-4.33,-3.92,-1.97,-1.92,-1.95
411.84,2.33,4.27,2.34,4.27,-4.27,-4.27,-3.88,-1.94,-1.93,-1.94
415.96,2.33,4.26,2.26,4.19,-4.21,-4.20,-3.84,-1.88,-1.95,-1.93
420.12,2.15,4.08,2.19,4.11,-4.14,-4.14,-3.81,-1.99,-1.95,-1.93
424.32,2.10,4.02,2.14,4.05,-4.07,-4.08,-3.77,-1.97,-1.94,-1.92
428.56,2.10,4.00,2.09,3.99,-4.00,-4.02,-3.74,-1.90,-1.91,-1.90
432.85,2.10,3.99,2.06,3.95,-3.94,-3.95,-3.71,-1.84,-1.88,-1.89
437.18,2.00,3.89,2.00,3.89,-3.87,-3.89,-3.68,-1.87,-1.87,-1.89
441.55,1.91,3.78,1.95,3.83,-3.80,-3.83,-3.64,-1.89,-1.85,-1.87
445.96,1.88,3.74,1.88,3.74,-3.74,-3.77,-3.61,-1.86,-1.85,-1.86
450.42,1.88,3.72,1.81,3.66,-3.67,-3.71,-3.58,-1.79,-1.86,-1.84
454.93,1.70,3.54,1.74,3.58,-3.59,-3.64,-3.55,-1.89,-1.85,-1.83
459.48,1.65,3.48,1.69,3.51,-3.52,-3.58,-3.52,-1.87,-1.83,-1.83
464.07,1.65,3.46,1.64,3.45,-3.45,-3.52,-3.49,-1.80,-1.81,-1.81
468.71,1.65,3.45,1.60,3.39,-3.38,-3.46,-3.45,-1.73,-1.78,-1.80
473.40,1.51,3.29,1.53,3.31,-3.31,-3.40,-3.42,-1.80,-1.78,-1.78
