frequency,raw,error,smoothed,error_smoothed,equalization,parametric_eq,fixed_band_eq,equalized_raw,equalized_smoothed,target
20.00,11.14,8.01,11.14,8.02,-8.02,-7.89,-3.64,3.12,3.12,3.12
20.20,11.13,8.01,11.13,8.01,-8.01,-7.90,-3.74,3.12,3.12,3.11
20.40,11.12,8.01,11.12,8.01,-8.01,-7.91,-3.84,3.11,3.11,3.11
20.61,11.12,8.02,11.11,8.01,-8.01,-7.92,-3.94,3.11,3.11,3.10
20.81,11.11,8.01,11.11,8.00,-8.01,-7.93,-4.05,3.10,3.10,3.10
21.02,11.10,8.00,11.10,8.01,-8.01,-7.94,-4.16,3.09,3.09,3.10
21.23,11.10,8.02,11.09,8.01,-8.02,-7.95,-4.27,3.08,3.08,3.08
21.44,11.09,8.03,11.08,8.02,-8.02,-7.96,-4.39,3.06,3.06,3.06
21.66,11.07,8.03,11.07,8.04,-8.03,-7.97,-4.50,3.04,3.04,3.04
21.87,11.06,8.05,11.06,8.05,-8.05,-7.97,-4.63,3.01,3.02,3.01
22.09,11.06,8.07,11.05,8.06,-8.06,-7.98,-4.75,3.00,2.99,2.99
22.31,11.04,8.07,11.04,8.08,-8.08,-7.99,-4.88,2.96,2.97,2.97
22.54,11.03,8.09,11.03,8.09,-8.09,-8.00,-5.01,2.94,2.94,2.94
22.76,11.02,8.11,11.01,8.10,-8.11,-8.00,-5.14,2.91,2.91,2.91
22.99,11.00,8.12,11.00,8.12,-8.12,-8.01,-5.28,2.88,2.88,2.88
23.22,10.99,8.14,10.99,8.14,-8.13,-8.02,-5.42,2.86,2.86,2.85
23.45,10.98,8.15,10.97,8.15,-8.14,-8.02,-5.57,2.84,2.84,2.83
23.69,10.96,8.15,10.96,8.15,-8.14,-8.03,-5.71,2.82,2.82,2.81
23.92,10.94,8.15,10.94,8.15,-8.15,-8.04,-5.86,2.79,2.79,2.79
24.16,10.92,8.14,10.91,8.14,-8.15,-8.04,-6.02,2.77,2.77,2.78
24.40,10.89,8.13,10.89,8.14,-8.15,-8.05,-6.17,2.74,2.75,2.76
24.65,10.88,8.14,10.87,8.14,-8.14,-8.06,-6.33,2.73,2.73,2.74
24.89,10.86,8.14,10.86,8.14,-8.14,-8.06,-6.49,2.72,2.71,2.72
25.14,10.84,8.14,10.84,8.14,-8.14,-8.07,-6.65,2.70,2.70,2.70
25.39,10.82,8.14,10.82,8.14,-8.14,-8.07,-6.82,2.68,2.68,2.67
25.65,10.80,8.13,10.80,8.14,-8.14,-8.08,-6.98,2.66,2.66,2.66
25.91,10.78,8.14,10.78,8.14,-8.14,-8.08,-7.15,2.64,2.64,2.63
26.16,10.76,8.13,10.76,8.14,-8.13,-8.09,-7.32,2.63,2.63,2.62
26.43,10.74,8.13,10.73,8.13,-8.13,-8.09,-7.48,2.61,2.61,2.60
26.69,10.71,8.12,10.71,8.12,-8.12,-8.10,-7.65,2.59,2.59,2.59
26.96,10.69,8.12,10.69,8.11,-8.12,-8.10,-7.81,2.57,2.57,2.57
27.23,10.67,8.11,10.66,8.11,-8.11,-8.11,-7.98,2.55,2.55,2.56
27.50,10.64,8.10,10.65,8.10,-8.11,-8.11,-8.14,2.53,2.54,2.54
27.77,10.63,8.11,10.62,8.10,-8.10,-8.12,-8.29,2.53,2.52,2.52
28.05,10.61,8.10,10.60,8.10,-8.10,-8.12,-8.44,2.51,2.51,2.51
28.33,10.58,8.10,10.58,8.10,-8.09,-8.13,-8.59,2.49,2.49,2.48
28.62,10.56,8.09,10.56,8.09,-8.08,-8.13,-8.73,2.48,2.47,2.47
28.90,10.54,8.07,10.53,8.07,-8.08,-8.14,-8.86,2.46,2.46,2.47
29.19,10.51,8.06,10.51,8.06,-8.07,-8.14,-8.98,2.44,2.45,2.45
29.48,10.50,8.05,10.50,8.06,-8.06,-8.14,-9.10,2.44,2.44,2.44
29.78,10.48,8.05,10.48,8.05,-8.05,-8.15,-9.20,2.43,2.42,2.42
30.08,10.46,8.05,10.46,8.04,-8.05,-8.15,-9.29,2.41,2.41,2.41
30.38,10.43,8.04,10.43,8.04,-8.04,-8.16,-9.37,2.39,2.39,2.39
30.68,10.41,8.04,10.41,8.04,-8.04,-8.16,-9.44,2.37,2.37,2.37
30.99,10.39,8.04,10.39,8.03,-8.03,-8.17,-9.50,2.36,2.35,2.35
31.30,10.37,8.03,10.37,8.03,-8.03,-8.17,-9.54,2.34,2.34,2.34
31.61,10.35,8.02,10.35,8.03,-8.03,-8.18,-9.57,2.32,2.32,2.33
31.93,10.33,8.03,10.32,8.03,-8.03,-8.18,-9.59,2.30,2.30,2.30
32.24,10.30,8.02,10.30,8.03,-8.03,-8.18,-9.59,2.27,2.27,2.27
32.57,10.29,8.04,10.29,8.03,-8.03,-8.19,-9.59,2.26,2.25,2.25
32.89,10.27,8.03,10.27,8.03,-8.03,-8.19,-9.57,2.23,2.24,2.24
33.22,10.26,8.05,10.26,8.04,-8.04,-8.20,-9.54,2.22,2.22,2.21
33.55,10.24,8.04,10.24,8.04,-8.04,-8.20,-9.50,2.19,2.19,2.20
33.89,10.22,8.05,10.22,8.05,-8.05,-8.21,-9.46,2.17,2.17,2.17
34.23,10.20,8.04,10.20,8.05,-8.05,-8.21,-9.41,2.14,2.15,2.15
34.57,10.19,8.07,10.19,8.06,-8.06,-8.22,-9.35,2.13,2.13,2.12
34.92,10.18,8.08,10.17,8.07,-8.07,-8.22,-9.28,2.11,2.11,2.10
35.27,10.16,8.07,10.16,8.08,-8.08,-8.23,-9.22,2.08,2.08,2.09
35.62,10.15,8.08,10.15,8.08,-8.08,-8.23,-9.14,2.06,2.06,2.07
35.97,10.13,8.09,10.13,8.09,-8.09,-8.24,-9.07,2.03,2.04,2.03
36.33,10.13,8.11,10.12,8.10,-8.10,-8.24,-9.00,2.02,2.02,2.02
36.70,10.11,8.11,10.11,8.11,-8.11,-8.25,-8.92,2.00,2.00,2.00
37.06,10.10,8.13,10.10,8.12,-8.12,-8.25,-8.84,1.98,1.98,1.97
37.43,10.09,8.13,10.09,8.14,-8.13,-8.26,-8.77,1.95,1.95,1.96
37.81,10.08,8.14,10.08,8.15,-8.15,-8.27,-8.70,1.93,1.93,1.93
38.19,10.08,8.17,10.07,8.16,-8.16,-8.27,-8.63,1.92,1.91,1.91
38.57,10.06,8.16,10.06,8.17,-8.17,-8.28,-8.56,1.88,1.89,1.90
38.95,10.06,8.18,10.06,8.18,-8.19,-8.29,-8.49,1.87,1.87,1.87
39.34,10.05,8.20,10.05,8.20,-8.20,-8.29,-8.43,1.85,1.85,1.85
39.74,10.05,8.23,10.04,8.22,-8.22,-8.30,-8.37,1.83,1.83,1.82
40.14,10.04,8.23,10.04,8.23,-8.23,-8.31,-8.32,1.81,1.81,1.81
40.54,10.03,8.25,10.03,8.25,-8.24,-8.31,-8.27,1.78,1.79,1.78
40.94,10.03,8.26,10.02,8.26,-8.26,-8.32,-8.23,1.77,1.77,1.77
41.35,10.02,8.27,10.02,8.27,-8.27,-8.33,-8.19,1.75,1.75,1.74
41.76,10.02,8.29,10.01,8.28,-8.28,-8.34,-8.16,1.74,1.73,1.73
42.18,10.01,8.29,10.01,8.29,-8.29,-8.34,-8.13,1.71,1.71,1.72
42.60,10.00,8.30,10.00,8.30,-8.31,-8.35,-8.11,1.69,1.70,1.69
43.03,10.00,8.31,9.99,8.31,-8.32,-8.36,-8.10,1.68,1.68,1.69
43.46,9.99,8.32,9.99,8.33,-8.33,-8.37,-8.09,1.65,1.66,1.66
43.90,9.99,8.36,9.98,8.35,-8.35,-8.38,-8.08,1.64,1.63,1.63
44.33,9.98,8.37,9.98,8.37,-8.37,-8.39,-8.08,1.61,1.61,1.61
44.78,9.97,8.38,9.97,8.38,-8.38,-8.40,-8.09,1.59,1.59,1.59
45.23,9.97,8.40,9.96,8.40,-8.40,-8.41,-8.10,1.57,1.57,1.57
45.68,9.96,8.41,9.96,8.41,-8.41,-8.42,-8.12,1.55,1.55,1.55
46.13,9.96,8.43,9.96,8.43,-8.42,-8.43,-8.15,1.53,1.54,1.52
46.60,9.96,8.44,9.95,8.44,-8.43,-8.44,-8.18,1.52,1.52,1.52
47.06,9.95,8.44,9.95,8.45,-8.45,-8.45,-8.21,1.50,1.50,1.50
47.53,9.94,8.45,9.94,8.45,-8.46,-8.46,-8.25,1.48,1.48,1.49
48.01,9.94,8.47,9.93,8.47,-8.47,-8.47,-8.30,1.47,1.46,1.47
48.49,9.93,8.48,9.93,8.48,-8.49,-8.48,-8.35,1.44,1.44,1.44
48.97,9.92,8.50,9.92,8.50,-8.50,-8.49,-8.41,1.41,1.41,1.42
49.46,9.91,8.52,9.91,8.52,-8.52,-8.50,-8.47,1.39,1.39,1.39
49.96,9.91,8.54,9.91,8.54,-8.54,-8.52,-8.54,1.37,1.37,1.36
50.46,9.91,8.56,9.90,8.56,-8.56,-8.53,-8.61,1.35,1.35,1.35
50.96,9.90,8.57,9.90,8.58,-8.57,-8.54,-8.68,1.32,1.33,1.33
51.47,9.90,8.60,9.89,8.59,-8.59,-8.55,-8.76,1.31,1.30,1.30
51.99,9.89,8.61,9.89,8.60,-8.61,-8.57,-8.84,1.28,1.28,1.28
52.51,9.89,8.62,9.89,8.62,-8.62,-8.58,-8.92,1.26,1.26,1.27
53.03,9.89,8.64,9.89,8.64,-8.64,-8.59,-9.00,1.25,1.25,1.25
53.56,9.89,8.66,9.89,8.66,-8.66,-8.61,-9.08,1.23,1.23,1.22
54.10,9.89,8.68,9.88,8.68,-8.68,-8.62,-9.17,1.21,1.21,1.20
54.64,9.88,8.69,9.88,8.70,-8.70,-8.64,-9.25,1.18,1.18,1.18
55.18,9.88,8.71,9.88,8.72,-8.72,-8.65,-9.33,1.16,1.16,1.16
55.74,9.88,8.74,9.88,8.73,-8.74,-8.66,-9.41,1.14,1.14,1.14
56.29,9.88,8.76,9.88,8.76,-8.76,-8.68,-9.49,1.12,1.12,1.12
56.86,9.88,8.78,9.88,8.78,-8.77,-8.69,-9.56,1.10,1.10,1.10
57.42,9.88,8.80,9.88,8.80,-8.79,-8.71,-9.63,1.08,1.08,1.08
58.00,9.88,8.81,9.88,8.81,-8.81,-8.72,-9.69,1.07,1.07,1.06
58.58,9.88,8.83,9.88,8.83,-8.83,-8.74,-9.75,1.05,1.05,1.05
59.16,9.89,8.85,9.88,8.85,-8.85,-8.76,-9.80,1.04,1.03,1.04
59.76,9.88,8.86,9.88,8.87,-8.87,-8.77,-9.84,1.01,1.01,1.02
60.35,9.89,8.90,9.88,8.89,-8.89,-8.79,-9.87,0.99,0.99,0.99
60.96,9.88,8.90,9.88,8.91,-8.91,-8.80,-9.89,0.96,0.97,0.98
61.57,9.88,8.94,9.88,8.94,-8.94,-8.82,-9.90,0.94,0.95,0.94
62.18,9.89,8.97,9.88,8.96,-8.96,-8.83,-9.90,0.93,0.92,0.92
62.80,9.89,8.99,9.88,8.99,-8.98,-8.85,-9.89,0.91,0.90,0.90
63.43,9.88,9.00,9.88,9.00,-9.00,-8.87,-9.87,0.88,0.88,0.87
64.07,9.87,9.01,9.88,9.02,-9.02,-8.88,-9.83,0.85,0.86,0.86
64.71,9.88,9.04,9.87,9.03,-9.03,-8.90,-9.79,0.84,0.84,0.84
65.35,9.87,9.05,9.87,9.05,-9.05,-8.91,-9.74,0.82,0.82,0.82
66.01,9.86,9.05,9.86,9.06,-9.06,-8.93,-9.68,0.80,0.80,0.80
66.67,9.86,9.07,9.85,9.07,-9.07,-8.94,-9.61,0.79,0.78,0.78
67.33,9.85,9.08,9.85,9.08,-9.08,-8.96,-9.53,0.77,0.77,0.76
68.01,9.84,9.09,9.84,9.09,-9.09,-8.97,-9.45,0.75,0.75,0.74
68.69,9.83,9.10,9.83,9.10,-9.10,-8.99,-9.36,0.73,0.73,0.72
69.37,9.81,9.11,9.81,9.11,-9.11,-9.00,-9.27,0.70,0.70,0.70
70.07,9.80,9.12,9.80,9.11,-9.11,-9.01,-9.17,0.68,0.68,0.68
70.77,9.78,9.11,9.78,9.11,-9.12,-9.03,-9.07,0.66,0.66,0.67
71.48,9.77,9.12,9.76,9.12,-9.12,-9.04,-8.97,0.64,0.64,0.64
72.19,9.74,9.12,9.74,9.13,-9.13,-9.05,-8.86,0.61,0.62,0.62
72.91,9.73,9.14,9.72,9.13,-9.13,-9.06,-8.76,0.60,0.59,0.59
73.64,9.70,9.14,9.70,9.13,-9.13,-9.07,-8.65,0.57,0.57,0.56
74.38,9.67,9.12,9.67,9.13,-9.13,-9.08,-8.55,0.54,0.55,0.55
75.12,9.65,9.13,9.65,9.12,-9.12,-9.09,-8.44,0.52,0.52,0.52
75.87,9.62,9.12,9.62,9.12,-9.12,-9.10,-8.34,0.50,0.50,0.49
76.63,9.59,9.11,9.59,9.11,-9.11,-9.11,-8.24,0.47,0.47,0.48
77.40,9.55,9.10,9.55,9.11,-9.10,-9.12,-8.15,0.44,0.45,0.45
78.17,9.52,9.11,9.52,9.10,-9.10,-9.12,-8.06,0.42,0.42,0.41
78.95,9.48,9.09,9.48,9.08,-9.08,-9.13,-7.97,0.39,0.39,0.39
79.74,9.44,9.06,9.44,9.07,-9.07,-9.13,-7.89,0.36,0.37,0.37
80.54,9.40,9.06,9.40,9.06,-9.06,-9.13,-7.81,0.33,0.34,0.34
81.35,9.37,9.06,9.36,9.05,-9.05,-9.13,-7.73,0.32,0.31,0.31
82.16,9.32,9.04,9.32,9.04,-9.04,-9.13,-7.66,0.28,0.29,0.28
82.98,9.28,9.02,9.27,9.02,-9.02,-9.13,-7.60,0.26,0.25,0.26
83.81,9.23,9.01,9.23,9.01,-9.00,-9.13,-7.54,0.22,0.22,0.22
84.65,9.17,8.98,9.18,8.99,-8.99,-9.12,-7.48,0.18,0.19,0.18
85.50,9.13,8.97,9.12,8.97,-8.97,-9.12,-7.43,0.16,0.16,0.16
86.35,9.07,8.94,9.07,8.94,-8.94,-9.11,-7.39,0.12,0.12,0.13
87.22,9.01,8.92,9.01,8.92,-8.92,-9.10,-7.35,0.09,0.09,0.09
88.09,8.96,8.90,8.95,8.89,-8.89,-9.09,-7.32,0.06,0.06,0.06
88.97,8.90,8.87,8.90,8.87,-8.87,-9.07,-7.29,0.03,0.03,0.03
89.86,8.84,8.83,8.84,8.84,-8.84,-9.06,-7.27,-0.00,-0.00,0.01
90.76,8.78,8.82,8.78,8.81,-8.81,-9.04,-7.25,-0.03,-0.03,-0.04
91.66,8.71,8.77,8.71,8.78,-8.78,-9.02,-7.24,-0.07,-0.07,-0.07
92.58,8.65,8.76,8.65,8.75,-8.75,-9.00,-7.23,-0.10,-0.10,-0.11
93.51,8.58,8.71,8.58,8.72,-8.72,-8.97,-7.23,-0.14,-0.14,-0.13
94.44,8.52,8.69,8.51,8.69,-8.69,-8.95,-7.23,-0.17,-0.17,-0.17
95.39,8.45,8.65,8.44,8.65,-8.66,-8.92,-7.24,-0.21,-0.21,-0.21
96.34,8.37,8.62,8.37,8.62,-8.62,-8.89,-7.25,-0.25,-0.25,-0.25
97.30,8.30,8.59,8.30,8.59,-8.59,-8.85,-7.27,-0.29,-0.29,-0.29
98.28,8.23,8.56,8.22,8.56,-8.55,-8.81,-7.29,-0.33,-0.33,-0.33
99.26,8.15,8.52,8.15,8.52,-8.52,-8.77,-7.32,-0.37,-0.37,-0.37
100.25,8.07,8.48,8.07,8.48,-8.48,-8.73,-7.35,-0.42,-0.41,-0.41
101.25,8.00,8.45,7.99,8.44,-8.45,-8.69,-7.38,-0.45,-0.45,-0.45
102.27,7.92,8.41,7.91,8.41,-8.41,-8.64,-7.42,-0.49,-0.49,-0.49
103.29,7.83,8.38,7.83,8.37,-8.37,-8.59,-7.45,-0.54,-0.53,-0.55
104.32,7.75,8.32,7.75,8.33,-8.33,-8.53,-7.49,-0.58,-0.58,-0.58
105.37,7.67,8.29,7.66,8.28,-8.28,-8.47,-7.53,-0.62,-0.62,-0.63
106.42,7.57,8.23,7.57,8.24,-8.24,-8.41,-7.57,-0.67,-0.67,-0.67
107.48,7.48,8.18,7.48,8.19,-8.19,-8.35,-7.62,-0.72,-0.71,-0.71
108.56,7.39,8.15,7.39,8.15,-8.15,-8.28,-7.66,-0.76,-0.76,-0.76
109.64,7.30,8.10,7.29,8.10,-8.10,-8.22,-7.70,-0.80,-0.81,-0.80
110.74,7.20,8.05,7.20,8.05,-8.05,-8.14,-7.73,-0.85,-0.85,-0.85
111.85,7.10,7.99,7.10,8.00,-8.00,-8.07,-7.77,-0.90,-0.90,-0.89
112.97,7.00,7.96,7.00,7.95,-7.95,-7.99,-7.80,-0.95,-0.95,-0.96
114.10,6.89,7.89,6.89,7.89,-7.89,-7.91,-7.83,-1.00,-1.00,-1.00
115.24,6.79,7.84,6.79,7.84,-7.83,-7.82,-7.85,-1.05,-1.05,-1.05
116.39,6.68,7.77,6.68,7.77,-7.77,-7.74,-7.86,-1.09,-1.09,-1.10
117.55,6.57,7.71,6.57,7.71,-7.71,-7.65,-7.87,-1.14,-1.14,-1.14
118.73,6.45,7.64,6.45,7.64,-7.63,-7.55,-7.87,-1.19,-1.19,-1.19
119.92,6.33,7.56,6.33,7.56,-7.56,-7.46,-7.86,-1.23,-1.23,-1.23
121.12,6.21,7.48,6.21,7.48,-7.48,-7.36,-7.84,-1.27,-1.27,-1.27
122.33,6.08,7.40,6.08,7.40,-7.39,-7.26,-7.81,-1.32,-1.31,-1.32
123.55,5.95,7.30,5.95,7.31,-7.31,-7.15,-7.78,-1.36,-1.36,-1.36
124.79,5.82,7.21,5.81,7.21,-7.22,-7.05,-7.73,-1.40,-1.40,-1.39
126.03,5.68,7.11,5.68,7.11,-7.12,-6.94,-7.67,-1.44,-1.44,-1.44
127.29,5.54,7.02,5.54,7.02,-7.02,-6.82,-7.60,-1.49,-1.48,-1.48
128.57,5.40,6.92,5.40,6.92,-6.92,-6.71,-7.52,-1.52,-1.52,-1.53
129.85,5.26,6.83,5.25,6.82,-6.82,-6.59,-7.43,-1.56,-1.56,-1.57
131.15,5.11,6.71,5.11,6.71,-6.71,-6.47,-7.33,-1.60,-1.60,-1.60
132.46,4.96,6.59,4.96,6.60,-6.59,-6.35,-7.23,-1.64,-1.63,-1.63
133.79,4.81,6.47,4.81,6.48,-6.47,-6.22,-7.11,-1.67,-1.67,-1.67
135.12,4.65,6.36,4.65,6.35,-6.35,-6.09,-6.98,-1.70,-1.70,-1.71
136.48,4.49,6.22,4.49,6.22,-6.22,-5.96,-6.85,-1.73,-1.73,-1.73
137.84,4.32,6.08,4.32,6.08,-6.08,-5.83,-6.71,-1.77,-1.76,-1.76
139.22,4.16,5.95,4.16,5.94,-5.94,-5.70,-6.57,-1.79,-1.79,-1.79
140.61,3.99,5.81,3.99,5.80,-5.80,-5.56,-6.42,-1.81,-1.81,-1.82
142.02,3.82,5.64,3.82,5.65,-5.65,-5.42,-6.26,-1.83,-1.83,-1.83
143.44,3.65,5.50,3.65,5.50,-5.50,-5.28,-6.11,-1.85,-1.85,-1.85
144.87,3.47,5.34,3.47,5.34,-5.34,-5.14,-5.94,-1.88,-1.87,-1.87
146.32,3.30,5.19,3.30,5.18,-5.19,-5.00,-5.78,-1.89,-1.89,-1.89
147.78,3.12,5.02,3.12,5.02,-5.03,-4.86,-5.61,-1.91,-1.91,-1.90
149.26,2.94,4.86,2.94,4.86,-4.86,-4.71,-5.45,-1.92,-1.93,-1.92
150.75,2.75,4.70,2.75,4.70,-4.69,-4.56,-5.28,-1.95,-1.95,-1.96
152.26,2.56,4.53,2.56,4.53,-4.52,-4.41,-5.11,-1.97,-1.96,-1.97
153.78,2.37,4.35,2.37,4.36,-4.35,-4.27,-4.94,-1.99,-1.98,-1.98
155.32,2.18,4.18,2.17,4.18,-4.18,-4.11,-4.77,-2.00,-2.01,-2.01
156.88,1.98,4.00,1.98,4.00,-4.00,-3.96,-4.61,-2.03,-2.02,-2.02
158.44,1.78,3.82,1.78,3.82,-3.83,-3.81,-4.44,-2.05,-2.05,-2.04
160.03,1.59,3.65,1.58,3.65,-3.65,-3.66,-4.27,-2.06,-2.07,-2.06
161.63,1.38,3.47,1.38,3.47,-3.47,-3.51,-4.11,-2.09,-2.09,-2.09
163.24,1.19,3.30,1.19,3.29,-3.29,-3.35,-3.95,-2.10,-2.10,-2.11
164.88,0.99,3.11,0.99,3.11,-3.11,-3.20,-3.79,-2.12,-2.13,-2.12
166.53,0.79,2.93,0.79,2.93,-2.93,-3.05,-3.63,-2.15,-2.15,-2.14
168.19,0.59,2.76,0.59,2.76,-2.76,-2.90,-3.47,-2.17,-2.17,-2.17
169.87,0.39,2.58,0.39,2.58,-2.59,-2.74,-3.31,-2.20,-2.19,-2.19
171.57,0.21,2.42,0.20,2.41,-2.42,-2.59,-3.16,-2.21,-2.22,-2.22
173.29,0.01,2.24,0.01,2.25,-2.25,-2.44,-3.01,-2.24,-2.24,-2.23
175.02,-0.17,2.09,-0.17,2.09,-2.09,-2.29,-2.86,-2.26,-2.27,-2.26
176.77,-0.36,1.93,-0.36,1.93,-1.93,-2.15,-2.71,-2.30,-2.30,-2.30
178.54,-0.54,1.79,-0.54,1.78,-1.78,-2.00,-2.56,-2.33,-2.33,-2.33
180.32,-0.72,1.64,-0.72,1.64,-1.64,-1.86,-2.42,-2.36,-2.36,-2.36
182.13,-0.89,1.49,-0.89,1.50,-1.50,-1.71,-2.27,-2.39,-2.39,-2.38
183.95,-1.06,1.36,-1.06,1.36,-1.36,-1.57,-2.13,-2.42,-2.42,-2.43
185.79,-1.22,1.23,-1.23,1.23,-1.23,-1.44,-1.99,-2.45,-2.45,-2.45
187.65,-1.38,1.10,-1.38,1.10,-1.10,-1.30,-1.86,-2.48,-2.48,-2.48
189.52,-1.54,0.96,-1.53,0.98,-0.98,-1.17,-1.72,-2.52,-2.51,-2.51
191.42,-1.67,0.87,-1.68,0.86,-0.86,-1.05,-1.59,-2.53,-2.54,-2.54
193.33,-1.81,0.75,-1.82,0.75,-0.75,-0.92,-1.45,-2.56,-2.56,-2.56
195.27,-1.95,0.64,-1.95,0.64,-0.64,-0.80,-1.32,-2.59,-2.59,-2.59
197.22,-2.08,0.53,-2.08,0.54,-0.54,-0.69,-1.20,-2.62,-2.62,-2.61
199.19,-2.20,0.45,-2.20,0.44,-0.44,-0.58,-1.07,-2.64,-2.64,-2.66
201.18,-2.31,0.35,-2.32,0.35,-0.35,-0.47,-0.95,-2.66,-2.67,-2.67
203.19,-2.42,0.26,-2.42,0.27,-0.27,-0.37,-0.82,-2.69,-2.69,-2.69
205.23,-2.53,0.18,-2.53,0.18,-0.19,-0.27,-0.70,-2.72,-2.71,-2.72
207.28,-2.61,0.10,-2.62,0.11,-0.11,-0.18,-0.59,-2.73,-2.73,-2.72
209.35,-2.70,0.04,-2.70,0.05,-0.05,-0.10,-0.47,-2.75,-2.75,-2.74
211.44,-2.77,0.00,-2.78,-0.01,0.02,-0.02,-0.36,-2.76,-2.76,-2.77
213.56,-2.85,-0.07,-2.85,-0.07,0.07,0.06,-0.25,-2.78,-2.78,-2.78
215.69,-2.91,-0.13,-2.91,-0.12,0.12,0.13,-0.14,-2.79,-2.79,-2.78
217.85,-2.97,-0.17,-2.97,-0.17,0.17,0.19,-0.04,-2.80,-2.80,-2.80
220.03,-3.02,-0.22,-3.02,-0.22,0.22,0.25,0.06,-2.80,-2.80,-2.81
222.23,-3.06,-0.25,-3.07,-0.26,0.26,0.31,0.16,-2.80,-2.81,-2.81
224.45,-3.10,-0.30,-3.10,-0.29,0.30,0.36,0.25,-2.80,-2.80,-2.80
226.70,-3.13,-0.33,-3.13,-0.33,0.33,0.40,0.34,-2.80,-2.80,-2.80
228.96,-3.15,-0.36,-3.16,-0.37,0.36,0.44,0.42,-2.79,-2.79,-2.79
231.25,-3.18,-0.40,-3.18,-0.39,0.39,0.47,0.50,-2.79,-2.79,-2.78
233.57,-3.19,-0.42,-3.19,-0.42,0.41,0.50,0.58,-2.78,-2.78,-2.78
235.90,-3.20,-0.44,-3.20,-0.44,0.44,0.53,0.65,-2.77,-2.77,-2.76
238.26,-3.20,-0.44,-3.20,-0.45,0.45,0.55,0.71,-2.75,-2.75,-2.76
240.64,-3.20,-0.47,-3.20,-0.46,0.47,0.57,0.77,-2.73,-2.73,-2.73
243.05,-3.19,-0.47,-3.20,-0.48,0.48,0.58,0.83,-2.71,-2.71,-2.72
245.48,-3.19,-0.50,-3.19,-0.49,0.49,0.59,0.88,-2.70,-2.70,-2.69
247.93,-3.18,-0.51,-3.18,-0.50,0.50,0.59,0.92,-2.68,-2.68,-2.67
250.41,-3.16,-0.50,-3.17,-0.51,0.51,0.60,0.96,-2.65,-2.66,-2.66
252.92,-3.14,-0.51,-3.15,-0.52,0.51,0.60,0.99,-2.63,-2.63,-2.63
255.45,-3.13,-0.53,-3.13,-0.52,0.52,0.59,1.02,-2.62,-2.61,-2.60
258.00,-3.10,-0.51,-3.10,-0.52,0.52,0.59,1.04,-2.59,-2.59,-2.59
260.58,-3.07,-0.51,-3.07,-0.51,0.51,0.58,1.06,-2.56,-2.56,-2.56
263.19,-3.04,-0.51,-3.04,-0.50,0.51,0.57,1.07,-2.53,-2.53,-2.54
265.82,-3.01,-0.49,-3.01,-0.50,0.50,0.56,1.08,-2.51,-2.51,-2.52
268.48,-2.98,-0.50,-2.98,-0.49,0.49,0.55,1.08,-2.49,-2.49,-2.48
271.16,-2.94,-0.49,-2.95,-0.49,0.49,0.53,1.07,-2.46,-2.46,-2.46
273.87,-2.92,-0.48,-2.92,-0.48,0.48,0.52,1.07,-2.45,-2.44,-2.44
276.61,-2.88,-0.47,-2.88,-0.46,0.47,0.50,1.06,-2.42,-2.41,-2.41
279.38,-2.84,-0.45,-2.85,-0.45,0.46,0.48,1.04,-2.39,-2.39,-2.40
282.17,-2.81,-0.44,-2.81,-0.44,0.45,0.46,1.03,-2.37,-2.37,-2.37
284.99,-2.78,-0.44,-2.78,-0.43,0.44,0.44,1.01,-2.35,-2.34,-2.34
287.84,-2.74,-0.43,-2.74,-0.43,0.43,0.42,0.98,-2.32,-2.32,-2.32
290.72,-2.70,-0.41,-2.71,-0.42,0.42,0.40,0.96,-2.29,-2.29,-2.29
293.63,-2.67,-0.41,-2.67,-0.41,0.41,0.38,0.93,-2.26,-2.26,-2.26
296.57,-2.63,-0.40,-2.63,-0.40,0.40,0.36,0.90,-2.23,-2.23,-2.23
299.53,-2.60,-0.40,-2.60,-0.40,0.40,0.34,0.87,-2.20,-2.20,-2.21
302.53,-2.57,-0.38,-2.57,-0.39,0.40,0.32,0.84,-2.17,-2.17,-2.19
305.55,-2.54,-0.40,-2.54,-0.39,0.40,0.30,0.81,-2.15,-2.14,-2.14
308.61,-2.50,-0.39,-2.50,-0.40,0.40,0.28,0.77,-2.11,-2.11,-2.11
311.69,-2.47,-0.40,-2.47,-0.40,0.40,0.26,0.74,-2.08,-2.07,-2.07
314.81,-2.43,-0.41,-2.44,-0.40,0.40,0.24,0.70,-2.03,-2.04,-2.03
317.96,-2.41,-0.40,-2.41,-0.40,0.40,0.22,0.67,-2.01,-2.01,-2.01
321.14,-2.37,-0.39,-2.37,-0.40,0.40,0.20,0.63,-1.98,-1.98,-1.98
324.35,-2.34,-0.39,-2.34,-0.39,0.40,0.18,0.59,-1.95,-1.95,-1.95
327.59,-2.31,-0.39,-2.31,-0.39,0.39,0.16,0.56,-1.92,-1.92,-1.92
330.87,-2.28,-0.39,-2.29,-0.39,0.39,0.15,0.52,-1.90,-1.90,-1.89
334.18,-2.26,-0.39,-2.26,-0.38,0.38,0.13,0.49,-1.88,-1.88,-1.88
337.52,-2.22,-0.36,-2.23,-0.37,0.37,0.11,0.45,-1.85,-1.86,-1.86
340.90,-2.19,-0.36,-2.19,-0.36,0.36,0.09,0.41,-1.83,-1.83,-1.83
344.30,-2.16,-0.35,-2.16,-0.35,0.35,0.07,0.38,-1.81,-1.81,-1.81
347.75,-2.13,-0.34,-2.13,-0.34,0.34,0.06,0.34,-1.79,-1.79,-1.79
351.23,-2.09,-0.32,-2.10,-0.32,0.33,0.04,0.31,-1.77,-1.77,-1.77
354.74,-2.06,-0.31,-2.07,-0.31,0.31,0.03,0.27,-1.75,-1.75,-1.75
358.28,-2.04,-0.31,-2.03,-0.30,0.30,0.01,0.24,-1.74,-1.73,-1.74
361.87,-2.00,-0.29,-2.01,-0.29,0.29,-0.01,0.21,-1.72,-1.72,-1.72
365.49,-1.97,-0.27,-1.97,-0.27,0.27,-0.02,0.17,-1.70,-1.70,-1.70
369.14,-1.94,-0.25,-1.94,-0.25,0.26,-0.03,0.14,-1.69,-1.68,-1.69
372.83,-1.91,-0.24,-1.91,-0.24,0.24,-0.05,0.11,-1.67,-1.67,-1.67
376.56,-1.87,-0.21,-1.87,-0.22,0.22,-0.06,0.07,-1.65,-1.65,-1.66
380.33,-1.84,-0.21,-1.84,-0.20,0.20,-0.08,0.04,-1.64,-1.64,-1.63
384.13,-1.79,-0.18,-1.80,-0.18,0.18,-0.09,0.01,-1.61,-1.62,-1.61
387.97,-1.76,-0.17,-1.76,-0.16,0.16,-0.10,-0.02,-1.60,-1.60,-1.59
391.85,-1.71,-0.13,-1.71,-0.14,0.14,-0.12,-0.05,-1.57,-1.58,-1.58
395.77,-1.67,-0.12,-1.67,-0.11,0.12,-0.13,-0.08,-1.56,-1.56,-1.55
399.73,-1.62,-0.09,-1.63,-0.09,0.09,-0.15,-0.11,-1.53,-1.53,-1.54
403.72,-1.58,-0.07,-1.58,-0.07,0.06,-0.16,-0.14,-1.52,-1.52,-1.52
407.76,-1.53,-0.04,-1.53,-0.04,0.04,-0.17,-0.16,-1.50,-1.50,-1.50
411.84,-1.48,-0.01,-1.48,-0.01,0.01,-0.19,-0.19,-1.48,-1.47,-1.47
415.96,-1.42,0.03,-1.43,0.02,-0.02,-0.20,-0.22,-1.45,-1.45,-1.45
420.12,-1.37,0.06,-1.37,0.06,-0.05,-0.22,-0.24,-1.43,-1.43,-1.43
424.32,-1.32,0.09,-1.32,0.09,-0.09,-0.23,-0.27,-1.41,-1.40,-1.41
428.56,-1.26,0.13,-1.27,0.12,-0.12,-0.25,-0.29,-1.38,-1.38,-1.39
432.85,-1.21,0.16,-1.21,0.16,-0.15,-0.26,-0.32,-1.37,-1.36,-1.37
437.18,-1.15,0.19,-1.15,0.19,-0.19,-0.28,-0.34,-1.34,-1.34,-1.34
441.55,-1.09,0.22,-1.09,0.22,-0.23,-0.30,-0.36,-1.32,-1.32,-1.31
445.96,-1.03,0.26,-1.03,0.26,-0.27,-0.32,-0.38,-1.30,-1.30,-1.29
450.42,-0.95,0.32,-0.96,0.31,-0.31,-0.34,-0.40,-1.27,-1.27,-1.27
454.93,-0.88,0.35,-0.88,0.36,-0.36,-0.37,-0.42,-1.24,-1.24,-1.23
459.48,-0.80,0.41,-0.80,0.41,-0.41,-0.39,-0.44,-1.21,-1.21,-1.21
464.07,-0.72,0.46,-0.72,0.46,-0.46,-0.42,-0.45,-1.18,-1.18,-1.18
468.71,-0.64,0.51,-0.64,0.51,-0.51,-0.45,-0.47,-1.15,-1.15,-1.15
473.40,-0.56,0.56,-0.56,0.56,-0.57,-0.48,-0.48,-1.13,-1.13,-1.12
478.13,-0.48,0.61,-0.48,0.62,-0.62,-0.51,-0.49,-1.10,-1.10,-1.09
