frequency,raw,error,smoothed,error_smoothed,equalization,parametric_eq,fixed_band_eq,equalized_raw,equalized_smoothed,target
20.00,1.78,-0.68,1.78,-0.67,0.67,-0.41,-0.64,2.45,2.45,2.46
20.20,1.82,-0.61,1.82,-0.61,0.61,-0.43,-0.66,2.43,2.43,2.43
20.40,1.86,-0.55,1.86,-0.55,0.55,-0.46,-0.68,2.41,2.41,2.41
20.61,1.90,-0.49,1.90,-0.49,0.49,-0.48,-0.70,2.39,2.39,2.39
20.81,1.94,-0.43,1.94,-0.43,0.43,-0.51,-0.72,2.37,2.37,2.37
21.02,1.98,-0.37,1.98,-0.36,0.36,-0.54,-0.74,2.34,2.35,2.35
21.23,2.03,-0.30,2.03,-0.30,0.30,-0.56,-0.76,2.33,2.33,2.33
21.44,2.07,-0.24,2.07,-0.24,0.24,-0.59,-0.78,2.31,2.31,2.31
21.66,2.12,-0.17,2.12,-0.17,0.17,-0.61,-0.80,2.29,2.29,2.29
21.87,2.16,-0.12,2.16,-0.11,0.11,-0.64,-0.82,2.27,2.27,2.28
22.09,2.21,-0.05,2.21,-0.05,0.04,-0.67,-0.85,2.25,2.25,2.26
22.31,2.26,0.01,2.26,0.02,-0.02,-0.69,-0.87,2.24,2.24,2.25
22.54,2.32,0.08,2.32,0.09,-0.09,-0.72,-0.89,2.23,2.24,2.24
22.76,2.38,0.15,2.38,0.15,-0.15,-0.75,-0.92,2.23,2.23,2.23
22.99,2.44,0.22,2.43,0.22,-0.21,-0.78,-0.94,2.23,2.23,2.22
23.22,2.48,0.27,2.48,0.27,-0.27,-0.80,-0.97,2.21,2.21,2.21
23.45,2.52,0.32,2.52,0.32,-0.33,-0.83,-1.00,2.19,2.20,2.20
23.69,2.56,0.37,2.56,0.37,-0.38,-0.86,-1.02,2.18,2.18,2.19
23.92,2.61,0.42,2.61,0.43,-0.43,-0.89,-1.05,2.18,2.18,2.19
24.16,2.66,0.48,2.66,0.48,-0.48,-0.91,-1.08,2.18,2.18,2.18
24.40,2.72,0.54,2.71,0.54,-0.53,-0.94,-1.11,2.19,2.18,2.18
24.65,2.76,0.59,2.76,0.59,-0.59,-0.97,-1.14,2.17,2.17,2.17
24.89,2.80,0.63,2.80,0.64,-0.64,-1.00,-1.17,2.16,2.16,2.17
25.14,2.84,0.68,2.84,0.68,-0.69,-1.02,-1.20,2.15,2.15,2.16
25.39,2.88,0.73,2.89,0.74,-0.74,-1.05,-1.23,2.14,2.14,2.15
25.65,2.94,0.79,2.94,0.80,-0.80,-1.08,-1.26,2.14,2.14,2.15
25.91,3.00,0.86,3.00,0.86,-0.85,-1.11,-1.29,2.15,2.15,2.14
26.16,3.05,0.91,3.05,0.91,-0.90,-1.14,-1.32,2.15,2.14,2.14
26.43,3.10,0.96,3.10,0.96,-0.96,-1.17,-1.35,2.14,2.13,2.14
26.69,3.14,1.01,3.15,1.02,-1.02,-1.19,-1.38,2.12,2.12,2.13
26.96,3.20,1.07,3.20,1.07,-1.09,-1.22,-1.41,2.11,2.11,2.13
27.23,3.26,1.14,3.26,1.14,-1.15,-1.25,-1.44,2.11,2.11,2.12
27.50,3.32,1.20,3.32,1.21,-1.21,-1.28,-1.47,2.11,2.11,2.12
27.77,3.39,1.27,3.39,1.28,-1.27,-1.31,-1.50,2.12,2.11,2.12
28.05,3.45,1.34,3.45,1.34,-1.33,-1.34,-1.53,2.12,2.12,2.11
28.33,3.51,1.40,3.51,1.40,-1.39,-1.37,-1.56,2.12,2.12,2.11
28.62,3.56,1.45,3.55,1.45,-1.44,-1.39,-1.59,2.12,2.11,2.11
28.90,3.59,1.49,3.59,1.49,-1.49,-1.42,-1.62,2.10,2.10,2.10
29.19,3.63,1.53,3.63,1.53,-1.54,-1.45,-1.64,2.09,2.09,2.10
29.48,3.67,1.57,3.67,1.57,-1.58,-1.48,-1.67,2.09,2.09,2.10
29.78,3.71,1.61,3.71,1.61,-1.62,-1.51,-1.69,2.09,2.09,2.10
30.08,3.75,1.65,3.75,1.65,-1.66,-1.54,-1.72,2.09,2.09,2.10
30.38,3.78,1.69,3.78,1.69,-1.69,-1.57,-1.74,2.08,2.09,2.09
30.68,3.82,1.73,3.82,1.73,-1.73,-1.60,-1.76,2.09,2.08,2.09
30.99,3.85,1.76,3.85,1.77,-1.77,-1.63,-1.78,2.08,2.08,2.09
31.30,3.89,1.80,3.89,1.81,-1.81,-1.66,-1.80,2.08,2.08,2.09
31.61,3.93,1.85,3.93,1.85,-1.84,-1.69,-1.82,2.09,2.09,2.08
31.93,3.96,1.88,3.96,1.88,-1.87,-1.72,-1.83,2.09,2.09,2.08
32.24,3.98,1.90,3.98,1.91,-1.90,-1.75,-1.85,2.08,2.08,2.08
32.57,4.00,1.93,4.00,1.93,-1.93,-1.78,-1.86,2.07,2.07,2.07
32.89,4.01,1.94,4.01,1.95,-1.95,-1.81,-1.88,2.06,2.06,2.07
33.22,4.03,1.96,4.03,1.97,-1.98,-1.84,-1.89,2.05,2.05,2.07
33.55,4.06,2.00,4.05,1.99,-2.00,-1.87,-1.90,2.06,2.05,2.06
33.89,4.08,2.02,4.08,2.03,-2.03,-1.90,-1.91,2.05,2.05,2.06
34.23,4.11,2.05,4.11,2.06,-2.06,-1.93,-1.92,2.05,2.05,2.06
34.57,4.14,2.09,4.14,2.09,-2.09,-1.96,-1.93,2.05,2.05,2.05
34.92,4.17,2.12,4.17,2.12,-2.11,-1.99,-1.94,2.05,2.05,2.05
35.27,4.19,2.14,4.19,2.15,-2.14,-2.02,-1.95,2.05,2.05,2.05
35.62,4.21,2.17,4.21,2.17,-2.17,-2.06,-1.96,2.04,2.04,2.04
35.97,4.23,2.19,4.23,2.20,-2.19,-2.09,-1.97,2.04,2.04,2.04
36.33,4.26,2.22,4.26,2.22,-2.22,-2.12,-1.98,2.04,2.04,2.04
36.70,4.28,2.24,4.28,2.24,-2.25,-2.15,-1.99,2.03,2.03,2.04
37.06,4.30,2.26,4.30,2.27,-2.27,-2.19,-2.00,2.03,2.03,2.04
37.43,4.33,2.30,4.33,2.30,-2.30,-2.22,-2.01,2.03,2.02,2.03
37.81,4.36,2.33,4.36,2.33,-2.34,-2.25,-2.02,2.02,2.02,2.03
38.19,4.39,2.36,4.39,2.37,-2.37,-2.28,-2.04,2.02,2.02,2.03
38.57,4.43,2.41,4.43,2.41,-2.41,-2.32,-2.05,2.02,2.02,2.02
38.95,4.46,2.44,4.46,2.45,-2.45,-2.35,-2.07,2.01,2.02,2.02
39.34,4.50,2.49,4.50,2.49,-2.48,-2.38,-2.08,2.02,2.01,2.01
39.74,4.53,2.52,4.53,2.53,-2.52,-2.42,-2.10,2.01,2.01,2.01
40.14,4.56,2.56,4.56,2.56,-2.55,-2.45,-2.12,2.01,2.00,2.00
40.54,4.58,2.58,4.58,2.58,-2.58,-2.49,-2.14,1.99,1.99,2.00
40.94,4.60,2.60,4.60,2.61,-2.61,-2.52,-2.16,1.99,1.99,2.00
41.35,4.63,2.63,4.63,2.63,-2.64,-2.55,-2.19,1.99,1.99,2.00
41.76,4.66,2.66,4.66,2.66,-2.67,-2.58,-2.21,1.99,1.99,2.00
42.18,4.69,2.69,4.69,2.69,-2.69,-2.62,-2.24,2.00,2.00,2.00
42.60,4.71,2.71,4.71,2.71,-2.71,-2.65,-2.27,2.00,2.00,2.00
43.03,4.73,2.72,4.73,2.73,-2.72,-2.68,-2.30,2.01,2.01,2.01
43.46,4.75,2.74,4.75,2.74,-2.74,-2.71,-2.33,2.01,2.01,2.01
43.90,4.76,2.75,4.76,2.75,-2.75,-2.74,-2.37,2.01,2.01,2.01
44.33,4.76,2.75,4.76,2.76,-2.76,-2.76,-2.40,2.00,2.01,2.01
44.78,4.77,2.76,4.77,2.76,-2.76,-2.79,-2.44,2.01,2.01,2.01
45.23,4.78,2.77,4.77,2.77,-2.77,-2.81,-2.48,2.01,2.00,2.01
45.68,4.78,2.77,4.79,2.78,-2.78,-2.84,-2.52,2.00,2.00,2.01
46.13,4.80,2.79,4.80,2.79,-2.80,-2.86,-2.57,2.00,2.00,2.01
46.60,4.82,2.81,4.82,2.81,-2.82,-2.88,-2.61,2.00,2.00,2.01
47.06,4.84,2.83,4.84,2.84,-2.84,-2.90,-2.66,2.00,2.00,2.01
47.53,4.87,2.87,4.87,2.87,-2.87,-2.91,-2.71,2.00,2.00,2.00
48.01,4.90,2.90,4.90,2.90,-2.90,-2.93,-2.76,2.00,2.00,2.00
48.49,4.93,2.93,4.93,2.94,-2.94,-2.94,-2.81,1.99,2.00,2.00
48.97,4.97,2.97,4.97,2.97,-2.97,-2.95,-2.86,2.00,2.00,2.00
49.46,5.00,3.00,5.00,3.00,-3.00,-2.96,-2.91,2.00,2.00,2.00
49.96,5.02,3.02,5.02,3.03,-3.03,-2.97,-2.97,1.99,2.00,2.00
50.46,5.05,3.05,5.05,3.05,-3.05,-2.98,-3.03,2.00,2.00,2.00
50.96,5.07,3.07,5.07,3.07,-3.07,-2.99,-3.08,2.00,2.00,2.00
51.47,5.09,3.08,5.09,3.09,-3.08,-3.00,-3.14,2.01,2.01,2.01
51.99,5.10,3.09,5.10,3.10,-3.09,-3.01,-3.20,2.01,2.01,2.01
52.51,5.11,3.10,5.10,3.10,-3.09,-3.01,-3.26,2.02,2.02,2.01
53.03,5.10,3.09,5.10,3.09,-3.08,-3.02,-3.31,2.02,2.02,2.01
53.56,5.09,3.08,5.09,3.08,-3.08,-3.03,-3.37,2.01,2.01,2.01
54.10,5.08,3.06,5.08,3.07,-3.07,-3.03,-3.43,2.01,2.01,2.02
54.64,5.07,3.05,5.07,3.06,-3.07,-3.04,-3.48,2.00,2.00,2.02
55.18,5.07,3.05,5.07,3.05,-3.07,-3.05,-3.54,2.00,2.01,2.02
55.74,5.08,3.06,5.08,3.06,-3.07,-3.05,-3.59,2.01,2.01,2.02
56.29,5.10,3.07,5.10,3.08,-3.08,-3.06,-3.64,2.02,2.02,2.03
56.86,5.12,3.09,5.12,3.09,-3.09,-3.07,-3.69,2.03,2.03,2.03
57.42,5.14,3.11,5.14,3.11,-3.11,-3.08,-3.73,2.03,2.03,2.03
58.00,5.17,3.13,5.17,3.14,-3.13,-3.08,-3.77,2.03,2.03,2.04
58.58,5.20,3.16,5.20,3.16,-3.16,-3.09,-3.81,2.04,2.04,2.04
59.16,5.23,3.19,5.23,3.19,-3.19,-3.10,-3.85,2.04,2.04,2.04
59.76,5.26,3.21,5.26,3.22,-3.22,-3.11,-3.88,2.04,2.04,2.05
60.35,5.29,3.24,5.29,3.24,-3.25,-3.12,-3.91,2.04,2.04,2.05
60.96,5.32,3.27,5.32,3.27,-3.28,-3.13,-3.93,2.04,2.04,2.05
61.57,5.35,3.30,5.35,3.30,-3.30,-3.14,-3.95,2.04,2.05,2.05
62.18,5.38,3.33,5.38,3.33,-3.33,-3.15,-3.96,2.05,2.05,2.05
62.80,5.40,3.35,5.40,3.35,-3.35,-3.16,-3.97,2.05,2.05,2.05
63.43,5.42,3.37,5.42,3.37,-3.37,-3.16,-3.97,2.05,2.05,2.05
64.07,5.43,3.38,5.43,3.39,-3.38,-3.17,-3.97,2.05,2.05,2.05
64.71,5.44,3.39,5.44,3.39,-3.38,-3.18,-3.97,2.06,2.05,2.05
65.35,5.44,3.39,5.44,3.39,-3.39,-3.19,-3.96,2.05,2.05,2.05
66.01,5.43,3.38,5.43,3.38,-3.38,-3.21,-3.95,2.05,2.05,2.05
66.67,5.42,3.37,5.42,3.37,-3.38,-3.22,-3.93,2.04,2.04,2.05
67.33,5.41,3.36,5.41,3.37,-3.38,-3.23,-3.91,2.03,2.04,2.05
68.01,5.41,3.36,5.41,3.36,-3.37,-3.24,-3.89,2.04,2.04,2.05
68.69,5.41,3.36,5.41,3.36,-3.37,-3.25,-3.86,2.04,2.04,2.05
69.37,5.41,3.36,5.41,3.36,-3.36,-3.26,-3.84,2.05,2.05,2.05
70.07,5.41,3.36,5.41,3.36,-3.36,-3.27,-3.80,2.05,2.05,2.05
70.77,5.41,3.36,5.41,3.36,-3.36,-3.28,-3.77,2.05,2.05,2.05
71.48,5.41,3.35,5.41,3.36,-3.36,-3.29,-3.74,2.05,2.05,2.06
72.19,5.41,3.35,5.41,3.35,-3.36,-3.30,-3.70,2.05,2.05,2.06
72.91,5.41,3.35,5.41,3.35,-3.35,-3.31,-3.67,2.06,2.06,2.06
73.64,5.41,3.35,5.41,3.35,-3.35,-3.32,-3.63,2.06,2.06,2.06
74.38,5.41,3.34,5.41,3.35,-3.35,-3.33,-3.59,2.06,2.06,2.07
75.12,5.41,3.34,5.41,3.34,-3.34,-3.35,-3.56,2.07,2.07,2.07
75.87,5.41,3.33,5.41,3.34,-3.34,-3.36,-3.52,2.07,2.07,2.08
76.63,5.41,3.33,5.41,3.33,-3.33,-3.37,-3.49,2.08,2.08,2.08
77.40,5.41,3.33,5.41,3.33,-3.33,-3.38,-3.45,2.08,2.08,2.08
78.17,5.41,3.32,5.41,3.33,-3.33,-3.39,-3.42,2.08,2.08,2.09
78.95,5.41,3.32,5.41,3.32,-3.32,-3.40,-3.39,2.09,2.09,2.09
79.74,5.41,3.32,5.41,3.32,-3.32,-3.41,-3.36,2.09,2.09,2.09
80.54,5.41,3.31,5.41,3.32,-3.32,-3.42,-3.33,2.09,2.09,2.10
81.35,5.41,3.31,5.41,3.31,-3.32,-3.43,-3.30,2.09,2.09,2.10
82.16,5.41,3.31,5.41,3.31,-3.31,-3.45,-3.28,2.10,2.10,2.10
82.98,5.41,3.31,5.41,3.31,-3.31,-3.46,-3.25,2.10,2.10,2.10
83.81,5.41,3.31,5.41,3.31,-3.31,-3.47,-3.23,2.10,2.10,2.10
84.65,5.41,3.30,5.41,3.31,-3.31,-3.48,-3.21,2.10,2.10,2.11
85.50,5.41,3.30,5.41,3.30,-3.31,-3.49,-3.20,2.10,2.10,2.11
86.35,5.41,3.30,5.41,3.30,-3.31,-3.50,-3.19,2.10,2.10,2.11
87.22,5.41,3.30,5.41,3.30,-3.30,-3.51,-3.17,2.11,2.11,2.11
88.09,5.41,3.30,5.41,3.30,-3.30,-3.52,-3.17,2.11,2.11,2.11
88.97,5.41,3.30,5.41,3.30,-3.30,-3.53,-3.16,2.11,2.11,2.11
89.86,5.41,3.30,5.41,3.30,-3.29,-3.54,-3.16,2.11,2.11,2.11
90.76,5.40,3.29,5.40,3.30,-3.29,-3.55,-3.15,2.11,2.11,2.11
91.66,5.40,3.29,5.40,3.29,-3.29,-3.56,-3.15,2.11,2.11,2.11
92.58,5.39,3.28,5.39,3.29,-3.29,-3.57,-3.16,2.10,2.10,2.11
93.51,5.39,3.28,5.39,3.29,-3.29,-3.58,-3.16,2.10,2.10,2.11
94.44,5.40,3.29,5.40,3.29,-3.30,-3.59,-3.17,2.10,2.10,2.11
95.39,5.41,3.30,5.41,3.31,-3.31,-3.60,-3.18,2.10,2.10,2.11
96.34,5.43,3.32,5.43,3.32,-3.32,-3.61,-3.19,2.11,2.11,2.11
97.30,5.46,3.34,5.45,3.34,-3.34,-3.62,-3.21,2.12,2.11,2.12
98.28,5.48,3.36,5.48,3.37,-3.37,-3.63,-3.22,2.11,2.11,2.12
99.26,5.51,3.39,5.51,3.39,-3.39,-3.64,-3.24,2.11,2.12,2.12
100.25,5.54,3.42,5.54,3.42,-3.42,-3.65,-3.26,2.12,2.12,2.12
101.25,5.57,3.45,5.57,3.45,-3.45,-3.65,-3.28,2.12,2.12,2.12
102.27,5.60,3.48,5.60,3.48,-3.48,-3.66,-3.30,2.12,2.12,2.12
103.29,5.63,3.51,5.63,3.51,-3.51,-3.67,-3.33,2.12,2.12,2.12
104.32,5.66,3.53,5.66,3.54,-3.54,-3.68,-3.35,2.12,2.12,2.13
105.37,5.69,3.56,5.69,3.56,-3.56,-3.68,-3.38,2.13,2.13,2.13
106.42,5.71,3.58,5.71,3.58,-3.58,-3.69,-3.40,2.13,2.13,2.13
107.48,5.73,3.59,5.73,3.60,-3.60,-3.70,-3.43,2.13,2.13,2.14
108.56,5.75,3.61,5.75,3.61,-3.61,-3.70,-3.45,2.14,2.14,2.14
109.64,5.76,3.62,5.76,3.62,-3.61,-3.71,-3.48,2.15,2.14,2.14
110.74,5.76,3.62,5.76,3.62,-3.62,-3.71,-3.50,2.14,2.15,2.14
111.85,5.76,3.62,5.76,3.62,-3.61,-3.72,-3.53,2.15,2.14,2.14
112.97,5.75,3.60,5.75,3.61,-3.61,-3.72,-3.55,2.14,2.14,2.15
114.10,5.74,3.59,5.74,3.60,-3.60,-3.73,-3.57,2.14,2.14,2.15
115.24,5.74,3.59,5.74,3.59,-3.60,-3.73,-3.59,2.14,2.14,2.15
116.39,5.74,3.59,5.74,3.59,-3.59,-3.73,-3.60,2.15,2.14,2.15
117.55,5.74,3.58,5.74,3.59,-3.59,-3.74,-3.62,2.15,2.15,2.16
118.73,5.74,3.58,5.74,3.58,-3.59,-3.74,-3.63,2.15,2.15,2.16
119.92,5.74,3.58,5.74,3.59,-3.59,-3.74,-3.64,2.15,2.15,2.16
121.12,5.75,3.59,5.75,3.59,-3.59,-3.74,-3.65,2.16,2.16,2.16
122.33,5.76,3.59,5.76,3.59,-3.59,-3.74,-3.65,2.17,2.17,2.17
123.55,5.76,3.59,5.76,3.59,-3.59,-3.75,-3.65,2.17,2.18,2.17
124.79,5.76,3.58,5.76,3.58,-3.58,-3.74,-3.64,2.18,2.18,2.18
126.03,5.75,3.57,5.75,3.57,-3.57,-3.74,-3.64,2.18,2.18,2.18
127.29,5.73,3.54,5.73,3.55,-3.55,-3.74,-3.63,2.18,2.18,2.19
128.57,5.72,3.53,5.71,3.53,-3.53,-3.74,-3.61,2.19,2.19,2.19
129.85,5.69,3.50,5.69,3.51,-3.50,-3.74,-3.60,2.19,2.19,2.19
131.15,5.67,3.48,5.67,3.48,-3.48,-3.74,-3.58,2.19,2.19,2.19
132.46,5.64,3.44,5.64,3.45,-3.44,-3.74,-3.55,2.20,2.19,2.20
133.79,5.61,3.41,5.61,3.41,-3.41,-3.73,-3.53,2.20,2.19,2.20
135.12,5.57,3.37,5.57,3.38,-3.38,-3.73,-3.50,2.19,2.19,2.20
136.48,5.54,3.34,5.54,3.34,-3.35,-3.72,-3.47,2.19,2.19,2.20
137.84,5.51,3.31,5.51,3.31,-3.31,-3.72,-3.44,2.20,2.20,2.20
139.22,5.48,3.28,5.48,3.29,-3.28,-3.71,-3.41,2.20,2.20,2.20
140.61,5.46,3.26,5.45,3.26,-3.25,-3.71,-3.37,2.21,2.20,2.20
142.02,5.43,3.22,5.43,3.23,-3.23,-3.70,-3.33,2.20,2.20,2.21
143.44,5.41,3.20,5.41,3.21,-3.21,-3.69,-3.30,2.20,2.20,2.21
144.87,5.40,3.19,5.40,3.19,-3.20,-3.69,-3.26,2.20,2.20,2.21
146.32,5.39,3.17,5.39,3.18,-3.19,-3.68,-3.22,2.20,2.21,2.22
147.78,5.39,3.17,5.39,3.18,-3.18,-3.67,-3.18,2.21,2.21,2.22
149.26,5.40,3.18,5.40,3.18,-3.18,-3.66,-3.14,2.22,2.22,2.22
150.75,5.40,3.17,5.40,3.18,-3.17,-3.65,-3.11,2.23,2.23,2.23
152.26,5.41,3.18,5.41,3.18,-3.17,-3.64,-3.07,2.23,2.23,2.23
153.78,5.41,3.18,5.41,3.18,-3.18,-3.63,-3.03,2.23,2.23,2.23
155.32,5.41,3.17,5.41,3.18,-3.18,-3.62,-3.00,2.23,2.23,2.24
156.88,5.41,3.17,5.41,3.17,-3.18,-3.61,-2.96,2.23,2.23,2.24
158.44,5.41,3.17,5.41,3.17,-3.17,-3.60,-2.93,2.23,2.23,2.24
160.03,5.41,3.17,5.41,3.17,-3.17,-3.58,-2.90,2.24,2.24,2.24
161.63,5.41,3.17,5.41,3.17,-3.17,-3.57,-2.87,2.24,2.24,2.24
163.24,5.41,3.16,5.41,3.17,-3.17,-3.56,-2.84,2.24,2.24,2.25
164.88,5.41,3.16,5.41,3.16,-3.16,-3.54,-2.81,2.24,2.24,2.25
166.53,5.41,3.16,5.41,3.16,-3.16,-3.53,-2.79,2.25,2.25,2.25
168.19,5.41,3.16,5.41,3.16,-3.16,-3.51,-2.76,2.25,2.25,2.25
169.87,5.41,3.15,5.41,3.16,-3.16,-3.50,-2.74,2.25,2.25,2.26
171.57,5.41,3.15,5.41,3.15,-3.15,-3.48,-2.72,2.26,2.26,2.26
173.29,5.41,3.15,5.41,3.15,-3.15,-3.47,-2.71,2.26,2.26,2.26
175.02,5.41,3.15,5.41,3.15,-3.15,-3.45,-2.69,2.26,2.26,2.26
176.77,5.41,3.14,5.41,3.15,-3.15,-3.43,-2.68,2.26,2.26,2.27
178.54,5.41,3.14,5.41,3.14,-3.15,-3.42,-2.67,2.26,2.26,2.27
180.32,5.41,3.14,5.41,3.14,-3.14,-3.40,-2.66,2.26,2.26,2.27
182.13,5.41,3.14,5.41,3.14,-3.14,-3.38,-2.65,2.27,2.27,2.27
183.95,5.41,3.14,5.41,3.14,-3.14,-3.36,-2.65,2.27,2.27,2.27
185.79,5.41,3.14,5.41,3.14,-3.14,-3.34,-2.64,2.27,2.27,2.27
187.65,5.41,3.14,5.41,3.14,-3.14,-3.32,-2.64,2.27,2.27,2.27
189.52,5.41,3.14,5.41,3.14,-3.14,-3.30,-2.64,2.27,2.27,2.27
191.42,5.41,3.14,5.41,3.14,-3.14,-3.28,-2.65,2.27,2.27,2.27
193.33,5.41,3.14,5.41,3.14,-3.14,-3.26,-2.65,2.27,2.27,2.27
195.27,5.41,3.14,5.41,3.14,-3.14,-3.24,-2.66,2.27,2.27,2.27
197.22,5.41,3.14,5.41,3.14,-3.14,-3.22,-2.67,2.27,2.27,2.27
199.19,5.41,3.14,5.41,3.14,-3.14,-3.20,-2.67,2.27,2.27,2.27
201.18,5.41,3.13,5.41,3.14,-3.14,-3.18,-2.69,2.27,2.27,2.28
203.19,5.41,3.13,5.41,3.13,-3.14,-3.15,-2.70,2.27,2.27,2.28
205.23,5.41,3.12,5.41,3.13,-3.13,-3.13,-2.71,2.27,2.28,2.29
207.28,5.42,3.13,5.42,3.13,-3.14,-3.11,-2.72,2.28,2.28,2.29
209.35,5.42,3.13,5.42,3.13,-3.14,-3.09,-2.74,2.28,2.29,2.29
211.44,5.43,3.13,5.43,3.13,-3.14,-3.06,-2.75,2.29,2.29,2.30
213.56,5.43,3.13,5.43,3.14,-3.13,-3.04,-2.77,2.30,2.30,2.30
215.69,5.43,3.13,5.43,3.13,-3.13,-3.01,-2.78,2.30,2.30,2.30
217.85,5.43,3.13,5.43,3.13,-3.12,-2.99,-2.79,2.31,2.30,2.30
220.03,5.42,3.11,5.42,3.11,-3.11,-2.97,-2.81,2.31,2.31,2.31
222.23,5.40,3.09,5.40,3.10,-3.09,-2.94,-2.82,2.31,2.31,2.31
224.45,5.38,3.07,5.38,3.07,-3.07,-2.92,-2.83,2.31,2.31,2.31
226.70,5.36,3.05,5.36,3.05,-3.05,-2.89,-2.84,2.31,2.31,2.31
228.96,5.33,3.01,5.33,3.02,-3.02,-2.86,-2.85,2.31,2.31,2.32
231.25,5.30,2.98,5.30,2.98,-2.99,-2.84,-2.86,2.31,2.32,2.32
233.57,5.27,2.95,5.27,2.95,-2.95,-2.81,-2.87,2.32,2.32,2.32
235.90,5.24,2.91,5.24,2.92,-2.91,-2.79,-2.87,2.33,2.33,2.33
238.26,5.21,2.88,5.21,2.88,-2.88,-2.76,-2.87,2.33,2.33,2.33
240.64,5.18,2.84,5.18,2.84,-2.84,-2.73,-2.87,2.34,2.34,2.34
243.05,5.15,2.80,5.15,2.80,-2.81,-2.71,-2.86,2.34,2.34,2.35
245.48,5.12,2.76,5.12,2.77,-2.78,-2.68,-2.86,2.34,2.34,2.36
247.93,5.10,2.74,5.10,2.74,-2.75,-2.65,-2.85,2.35,2.35,2.36
250.41,5.09,2.72,5.09,2.72,-2.73,-2.63,-2.83,2.36,2.36,2.37
252.92,5.09,2.71,5.09,2.71,-2.72,-2.60,-2.82,2.37,2.37,2.38
255.45,5.09,2.70,5.09,2.70,-2.71,-2.57,-2.80,2.38,2.38,2.39
258.00,5.09,2.70,5.09,2.70,-2.70,-2.54,-2.78,2.39,2.39,2.39
260.58,5.09,2.69,5.09,2.70,-2.69,-2.52,-2.75,2.40,2.40,2.40
263.19,5.09,2.69,5.09,2.69,-2.68,-2.49,-2.73,2.41,2.41,2.40
265.82,5.08,2.68,5.08,2.68,-2.67,-2.46,-2.70,2.41,2.41,2.40
268.48,5.06,2.65,5.06,2.66,-2.65,-2.43,-2.67,2.41,2.41,2.41
271.16,5.03,2.62,5.03,2.63,-2.62,-2.40,-2.63,2.41,2.41,2.41
273.87,5.01,2.60,5.01,2.60,-2.59,-2.37,-2.59,2.42,2.41,2.41
276.61,4.98,2.56,4.98,2.56,-2.56,-2.35,-2.56,2.42,2.41,2.42
279.38,4.94,2.52,4.94,2.52,-2.53,-2.32,-2.52,2.41,2.42,2.42
282.17,4.91,2.48,4.91,2.49,-2.49,-2.29,-2.47,2.42,2.42,2.43
284.99,4.88,2.45,4.88,2.45,-2.46,-2.26,-2.43,2.42,2.42,2.43
287.84,4.85,2.42,4.85,2.43,-2.43,-2.23,-2.39,2.42,2.42,2.43
290.72,4.83,2.40,4.83,2.40,-2.41,-2.20,-2.34,2.42,2.42,2.43
293.63,4.81,2.38,4.81,2.38,-2.38,-2.17,-2.30,2.43,2.43,2.43
296.57,4.79,2.36,4.79,2.36,-2.36,-2.14,-2.25,2.43,2.43,2.43
299.53,4.78,2.34,4.78,2.34,-2.34,-2.12,-2.21,2.44,2.43,2.44
302.53,4.76,2.32,4.76,2.33,-2.33,-2.09,-2.16,2.43,2.43,2.44
305.55,4.75,2.31,4.75,2.31,-2.31,-2.06,-2.12,2.44,2.44,2.44
308.61,4.73,2.28,4.73,2.29,-2.29,-2.03,-2.07,2.44,2.44,2.45
311.69,4.72,2.27,4.72,2.27,-2.27,-2.00,-2.03,2.45,2.45,2.45
314.81,4.71,2.25,4.70,2.25,-2.24,-1.97,-1.98,2.47,2.46,2.46
317.96,4.68,2.22,4.68,2.22,-2.22,-1.94,-1.94,2.46,2.46,2.46
321.14,4.66,2.19,4.66,2.19,-2.19,-1.91,-1.90,2.47,2.46,2.47
324.35,4.62,2.15,4.62,2.16,-2.16,-1.88,-1.86,2.46,2.46,2.47
327.59,4.60,2.13,4.60,2.13,-2.13,-1.85,-1.81,2.47,2.47,2.47
330.87,4.57,2.09,4.57,2.10,-2.10,-1.82,-1.77,2.47,2.47,2.48
334.18,4.55,2.06,4.55,2.07,-2.07,-1.79,-1.74,2.48,2.48,2.49
337.52,4.53,2.04,4.53,2.04,-2.04,-1.76,-1.70,2.49,2.49,2.49
340.90,4.50,2.00,4.50,2.01,-2.00,-1.73,-1.66,2.50,2.50,2.50
344.30,4.47,1.97,4.47,1.98,-1.97,-1.70,-1.63,2.50,2.50,2.50
347.75,4.44,1.94,4.44,1.94,-1.94,-1.67,-1.59,2.50,2.50,2.50
351.23,4.41,1.91,4.41,1.91,-1.91,-1.64,-1.56,2.50,2.50,2.50
354.74,4.38,1.87,4.38,1.88,-1.88,-1.61,-1.53,2.50,2.50,2.51
358.28,4.35,1.84,4.35,1.85,-1.86,-1.58,-1.50,2.49,2.50,2.51
361.87,4.33,1.82,4.33,1.82,-1.83,-1.55,-1.47,2.50,2.50,2.51
365.49,4.31,1.80,4.31,1.80,-1.80,-1.52,-1.44,2.50,2.50,2.51
369.14,4.29,1.78,4.29,1.78,-1.78,-1.49,-1.42,2.51,2.51,2.51
372.83,4.27,1.76,4.27,1.76,-1.75,-1.46,-1.39,2.52,2.52,2.51
376.56,4.24,1.72,4.24,1.72,-1.71,-1.43,-1.37,2.52,2.52,2.52
380.33,4.20,1.68,4.20,1.69,-1.68,-1.40,-1.34,2.52,2.52,2.52
384.13,4.16,1.64,4.16,1.64,-1.64,-1.37,-1.32,2.52,2.52,2.52
387.97,4.12,1.60,4.12,1.60,-1.60,-1.34,-1.30,2.52,2.52,2.52
391.85,4.08,1.55,4.08,1.55,-1.56,-1.31,-1.28,2.52,2.51,2.53
395.77,4.04,1.51,4.04,1.51,-1.53,-1.28,-1.26,2.51,2.52,2.53
399.73,4.01,1.47,4.01,1.48,-1.49,-1.25,-1.24,2.52,2.52,2.54
403.72,3.99,1.45,3.99,1.45,-1.45,-1.22,-1.23,2.54,2.54,2.54
407.76,3.96,1.41,3.96,1.42,-1.41,-1.19,-1.21,2.55,2.55,2.55
411.84,3.94,1.39,3.94,1.39,-1.37,-1.16,-1.19,2.57,2.56,2.55
415.96,3.90,1.34,3.90,1.35,-1.33,-1.13,-1.18,2.57,2.57,2.56
420.12,3.86,1.30,3.86,1.30,-1.29,-1.10,-1.16,2.57,2.57,2.56
424.32,3.81,1.25,3.81,1.25,-1.25,-1.07,-1.14,2.56,2.56,2.56
428.56,3.76,1.19,3.76,1.20,-1.21,-1.04,-1.13,2.55,2.55,2.57
432.85,3.72,1.15,3.72,1.15,-1.17,-1.01,-1.11,2.55,2.55,2.57
437.18,3.68,1.11,3.68,1.11,-1.13,-0.98,-1.10,2.55,2.56,2.57
441.55,3.65,1.08,3.65,1.08,-1.09,-0.95,-1.08,2.56,2.56,2.57
445.96,3.62,1.05,3.62,1.05,-1.05,-0.92,-1.06,2.57,2.57,2.57
450.42,3.59,1.02,3.59,1.02,-1.02,-0.89,-1.05,2.57,2.57,2.57
454.93,3.56,0.99,3.56,0.99,-0.99,-0.86,-1.03,2.57,2.58,2.57
459.48,3.53,0.96,3.53,0.96,-0.95,-0.83,-1.01,2.58,2.57,2.57
464.07,3.49,0.92,3.49,0.92,-0.92,-0.80,-0.99,2.57,2.57,2.57
468.71,3.44,0.87,3.45,0.88,-0.88,-0.77,-0.97,2.56,2.56,2.57
473.40,3.41,0.84,3.41,0.84,-0.84,-0.74,-0.95,2.57,2.56,2.57
478.13,3.37,0.79,3.37,0.80,-0.81,-0.71,-0.93,2.56,2.57,2.58
482.91,3.34,0.76,3.34,0.76,-0.77,-0.67,-0.91,2.57,2.57,2.58
487.74,3.31,0.73,3.31,0.73,-0.73,-0.64,-0.88,2.58,2.58,2.58
492.62,3.27,0.69,3.27,0.69,-0.69,-0.61,-0.86,2.58,2.58,2.58
497.55,3.24,0.65,3.24,0.65,-0.65,-0.58,-0.83,2.59,2.59,2.59
502.52,3.20,0.61,3.20,0.61,-0.61,-0.55,-0.80,2.59,2.59,2.59
507.55,3.15,0.56,3.15,0.57,-0.57,-0.52,-0.77,2.58,2.59,2.59
512.62,3.11,0.52,3.11,0.52,-0.52,-0.48,-0.74,2.59,2.59,2.59
517.75,3.07,0.47,3.07,0.47,-0.47,-0.45,-0.71,2.60,2.59,2.60
522.93,3.02,0.42,3.02,0.43,-0.43,-0.42,-0.67,2.59,2.60,2.60
528.16,2.98,0.38,2.98,0.38,-0.38,-0.39,-0.64,2.60,2.59,2.60
533.44,2.93,0.33,2.93,0.33,-0.34,-0.35,-0.60,2.59,2.59,2.60
538.77,2.88,0.27,2.89,0.29,-0.29,-0.32,-0.56,2.59,2.60,2.61
544.16,2.85,0.24,2.85,0.24,-0.25,-0.29,-0.52,2.60,2.60,2.61
