frequency,raw,error,smoothed,error_smoothed,equalization,parametric_eq,fixed_band_eq,equalized_raw,equalized_smoothed,target
20.00,-7.63,-15.18,-7.63,-15.18,6.00,5.29,2.71,-1.63,-1.63,7.55
20.20,-7.54,-15.09,-7.54,-15.08,6.00,5.32,2.78,-1.54,-1.54,7.55
20.40,-7.46,-14.99,-7.46,-15.00,6.00,5.35,2.86,-1.46,-1.46,7.54
20.61,-7.39,-14.93,-7.39,-14.92,6.00,5.38,2.94,-1.39,-1.39,7.54
20.81,-7.32,-14.84,-7.32,-14.85,6.00,5.41,3.03,-1.32,-1.32,7.53
21.02,-7.27,-14.79,-7.27,-14.79,6.00,5.44,3.12,-1.27,-1.27,7.53
21.23,-7.22,-14.73,-7.22,-14.73,6.00,5.46,3.21,-1.22,-1.22,7.51
21.44,-7.17,-14.68,-7.17,-14.68,6.00,5.49,3.30,-1.17,-1.17,7.51
21.66,-7.11,-14.61,-7.11,-14.62,6.00,5.51,3.39,-1.11,-1.11,7.50
21.87,-7.05,-14.55,-7.05,-14.55,6.00,5.54,3.49,-1.05,-1.05,7.50
22.09,-6.99,-14.48,-6.99,-14.48,6.00,5.56,3.59,-0.99,-0.99,7.49
22.31,-6.92,-14.41,-6.92,-14.41,6.00,5.59,3.69,-0.92,-0.92,7.49
22.54,-6.84,-14.33,-6.84,-14.33,6.00,5.61,3.80,-0.84,-0.84,7.49
22.76,-6.76,-14.24,-6.76,-14.24,6.00,5.63,3.90,-0.76,-0.76,7.48
22.99,-6.68,-14.16,-6.68,-14.15,6.00,5.66,4.02,-0.68,-0.68,7.48
23.22,-6.59,-14.06,-6.59,-14.07,6.00,5.68,4.13,-0.59,-0.59,7.47
23.45,-6.51,-13.98,-6.51,-13.98,6.00,5.70,4.24,-0.51,-0.51,7.47
23.69,-6.42,-13.89,-6.42,-13.88,6.00,5.72,4.36,-0.42,-0.42,7.47
23.92,-6.33,-13.79,-6.33,-13.79,6.00,5.74,4.48,-0.33,-0.33,7.46
24.16,-6.24,-13.70,-6.24,-13.70,6.00,5.76,4.61,-0.24,-0.24,7.46
24.40,-6.15,-13.60,-6.15,-13.60,6.00,5.78,4.73,-0.15,-0.15,7.46
24.65,-6.06,-13.52,-6.06,-13.51,6.00,5.80,4.86,-0.06,-0.06,7.46
24.89,-5.96,-13.40,-5.96,-13.41,6.00,5.81,4.99,0.04,0.04,7.45
25.14,-5.87,-13.31,-5.86,-13.31,6.00,5.83,5.12,0.13,0.14,7.45
25.39,-5.77,-13.21,-5.77,-13.21,6.00,5.84,5.25,0.23,0.23,7.44
25.65,-5.66,-13.10,-5.66,-13.11,6.00,5.86,5.38,0.34,0.34,7.44
25.91,-5.56,-13.00,-5.55,-13.00,6.00,5.87,5.51,0.44,0.45,7.44
26.16,-5.44,-12.88,-5.44,-12.88,6.00,5.89,5.65,0.56,0.56,7.44
26.43,-5.33,-12.77,-5.33,-12.77,6.00,5.90,5.78,0.67,0.67,7.44
26.69,-5.22,-12.65,-5.22,-12.65,6.00,5.91,5.91,0.78,0.78,7.43
26.96,-5.11,-12.54,-5.11,-12.54,6.00,5.92,6.04,0.89,0.89,7.43
27.23,-5.02,-12.45,-5.02,-12.45,6.00,5.93,6.17,0.98,0.98,7.43
27.50,-4.94,-12.37,-4.94,-12.36,6.00,5.94,6.29,1.06,1.06,7.43
27.77,-4.87,-12.29,-4.87,-12.29,6.00,5.95,6.41,1.13,1.13,7.43
28.05,-4.81,-12.22,-4.81,-12.23,6.00,5.96,6.53,1.19,1.19,7.41
28.33,-4.77,-12.18,-4.77,-12.18,6.00,5.96,6.64,1.23,1.23,7.41
28.62,-4.73,-12.14,-4.73,-12.13,6.00,5.97,6.75,1.27,1.27,7.41
28.90,-4.69,-12.09,-4.69,-12.09,6.00,5.97,6.85,1.31,1.31,7.40
29.19,-4.64,-12.04,-4.64,-12.04,6.00,5.98,6.94,1.36,1.36,7.40
29.48,-4.60,-12.00,-4.59,-11.98,6.00,5.98,7.03,1.40,1.41,7.40
29.78,-4.53,-11.92,-4.53,-11.92,6.00,5.98,7.11,1.47,1.47,7.39
30.08,-4.46,-11.84,-4.46,-11.84,6.00,5.98,7.18,1.54,1.54,7.38
30.38,-4.38,-11.76,-4.38,-11.76,6.00,5.98,7.23,1.62,1.62,7.38
30.68,-4.29,-11.67,-4.29,-11.67,6.00,5.98,7.28,1.71,1.71,7.38
30.99,-4.20,-11.58,-4.20,-11.58,6.00,5.98,7.32,1.80,1.80,7.38
31.30,-4.11,-11.49,-4.11,-11.49,6.00,5.98,7.35,1.89,1.89,7.38
31.61,-4.03,-11.41,-4.03,-11.41,6.00,5.98,7.37,1.97,1.97,7.39
31.93,-3.95,-11.33,-3.95,-11.33,6.00,5.97,7.37,2.05,2.05,7.38
32.24,-3.87,-11.25,-3.87,-11.25,6.00,5.97,7.37,2.13,2.13,7.38
32.57,-3.80,-11.18,-3.80,-11.18,6.00,5.97,7.36,2.20,2.20,7.38
32.89,-3.73,-11.10,-3.73,-11.11,6.00,5.97,7.34,2.27,2.27,7.38
33.22,-3.66,-11.03,-3.66,-11.04,6.00,5.96,7.31,2.34,2.34,7.37
33.55,-3.60,-10.97,-3.59,-10.96,6.00,5.96,7.27,2.40,2.41,7.37
33.89,-3.52,-10.89,-3.52,-10.89,6.00,5.96,7.22,2.48,2.48,7.37
34.23,-3.45,-10.81,-3.45,-10.81,6.00,5.96,7.17,2.55,2.55,7.36
34.57,-3.38,-10.73,-3.38,-10.73,6.00,5.95,7.12,2.62,2.62,7.35
34.92,-3.31,-10.65,-3.31,-10.65,6.00,5.95,7.05,2.69,2.69,7.34
35.27,-3.24,-10.57,-3.24,-10.57,6.00,5.95,6.99,2.76,2.76,7.33
35.62,-3.16,-10.47,-3.16,-10.48,6.00,5.96,6.92,2.84,2.84,7.31
35.97,-3.09,-10.40,-3.09,-10.39,6.00,5.96,6.85,2.91,2.91,7.31
36.33,-3.01,-10.31,-3.01,-10.30,6.00,5.96,6.77,2.99,2.99,7.30
36.70,-2.93,-10.20,-2.93,-10.21,6.00,5.96,6.70,3.07,3.07,7.27
37.06,-2.85,-10.11,-2.85,-10.11,6.00,5.97,6.62,3.15,3.15,7.26
37.43,-2.77,-10.01,-2.77,-10.01,6.00,5.97,6.55,3.23,3.23,7.25
37.81,-2.68,-9.91,-2.68,-9.92,6.00,5.98,6.47,3.32,3.32,7.23
38.19,-2.61,-9.83,-2.60,-9.82,6.00,5.98,6.40,3.39,3.40,7.22
38.57,-2.52,-9.73,-2.52,-9.73,6.00,5.99,6.33,3.48,3.48,7.21
38.95,-2.44,-9.64,-2.44,-9.64,6.00,5.99,6.26,3.56,3.56,7.20
39.34,-2.37,-9.55,-2.36,-9.55,6.00,6.00,6.19,3.63,3.64,7.19
39.74,-2.29,-9.47,-2.29,-9.47,6.00,6.01,6.13,3.71,3.71,7.18
40.14,-2.21,-9.38,-2.22,-9.38,6.00,6.01,6.07,3.79,3.78,7.17
40.54,-2.15,-9.31,-2.14,-9.30,6.00,6.02,6.01,3.85,3.86,7.16
40.94,-2.07,-9.22,-2.07,-9.22,6.00,6.02,5.95,3.93,3.93,7.15
41.35,-2.00,-9.15,-2.00,-9.14,6.00,6.03,5.90,4.00,4.00,7.15
41.76,-1.92,-9.06,-1.92,-9.06,6.00,6.03,5.86,4.08,4.08,7.14
42.18,-1.85,-8.99,-1.85,-8.99,6.00,6.03,5.82,4.15,4.15,7.14
42.60,-1.79,-8.92,-1.78,-8.91,6.00,6.04,5.78,4.21,4.22,7.13
43.03,-1.72,-8.84,-1.72,-8.84,6.00,6.04,5.74,4.28,4.28,7.12
43.46,-1.65,-8.77,-1.65,-8.77,6.00,6.04,5.71,4.35,4.35,7.12
43.90,-1.58,-8.69,-1.58,-8.70,6.00,6.04,5.69,4.42,4.42,7.11
44.33,-1.52,-8.63,-1.51,-8.62,6.00,6.04,5.67,4.48,4.49,7.11
44.78,-1.45,-8.55,-1.45,-8.56,6.00,6.04,5.65,4.55,4.55,7.11
45.23,-1.38,-8.48,-1.38,-8.48,6.00,6.04,5.64,4.62,4.62,7.10
45.68,-1.32,-8.42,-1.31,-8.41,6.00,6.04,5.63,4.68,4.69,7.10
46.13,-1.24,-8.33,-1.24,-8.33,6.00,6.04,5.62,4.76,4.76,7.09
46.60,-1.18,-8.26,-1.18,-8.26,6.00,6.04,5.62,4.82,4.82,7.08
47.06,-1.11,-8.18,-1.11,-8.18,6.00,6.03,5.63,4.89,4.89,7.07
47.53,-1.05,-8.11,-1.05,-8.11,6.00,6.03,5.64,4.95,4.95,7.06
48.01,-0.98,-8.03,-0.98,-8.03,6.00,6.03,5.65,5.02,5.02,7.05
48.49,-0.91,-7.94,-0.91,-7.95,6.00,6.02,5.66,5.09,5.09,7.03
48.97,-0.84,-7.86,-0.84,-7.86,6.00,6.02,5.68,5.16,5.16,7.02
49.46,-0.77,-7.78,-0.77,-7.78,6.00,6.01,5.70,5.23,5.23,7.01
49.96,-0.70,-7.69,-0.70,-7.69,6.00,6.01,5.72,5.30,5.30,6.99
50.46,-0.64,-7.62,-0.64,-7.61,6.00,6.00,5.75,5.36,5.36,6.98
50.96,-0.57,-7.52,-0.57,-7.53,6.00,6.00,5.78,5.43,5.43,6.96
51.47,-0.51,-7.45,-0.51,-7.45,6.00,6.00,5.81,5.49,5.49,6.94
51.99,-0.44,-7.36,-0.44,-7.36,6.00,6.00,5.84,5.56,5.56,6.92
52.51,-0.37,-7.28,-0.37,-7.28,6.00,6.00,5.88,5.63,5.63,6.91
53.03,-0.31,-7.20,-0.31,-7.20,6.00,6.00,5.91,5.69,5.69,6.89
53.56,-0.25,-7.12,-0.25,-7.12,6.00,6.00,5.94,5.75,5.75,6.87
54.10,-0.18,-7.03,-0.18,-7.04,6.00,6.00,5.98,5.82,5.82,6.85
54.64,-0.13,-6.97,-0.12,-6.96,6.00,6.01,6.01,5.87,5.88,6.84
55.18,-0.06,-6.88,-0.06,-6.89,6.00,6.01,6.04,5.94,5.94,6.82
55.74,-0.01,-6.82,-0.00,-6.82,6.00,6.02,6.07,5.99,6.00,6.82
56.29,0.06,-6.74,0.06,-6.74,6.00,6.02,6.10,6.06,6.06,6.80
56.86,0.12,-6.66,0.12,-6.66,6.00,6.03,6.12,6.12,6.12,6.78
57.42,0.19,-6.57,0.19,-6.57,6.00,6.03,6.14,6.20,6.20,6.76
58.00,0.26,-6.48,0.26,-6.49,6.01,6.03,6.15,6.27,6.27,6.74
58.58,0.32,-6.40,0.32,-6.40,6.02,6.03,6.16,6.34,6.34,6.72
59.16,0.38,-6.32,0.39,-6.32,6.02,6.02,6.16,6.40,6.40,6.70
59.76,0.45,-6.23,0.45,-6.23,6.01,6.00,6.16,6.46,6.46,6.68
60.35,0.52,-6.14,0.52,-6.14,5.99,5.97,6.15,6.51,6.51,6.66
60.96,0.59,-6.04,0.59,-6.04,5.96,5.93,6.13,6.55,6.55,6.63
61.57,0.65,-5.95,0.65,-5.95,5.91,5.88,6.10,6.56,6.56,6.61
62.18,0.71,-5.87,0.71,-5.87,5.86,5.82,6.07,6.57,6.57,6.58
62.80,0.77,-5.78,0.77,-5.78,5.79,5.75,6.03,6.56,6.56,6.55
63.43,0.83,-5.69,0.83,-5.69,5.71,5.68,5.98,6.54,6.54,6.52
64.07,0.88,-5.61,0.88,-5.60,5.62,5.59,5.92,6.50,6.51,6.49
64.71,0.94,-5.52,0.94,-5.52,5.53,5.51,5.86,6.47,6.47,6.46
65.35,0.99,-5.44,0.99,-5.44,5.44,5.42,5.79,6.43,6.44,6.43
66.01,1.05,-5.35,1.05,-5.35,5.35,5.33,5.71,6.40,6.41,6.40
66.67,1.11,-5.26,1.11,-5.27,5.27,5.24,5.62,6.38,6.38,6.38
67.33,1.16,-5.18,1.16,-5.18,5.19,5.15,5.53,6.35,6.35,6.35
68.01,1.21,-5.10,1.21,-5.10,5.10,5.06,5.43,6.31,6.31,6.32
68.69,1.27,-5.01,1.27,-5.02,5.01,4.98,5.33,6.28,6.28,6.28
69.37,1.32,-4.93,1.32,-4.93,4.92,4.89,5.22,6.25,6.25,6.25
70.07,1.38,-4.84,1.38,-4.84,4.83,4.81,5.11,6.22,6.22,6.22
70.77,1.44,-4.74,1.44,-4.75,4.74,4.72,4.99,6.19,6.18,6.19
71.48,1.49,-4.65,1.49,-4.65,4.65,4.64,4.87,6.15,6.15,6.14
72.19,1.54,-4.56,1.55,-4.56,4.56,4.56,4.75,6.11,6.11,6.10
72.91,1.60,-4.47,1.60,-4.47,4.47,4.48,4.63,6.08,6.07,6.07
73.64,1.65,-4.38,1.65,-4.38,4.38,4.40,4.50,6.04,6.03,6.03
74.38,1.70,-4.30,1.70,-4.30,4.29,4.32,4.37,6.00,6.00,6.00
75.12,1.75,-4.21,1.76,-4.21,4.20,4.24,4.24,5.96,5.96,5.96
75.87,1.81,-4.11,1.81,-4.12,4.12,4.16,4.11,5.93,5.92,5.92
76.63,1.86,-4.02,1.86,-4.02,4.03,4.08,3.98,5.89,5.88,5.88
77.40,1.90,-3.94,1.91,-3.93,3.93,4.00,3.85,5.84,5.84,5.84
78.17,1.96,-3.84,1.96,-3.84,3.84,3.92,3.72,5.80,5.80,5.80
78.95,2.00,-3.75,2.00,-3.75,3.75,3.84,3.60,5.75,5.76,5.76
79.74,2.05,-3.66,2.05,-3.66,3.66,3.76,3.47,5.71,5.71,5.71
80.54,2.10,-3.57,2.10,-3.57,3.57,3.68,3.34,5.67,5.67,5.67
81.35,2.15,-3.48,2.15,-3.48,3.48,3.60,3.22,5.63,5.63,5.63
82.16,2.20,-3.38,2.20,-3.39,3.39,3.52,3.09,5.59,5.59,5.59
82.98,2.24,-3.30,2.25,-3.30,3.30,3.44,2.97,5.54,5.54,5.54
83.81,2.29,-3.21,2.29,-3.21,3.21,3.35,2.85,5.50,5.50,5.50
84.65,2.33,-3.12,2.33,-3.12,3.12,3.27,2.73,5.45,5.45,5.45
85.50,2.37,-3.03,2.37,-3.03,3.03,3.19,2.61,5.40,5.41,5.40
86.35,2.42,-2.94,2.42,-2.94,2.94,3.10,2.49,5.36,5.36,5.36
87.22,2.45,-2.86,2.46,-2.85,2.85,3.02,2.38,5.31,5.31,5.31
88.09,2.50,-2.76,2.50,-2.77,2.77,2.93,2.26,5.27,5.26,5.26
88.97,2.53,-2.69,2.54,-2.68,2.68,2.85,2.15,5.21,5.21,5.22
89.86,2.58,-2.58,2.58,-2.59,2.59,2.76,2.04,5.17,5.17,5.16
90.76,2.62,-2.50,2.62,-2.50,2.50,2.68,1.93,5.12,5.11,5.12
91.66,2.66,-2.41,2.66,-2.40,2.40,2.59,1.82,5.07,5.07,5.07
92.58,2.70,-2.31,2.71,-2.31,2.31,2.50,1.72,5.01,5.02,5.01
93.51,2.75,-2.22,2.75,-2.22,2.22,2.41,1.61,4.97,4.97,4.97
94.44,2.79,-2.12,2.79,-2.12,2.12,2.32,1.51,4.92,4.91,4.91
95.39,2.82,-2.03,2.83,-2.03,2.03,2.23,1.41,4.85,4.86,4.86
96.34,2.86,-1.94,2.86,-1.94,1.94,2.14,1.31,4.80,4.80,4.80
97.30,2.90,-1.84,2.90,-1.84,1.84,2.05,1.21,4.74,4.74,4.74
98.28,2.94,-1.75,2.94,-1.75,1.75,1.96,1.11,4.69,4.69,4.69
99.26,2.96,-1.66,2.97,-1.65,1.65,1.87,1.02,4.62,4.62,4.62
100.25,3.01,-1.55,3.00,-1.56,1.56,1.78,0.93,4.57,4.56,4.56
101.25,3.03,-1.47,3.04,-1.47,1.46,1.69,0.83,4.49,4.50,4.50
102.27,3.07,-1.37,3.07,-1.37,1.37,1.59,0.74,4.44,4.44,4.44
103.29,3.10,-1.28,3.10,-1.28,1.27,1.50,0.65,4.38,4.37,4.38
104.32,3.13,-1.18,3.14,-1.18,1.18,1.41,0.57,4.31,4.32,4.31
105.37,3.17,-1.08,3.17,-1.09,1.09,1.31,0.48,4.26,4.26,4.25
106.42,3.20,-0.99,3.20,-0.99,1.00,1.22,0.40,4.20,4.20,4.20
107.48,3.23,-0.91,3.23,-0.90,0.90,1.13,0.32,4.14,4.14,4.14
108.56,3.26,-0.81,3.26,-0.82,0.82,1.03,0.24,4.08,4.07,4.07
109.64,3.28,-0.73,3.28,-0.73,0.73,0.94,0.16,4.01,4.01,4.01
110.74,3.31,-0.64,3.31,-0.64,0.64,0.85,0.08,3.95,3.95,3.96
111.85,3.34,-0.55,3.34,-0.55,0.55,0.75,0.01,3.89,3.89,3.89
112.97,3.37,-0.46,3.37,-0.46,0.46,0.66,-0.06,3.83,3.83,3.83
114.10,3.39,-0.37,3.39,-0.37,0.37,0.56,-0.13,3.77,3.77,3.76
115.24,3.41,-0.30,3.42,-0.29,0.29,0.47,-0.20,3.70,3.70,3.71
116.39,3.44,-0.19,3.44,-0.20,0.20,0.38,-0.26,3.64,3.63,3.63
117.55,3.46,-0.11,3.46,-0.11,0.11,0.29,-0.32,3.57,3.57,3.57
118.73,3.48,-0.02,3.48,-0.02,0.02,0.20,-0.38,3.50,3.50,3.50
119.92,3.50,0.07,3.50,0.07,-0.08,0.10,-0.43,3.43,3.43,3.43
121.12,3.52,0.17,3.52,0.17,-0.17,0.01,-0.48,3.35,3.35,3.35
122.33,3.54,0.26,3.54,0.26,-0.26,-0.08,-0.53,3.28,3.28,3.28
123.55,3.56,0.36,3.56,0.36,-0.36,-0.16,-0.58,3.20,3.20,3.21
124.79,3.58,0.45,3.58,0.45,-0.45,-0.25,-0.62,3.13,3.13,3.13
126.03,3.60,0.55,3.60,0.55,-0.55,-0.34,-0.66,3.05,3.06,3.05
127.29,3.62,0.64,3.62,0.64,-0.64,-0.42,-0.70,2.99,2.98,2.98
128.57,3.64,0.73,3.64,0.73,-0.72,-0.51,-0.73,2.92,2.92,2.91
129.85,3.65,0.81,3.66,0.81,-0.81,-0.59,-0.76,2.85,2.85,2.84
131.15,3.67,0.89,3.67,0.89,-0.88,-0.67,-0.79,2.79,2.78,2.78
132.46,3.68,0.96,3.68,0.96,-0.96,-0.75,-0.82,2.72,2.72,2.72
133.79,3.69,1.03,3.69,1.02,-1.03,-0.83,-0.84,2.66,2.66,2.67
135.12,3.70,1.09,3.70,1.09,-1.09,-0.91,-0.86,2.61,2.61,2.61
136.48,3.71,1.15,3.72,1.16,-1.15,-0.98,-0.88,2.56,2.56,2.56
137.84,3.73,1.22,3.72,1.21,-1.21,-1.06,-0.90,2.52,2.51,2.51
139.22,3.73,1.27,3.73,1.27,-1.27,-1.13,-0.92,2.46,2.47,2.46
140.61,3.73,1.31,3.74,1.32,-1.32,-1.20,-0.93,2.41,2.42,2.42
142.02,3.75,1.37,3.74,1.37,-1.37,-1.27,-0.94,2.38,2.37,2.38
143.44,3.75,1.42,3.75,1.41,-1.42,-1.33,-0.96,2.34,2.33,2.34
144.87,3.75,1.46,3.76,1.46,-1.46,-1.39,-0.97,2.29,2.30,2.30
146.32,3.76,1.51,3.76,1.50,-1.50,-1.46,-0.98,2.26,2.26,2.26
147.78,3.77,1.55,3.77,1.54,-1.54,-1.51,-0.99,2.23,2.22,2.23
149.26,3.77,1.58,3.77,1.58,-1.58,-1.57,-1.00,2.19,2.19,2.19
150.75,3.76,1.61,3.77,1.62,-1.62,-1.62,-1.01,2.14,2.15,2.15
152.26,3.77,1.66,3.77,1.66,-1.66,-1.67,-1.02,2.11,2.11,2.11
153.78,3.77,1.69,3.77,1.69,-1.69,-1.72,-1.03,2.08,2.08,2.08
155.32,3.77,1.73,3.77,1.73,-1.73,-1.77,-1.03,2.05,2.04,2.04
156.88,3.76,1.75,3.77,1.76,-1.76,-1.81,-1.04,2.00,2.01,2.01
158.44,3.76,1.79,3.76,1.79,-1.79,-1.85,-1.05,1.97,1.97,1.98
160.03,3.77,1.83,3.76,1.82,-1.82,-1.89,-1.07,1.95,1.94,1.94
161.63,3.75,1.84,3.76,1.85,-1.85,-1.93,-1.08,1.91,1.91,1.91
163.24,3.75,1.87,3.75,1.87,-1.87,-1.96,-1.09,1.88,1.88,1.88
164.88,3.75,1.90,3.75,1.89,-1.89,-1.99,-1.10,1.86,1.85,1.85
166.53,3.74,1.91,3.74,1.92,-1.91,-2.02,-1.12,1.83,1.83,1.83
168.19,3.73,1.93,3.73,1.93,-1.93,-2.04,-1.13,1.80,1.80,1.80
169.87,3.72,1.95,3.72,1.94,-1.94,-2.06,-1.15,1.78,1.78,1.78
171.57,3.71,1.95,3.71,1.96,-1.96,-2.08,-1.16,1.75,1.75,1.76
173.29,3.70,1.97,3.70,1.97,-1.97,-2.10,-1.18,1.74,1.73,1.73
175.02,3.68,1.97,3.68,1.97,-1.97,-2.11,-1.20,1.71,1.71,1.71
176.77,3.67,1.98,3.67,1.98,-1.98,-2.13,-1.22,1.69,1.69,1.69
178.54,3.65,1.98,3.65,1.98,-1.98,-2.14,-1.24,1.67,1.67,1.67
180.32,3.64,1.99,3.63,1.98,-1.98,-2.14,-1.26,1.66,1.65,1.66
182.13,3.61,1.98,3.61,1.98,-1.98,-2.15,-1.29,1.63,1.63,1.63
183.95,3.59,1.98,3.60,1.98,-1.98,-2.15,-1.31,1.61,1.61,1.61
185.79,3.58,1.98,3.58,1.98,-1.98,-2.15,-1.33,1.60,1.60,1.60
187.65,3.56,1.98,3.56,1.98,-1.98,-2.15,-1.36,1.58,1.58,1.58
189.52,3.53,1.97,3.54,1.97,-1.97,-2.14,-1.39,1.56,1.57,1.56
191.42,3.51,1.96,3.51,1.96,-1.96,-2.14,-1.42,1.55,1.55,1.55
193.33,3.49,1.96,3.49,1.96,-1.96,-2.13,-1.45,1.54,1.53,1.53
195.27,3.46,1.95,3.46,1.95,-1.95,-2.12,-1.48,1.52,1.52,1.51
197.22,3.44,1.94,3.44,1.94,-1.93,-2.11,-1.51,1.51,1.50,1.50
199.19,3.40,1.91,3.41,1.92,-1.92,-2.10,-1.54,1.48,1.49,1.49
201.18,3.38,1.91,3.38,1.91,-1.91,-2.08,-1.57,1.47,1.47,1.47
203.19,3.35,1.89,3.35,1.89,-1.89,-2.07,-1.60,1.46,1.46,1.46
205.23,3.32,1.88,3.32,1.88,-1.88,-2.05,-1.63,1.44,1.44,1.44
207.28,3.29,1.86,3.29,1.86,-1.86,-2.03,-1.66,1.43,1.43,1.43
209.35,3.26,1.85,3.26,1.85,-1.85,-2.01,-1.70,1.42,1.42,1.41
211.44,3.23,1.83,3.23,1.83,-1.83,-1.99,-1.73,1.41,1.40,1.40
213.56,3.19,1.80,3.19,1.81,-1.80,-1.96,-1.76,1.39,1.39,1.39
215.69,3.15,1.78,3.16,1.78,-1.78,-1.94,-1.79,1.37,1.37,1.37
217.85,3.12,1.76,3.12,1.76,-1.76,-1.92,-1.82,1.37,1.36,1.36
220.03,3.08,1.73,3.08,1.73,-1.73,-1.89,-1.85,1.35,1.35,1.35
222.23,3.04,1.70,3.04,1.70,-1.70,-1.86,-1.87,1.34,1.34,1.34
224.45,2.99,1.66,2.99,1.67,-1.67,-1.84,-1.90,1.32,1.33,1.33
226.70,2.95,1.63,2.95,1.63,-1.64,-1.81,-1.92,1.31,1.32,1.32
228.96,2.91,1.60,2.91,1.60,-1.61,-1.78,-1.94,1.31,1.30,1.31
231.25,2.87,1.57,2.87,1.58,-1.57,-1.75,-1.96,1.30,1.30,1.30
233.57,2.82,1.54,2.82,1.54,-1.54,-1.72,-1.97,1.28,1.28,1.28
235.90,2.78,1.51,2.78,1.51,-1.51,-1.69,-1.98,1.27,1.27,1.27
238.26,2.73,1.47,2.73,1.48,-1.48,-1.66,-1.99,1.25,1.25,1.26
240.64,2.69,1.45,2.69,1.45,-1.45,-1.63,-2.00,1.24,1.24,1.24
243.05,2.66,1.43,2.66,1.42,-1.42,-1.59,-2.00,1.24,1.23,1.23
245.48,2.62,1.40,2.62,1.40,-1.40,-1.56,-2.00,1.22,1.22,1.22
247.93,2.59,1.38,2.59,1.38,-1.38,-1.53,-2.00,1.21,1.21,1.22
250.41,2.57,1.36,2.57,1.36,-1.36,-1.49,-1.99,1.21,1.20,1.21
252.92,2.54,1.35,2.54,1.35,-1.35,-1.46,-1.98,1.19,1.19,1.19
255.45,2.52,1.34,2.52,1.34,-1.34,-1.43,-1.96,1.18,1.18,1.18
258.00,2.51,1.33,2.51,1.34,-1.34,-1.39,-1.94,1.17,1.17,1.18
260.58,2.50,1.34,2.50,1.34,-1.34,-1.36,-1.92,1.17,1.16,1.16
263.19,2.49,1.34,2.49,1.34,-1.34,-1.33,-1.89,1.15,1.15,1.16
265.82,2.48,1.34,2.48,1.34,-1.34,-1.29,-1.86,1.14,1.14,1.14
268.48,2.47,1.34,2.47,1.34,-1.34,-1.26,-1.83,1.13,1.13,1.13
271.16,2.47,1.35,2.47,1.35,-1.35,-1.22,-1.79,1.13,1.12,1.12
273.87,2.46,1.35,2.46,1.35,-1.35,-1.19,-1.75,1.11,1.11,1.11
276.61,2.45,1.35,2.45,1.35,-1.35,-1.15,-1.71,1.10,1.10,1.10
279.38,2.43,1.34,2.44,1.35,-1.35,-1.12,-1.67,1.09,1.09,1.09
282.17,2.42,1.34,2.42,1.34,-1.34,-1.08,-1.62,1.08,1.08,1.08
284.99,2.40,1.34,2.40,1.33,-1.33,-1.05,-1.58,1.07,1.06,1.06
287.84,2.37,1.32,2.38,1.33,-1.32,-1.01,-1.53,1.05,1.05,1.05
290.72,2.35,1.32,2.35,1.31,-1.31,-0.98,-1.47,1.04,1.04,1.04
293.63,2.32,1.29,2.32,1.29,-1.29,-0.95,-1.42,1.03,1.03,1.03
296.57,2.29,1.27,2.29,1.27,-1.27,-0.91,-1.37,1.02,1.02,1.02
299.53,2.26,1.26,2.26,1.25,-1.25,-0.88,-1.31,1.01,1.01,1.00
302.53,2.22,1.22,2.22,1.23,-1.23,-0.84,-1.26,1.00,1.00,1.00
305.55,2.19,1.20,2.19,1.20,-1.20,-0.81,-1.20,0.99,0.99,0.99
308.61,2.14,1.16,2.15,1.16,-1.17,-0.77,-1.14,0.97,0.98,0.98
311.69,2.11,1.13,2.11,1.13,-1.14,-0.74,-1.09,0.98,0.97,0.98
314.81,2.07,1.10,2.07,1.10,-1.10,-0.71,-1.03,0.97,0.97,0.97
317.96,2.03,1.07,2.03,1.07,-1.07,-0.67,-0.97,0.97,0.97,0.96
321.14,1.99,1.03,1.99,1.03,-1.03,-0.64,-0.92,0.96,0.96,0.96
324.35,1.93,0.98,1.94,0.99,-0.99,-0.61,-0.86,0.94,0.95,0.95
327.59,1.89,0.95,1.89,0.95,-0.94,-0.57,-0.80,0.95,0.95,0.95
330.87,1.84,0.91,1.84,0.90,-0.90,-0.54,-0.74,0.94,0.94,0.93
334.18,1.79,0.86,1.79,0.86,-0.86,-0.51,-0.69,0.93,0.93,0.93
337.52,1.73,0.80,1.73,0.81,-0.81,-0.47,-0.63,0.92,0.92,0.93
340.90,1.68,0.76,1.68,0.76,-0.76,-0.44,-0.58,0.92,0.91,0.92
344.30,1.62,0.71,1.63,0.71,-0.72,-0.41,-0.52,0.90,0.91,0.91
347.75,1.57,0.67,1.57,0.67,-0.67,-0.37,-0.46,0.90,0.90,0.90
351.23,1.52,0.63,1.51,0.62,-0.62,-0.34,-0.41,0.90,0.89,0.89
354.74,1.45,0.57,1.46,0.57,-0.57,-0.31,-0.35,0.88,0.89,0.88
358.28,1.39,0.51,1.40,0.52,-0.52,-0.27,-0.30,0.87,0.87,0.88
361.87,1.34,0.48,1.33,0.47,-0.47,-0.24,-0.25,0.87,0.86,0.87
365.49,1.27,0.42,1.28,0.42,-0.42,-0.21,-0.19,0.85,0.85,0.85
369.14,1.21,0.37,1.21,0.37,-0.37,-0.18,-0.14,0.84,0.84,0.84
372.83,1.15,0.32,1.15,0.32,-0.32,-0.14,-0.09,0.83,0.83,0.83
376.56,1.08,0.26,1.08,0.27,-0.27,-0.11,-0.03,0.81,0.82,0.82
380.33,1.02,0.21,1.02,0.22,-0.22,-0.08,0.02,0.81,0.81,0.81
384.13,0.96,0.17,0.96,0.16,-0.16,-0.05,0.07,0.80,0.80,0.80
387.97,0.90,0.12,0.90,0.11,-0.11,-0.01,0.12,0.79,0.79,0.78
391.85,0.83,0.06,0.84,0.06,-0.06,0.02,0.17,0.77,0.78,0.77
395.77,0.77,0.01,0.77,0.01,-0.01,0.05,0.23,0.77,0.77,0.76
399.73,0.71,-0.04,0.71,-0.05,0.05,0.08,0.28,0.76,0.75,0.75
403.72,0.64,-0.11,0.64,-0.10,0.10,0.12,0.33,0.74,0.74,0.75
407.76,0.58,-0.16,0.58,-0.16,0.15,0.15,0.38,0.73,0.74,0.74
411.84,0.52,-0.21,0.52,-0.21,0.21,0.18,0.42,0.73,0.73,0.73
415.96,0.46,-0.26,0.46,-0.26,0.26,0.21,0.47,0.72,0.72,0.72
420.12,0.39,-0.31,0.39,-0.31,0.31,0.25,0.52,0.70,0.71,0.71
424.32,0.33,-0.36,0.33,-0.36,0.36,0.28,0.57,0.69,0.70,0.69
428.56,0.27,-0.41,0.27,-0.41,0.41,0.31,0.61,0.69,0.68,0.68
432.85,0.21,-0.46,0.21,-0.47,0.47,0.34,0.66,0.68,0.67,0.67
437.18,0.14,-0.52,0.15,-0.52,0.52,0.38,0.70,0.66,0.66,0.66
441.55,0.08,-0.57,0.08,-0.57,0.57,0.41,0.75,0.65,0.65,0.65
445.96,0.02,-0.61,0.02,-0.62,0.62,0.44,0.79,0.64,0.63,0.63
450.42,-0.05,-0.67,-0.05,-0.67,0.67,0.48,0.83,0.62,0.62,0.62
454.93,-0.11,-0.72,-0.11,-0.71,0.72,0.51,0.87,0.61,0.61,0.61
459.48,-0.17,-0.76,-0.17,-0.76,0.76,0.54,0.91,0.59,0.59,0.59
464.07,-0.23,-0.81,-0.23,-0.81,0.81,0.58,0.95,0.58,0.58,0.58
468.71,-0.29,-0.86,-0.29,-0.85,0.85,0.61,0.98,0.56,0.56,0.57
473.40,-0.34,-0.90,-0.34,-0.90,0.89,0.64,1.02,0.55,0.55,0.56
478.13,-0.40,-0.93,-0.39,-0.93,0.93,0.68,1.05,0.53,0.54,0.54
482.91,-0.44,-0.96,-0.44,-0.97,0.97,0.71,1.08,0.53,0.53,0.53
487.74,-0.49,-1.00,-0.49,-1.00,1.01,0.74,1.11,0.52,0.52,0.52
492.62,-0.54,-1.04,-0.53,-1.04,1.04,0.78,1.14,0.50,0.51,0.50
497.55,-0.58,-1.07,-0.58,-1.08,1.07,0.81,1.16,0.50,0.49,0.49
502.52,-0.63,-1.11,-0.63,-1.11,1.11,0.85,1.19,0.48,0.48,0.48
507.55,-0.68,-1.14,-0.67,-1.14,1.14,0.88,1.21,0.46,0.47,0.46
512.62,-0.72,-1.17,-0.72,-1.17,1.17,0.92,1.23,0.46,0.45,0.45
517.75,-0.76,-1.20,-0.76,-1.21,1.21,0.95,1.25,0.45,0.44,0.44
522.93,-0.82,-1.25,-0.81,-1.24,1.24,0.98,1.27,0.42,0.43,0.43
528.16,-0.85,-1.27,-0.85,-1.28,1.28,1.02,1.29,0.43,0.42,0.42
