frequency,raw,error,smoothed,error_smoothed,equalization,parametric_eq,fixed_band_eq,equalized_raw,equalized_smoothed,target
20.00,-5.38,-7.09,-5.39,-7.10,6.00,5.71,2.31,0.62,0.61,1.71
20.20,-5.35,-7.06,-5.34,-7.05,6.00,5.71,2.38,0.65,0.66,1.71
20.40,-5.28,-6.99,-5.27,-6.99,6.00,5.71,2.44,0.72,0.73,1.72
20.61,-5.20,-6.92,-5.21,-6.92,6.00,5.71,2.51,0.80,0.79,1.72
20.81,-5.13,-6.85,-5.13,-6.85,6.00,5.71,2.59,0.87,0.87,1.72
21.02,-5.06,-6.78,-5.06,-6.78,6.00,5.70,2.66,0.94,0.94,1.72
21.23,-4.98,-6.70,-4.98,-6.70,6.00,5.70,2.74,1.02,1.02,1.72
21.44,-4.91,-6.63,-4.90,-6.63,6.00,5.69,2.82,1.09,1.10,1.72
21.66,-4.82,-6.54,-4.83,-6.55,6.00,5.69,2.90,1.18,1.17,1.72
21.87,-4.76,-6.48,-4.76,-6.48,6.00,5.68,2.98,1.24,1.24,1.72
22.09,-4.69,-6.41,-4.69,-6.41,6.01,5.67,3.07,1.32,1.32,1.72
22.31,-4.62,-6.34,-4.62,-6.34,6.01,5.66,3.16,1.39,1.39,1.73
22.54,-4.54,-6.27,-4.54,-6.27,6.01,5.65,3.25,1.47,1.47,1.73
22.76,-4.47,-6.20,-4.47,-6.20,6.01,5.64,3.34,1.54,1.54,1.73
22.99,-4.40,-6.13,-4.40,-6.12,6.00,5.62,3.44,1.60,1.60,1.73
23.22,-4.32,-6.05,-4.32,-6.05,5.97,5.61,3.54,1.65,1.65,1.73
23.45,-4.25,-5.98,-4.25,-5.98,5.95,5.60,3.64,1.70,1.69,1.73
23.69,-4.18,-5.91,-4.18,-5.92,5.91,5.58,3.74,1.73,1.72,1.73
23.92,-4.13,-5.86,-4.12,-5.86,5.86,5.56,3.84,1.73,1.74,1.73
24.16,-4.06,-5.79,-4.06,-5.80,5.81,5.54,3.95,1.75,1.74,1.73
24.40,-4.01,-5.74,-4.00,-5.74,5.75,5.53,4.05,1.74,1.75,1.73
24.65,-3.94,-5.68,-3.94,-5.68,5.69,5.51,4.16,1.75,1.75,1.74
24.89,-3.88,-5.62,-3.89,-5.62,5.63,5.48,4.27,1.75,1.74,1.74
25.14,-3.83,-5.57,-3.83,-5.57,5.57,5.46,4.39,1.74,1.74,1.74
25.39,-3.79,-5.53,-3.78,-5.52,5.51,5.44,4.50,1.73,1.74,1.74
25.65,-3.72,-5.46,-3.73,-5.46,5.46,5.42,4.61,1.74,1.73,1.74
25.91,-3.66,-5.40,-3.67,-5.41,5.40,5.39,4.72,1.74,1.74,1.74
26.16,-3.62,-5.36,-3.61,-5.35,5.35,5.37,4.84,1.73,1.74,1.74
26.43,-3.55,-5.29,-3.55,-5.29,5.29,5.34,4.95,1.74,1.74,1.74
26.69,-3.49,-5.23,-3.50,-5.24,5.24,5.31,5.06,1.75,1.74,1.74
26.96,-3.44,-5.18,-3.44,-5.18,5.18,5.29,5.17,1.74,1.74,1.74
27.23,-3.38,-5.12,-3.38,-5.12,5.13,5.26,5.27,1.74,1.75,1.74
27.50,-3.32,-5.06,-3.32,-5.07,5.07,5.23,5.37,1.75,1.75,1.74
27.77,-3.27,-5.01,-3.27,-5.02,5.02,5.20,5.47,1.75,1.75,1.74
28.05,-3.23,-4.97,-3.23,-4.97,4.97,5.17,5.57,1.74,1.74,1.75
28.33,-3.18,-4.93,-3.18,-4.93,4.92,5.14,5.66,1.74,1.74,1.75
28.62,-3.13,-4.88,-3.13,-4.88,4.87,5.10,5.74,1.74,1.74,1.75
28.90,-3.08,-4.83,-3.08,-4.83,4.83,5.07,5.82,1.75,1.75,1.75
29.19,-3.03,-4.78,-3.03,-4.78,4.79,5.04,5.89,1.76,1.75,1.75
29.48,-3.00,-4.75,-2.99,-4.74,4.74,5.00,5.96,1.74,1.75,1.75
29.78,-2.95,-4.70,-2.96,-4.70,4.70,4.97,6.01,1.75,1.75,1.75
30.08,-2.92,-4.67,-2.92,-4.67,4.67,4.93,6.06,1.74,1.75,1.75
30.38,-2.88,-4.63,-2.88,-4.63,4.63,4.90,6.09,1.75,1.75,1.75
30.68,-2.84,-4.59,-2.84,-4.59,4.59,4.86,6.12,1.75,1.75,1.75
30.99,-2.81,-4.56,-2.81,-4.56,4.56,4.82,6.14,1.75,1.75,1.75
31.30,-2.77,-4.52,-2.77,-4.52,4.52,4.79,6.14,1.75,1.75,1.75
31.61,-2.73,-4.48,-2.74,-4.49,4.49,4.75,6.14,1.76,1.75,1.75
31.93,-2.70,-4.45,-2.70,-4.45,4.45,4.71,6.13,1.75,1.75,1.75
32.24,-2.67,-4.42,-2.66,-4.41,4.41,4.67,6.10,1.74,1.75,1.75
32.57,-2.62,-4.37,-2.63,-4.38,4.37,4.63,6.07,1.75,1.74,1.75
32.89,-2.59,-4.34,-2.59,-4.34,4.33,4.59,6.03,1.74,1.74,1.75
33.22,-2.56,-4.31,-2.55,-4.30,4.29,4.55,5.98,1.74,1.74,1.75
33.55,-2.50,-4.25,-2.51,-4.26,4.26,4.51,5.92,1.76,1.75,1.75
33.89,-2.47,-4.22,-2.46,-4.21,4.22,4.47,5.85,1.75,1.75,1.75
34.23,-2.42,-4.17,-2.42,-4.17,4.18,4.43,5.78,1.76,1.76,1.75
34.57,-2.39,-4.14,-2.39,-4.14,4.14,4.39,5.70,1.75,1.75,1.75
34.92,-2.36,-4.11,-2.36,-4.11,4.11,4.35,5.62,1.75,1.75,1.75
35.27,-2.34,-4.09,-2.34,-4.08,4.08,4.31,5.53,1.74,1.74,1.75
35.62,-2.30,-4.05,-2.31,-4.06,4.05,4.26,5.44,1.75,1.74,1.75
35.97,-2.30,-4.05,-2.28,-4.03,4.03,4.22,5.34,1.73,1.75,1.75
36.33,-2.25,-4.00,-2.26,-4.01,4.01,4.18,5.24,1.76,1.75,1.75
36.70,-2.25,-3.99,-2.25,-4.00,4.00,4.14,5.14,1.75,1.75,1.74
37.06,-2.25,-3.99,-2.25,-3.99,3.99,4.09,5.04,1.74,1.75,1.74
37.43,-2.25,-3.99,-2.25,-3.99,3.99,4.05,4.93,1.74,1.75,1.74
37.81,-2.25,-3.99,-2.25,-3.99,4.00,4.01,4.83,1.75,1.74,1.74
38.19,-2.25,-3.99,-2.26,-4.00,4.01,3.96,4.73,1.76,1.75,1.74
38.57,-2.30,-4.04,-2.28,-4.02,4.03,3.92,4.62,1.73,1.75,1.74
38.95,-2.30,-4.04,-2.31,-4.05,4.06,3.88,4.52,1.75,1.74,1.74
39.34,-2.34,-4.08,-2.34,-4.08,4.08,3.84,4.42,1.74,1.74,1.74
39.74,-2.38,-4.11,-2.37,-4.10,4.11,3.79,4.32,1.73,1.74,1.73
40.14,-2.39,-4.12,-2.40,-4.13,4.12,3.75,4.22,1.73,1.72,1.73
40.54,-2.43,-4.16,-2.42,-4.15,4.14,3.71,4.12,1.71,1.71,1.73
40.94,-2.43,-4.16,-2.43,-4.15,4.14,3.66,4.03,1.71,1.71,1.73
41.35,-2.43,-4.16,-2.42,-4.15,4.13,3.62,3.94,1.70,1.71,1.73
41.76,-2.38,-4.10,-2.40,-4.12,4.12,3.58,3.85,1.74,1.72,1.72
42.18,-2.38,-4.10,-2.37,-4.09,4.09,3.53,3.76,1.71,1.72,1.72
42.60,-2.33,-4.05,-2.33,-4.05,4.05,3.49,3.67,1.72,1.72,1.72
43.03,-2.28,-3.99,-2.29,-4.01,4.01,3.45,3.59,1.73,1.72,1.71
43.46,-2.25,-3.96,-2.24,-3.95,3.96,3.40,3.51,1.71,1.72,1.71
43.90,-2.19,-3.90,-2.19,-3.90,3.91,3.36,3.43,1.72,1.71,1.71
44.33,-2.14,-3.84,-2.14,-3.85,3.85,3.32,3.36,1.71,1.70,1.71
44.78,-2.09,-3.79,-2.08,-3.79,3.78,3.28,3.28,1.69,1.70,1.70
45.23,-2.02,-3.72,-2.02,-3.72,3.71,3.23,3.21,1.69,1.69,1.70
45.68,-1.95,-3.64,-1.95,-3.64,3.64,3.19,3.14,1.69,1.69,1.69
46.13,-1.87,-3.56,-1.87,-3.56,3.57,3.15,3.08,1.70,1.70,1.69
46.60,-1.78,-3.47,-1.79,-3.47,3.49,3.11,3.02,1.70,1.70,1.69
47.06,-1.72,-3.40,-1.71,-3.39,3.40,3.07,2.96,1.68,1.69,1.68
47.53,-1.62,-3.30,-1.63,-3.31,3.31,3.03,2.90,1.69,1.67,1.68
48.01,-1.56,-3.23,-1.55,-3.22,3.21,2.98,2.84,1.65,1.66,1.67
48.49,-1.46,-3.13,-1.45,-3.12,3.11,2.94,2.79,1.65,1.65,1.67
48.97,-1.35,-3.01,-1.35,-3.01,3.00,2.90,2.74,1.65,1.65,1.66
49.46,-1.23,-2.88,-1.24,-2.89,2.90,2.86,2.69,1.67,1.66,1.66
49.96,-1.13,-2.78,-1.13,-2.78,2.78,2.82,2.64,1.65,1.66,1.65
50.46,-1.02,-2.66,-1.02,-2.67,2.67,2.78,2.59,1.65,1.65,1.64
50.96,-0.92,-2.56,-0.92,-2.56,2.55,2.74,2.55,1.63,1.63,1.64
51.47,-0.82,-2.45,-0.81,-2.44,2.44,2.70,2.51,1.62,1.63,1.63
51.99,-0.71,-2.33,-0.71,-2.34,2.33,2.66,2.47,1.62,1.62,1.62
52.51,-0.61,-2.23,-0.61,-2.23,2.23,2.62,2.43,1.62,1.62,1.62
53.03,-0.53,-2.14,-0.53,-2.14,2.14,2.59,2.39,1.61,1.61,1.61
53.56,-0.45,-2.05,-0.45,-2.05,2.06,2.55,2.36,1.61,1.61,1.60
54.10,-0.39,-1.98,-0.39,-1.98,1.98,2.51,2.32,1.59,1.60,1.59
54.64,-0.33,-1.91,-0.33,-1.92,1.93,2.47,2.29,1.59,1.59,1.58
55.18,-0.30,-1.87,-0.29,-1.87,1.88,2.43,2.25,1.58,1.58,1.57
55.74,-0.26,-1.82,-0.27,-1.83,1.84,2.40,2.22,1.58,1.57,1.56
56.29,-0.26,-1.81,-0.26,-1.81,1.82,2.36,2.19,1.56,1.56,1.55
56.86,-0.26,-1.80,-0.26,-1.80,1.80,2.32,2.16,1.54,1.54,1.54
57.42,-0.26,-1.79,-0.26,-1.79,1.78,2.28,2.13,1.52,1.52,1.53
58.00,-0.26,-1.78,-0.26,-1.78,1.77,2.25,2.10,1.51,1.51,1.52
58.58,-0.26,-1.77,-0.26,-1.77,1.77,2.21,2.07,1.51,1.51,1.51
59.16,-0.26,-1.76,-0.26,-1.76,1.76,2.18,2.04,1.50,1.50,1.50
59.76,-0.26,-1.75,-0.26,-1.75,1.76,2.14,2.01,1.50,1.49,1.49
60.35,-0.28,-1.75,-0.27,-1.75,1.75,2.11,1.98,1.47,1.47,1.47
60.96,-0.28,-1.74,-0.29,-1.75,1.74,2.07,1.95,1.46,1.46,1.46
61.57,-0.30,-1.75,-0.30,-1.74,1.73,2.04,1.91,1.43,1.44,1.45
62.18,-0.30,-1.73,-0.30,-1.73,1.73,2.00,1.88,1.43,1.43,1.43
62.80,-0.30,-1.72,-0.30,-1.72,1.72,1.97,1.85,1.42,1.42,1.42
63.43,-0.30,-1.70,-0.30,-1.70,1.71,1.93,1.82,1.41,1.42,1.40
64.07,-0.30,-1.69,-0.31,-1.70,1.71,1.90,1.79,1.41,1.40,1.39
64.71,-0.32,-1.69,-0.32,-1.70,1.70,1.87,1.75,1.38,1.37,1.37
65.35,-0.35,-1.71,-0.34,-1.69,1.69,1.83,1.72,1.34,1.35,1.36
66.01,-0.35,-1.69,-0.35,-1.69,1.68,1.80,1.69,1.33,1.33,1.34
66.67,-0.35,-1.67,-0.35,-1.67,1.67,1.77,1.65,1.32,1.32,1.32
67.33,-0.35,-1.65,-0.35,-1.65,1.66,1.73,1.62,1.31,1.31,1.30
68.01,-0.35,-1.63,-0.35,-1.64,1.65,1.70,1.59,1.30,1.29,1.28
68.69,-0.36,-1.62,-0.37,-1.63,1.63,1.67,1.55,1.27,1.27,1.26
69.37,-0.39,-1.63,-0.38,-1.62,1.62,1.64,1.52,1.23,1.24,1.24
70.07,-0.39,-1.61,-0.39,-1.61,1.61,1.61,1.48,1.22,1.22,1.22
70.77,-0.39,-1.59,-0.39,-1.60,1.60,1.58,1.45,1.21,1.20,1.20
71.48,-0.39,-1.57,-0.40,-1.58,1.58,1.54,1.41,1.19,1.18,1.18
72.19,-0.42,-1.58,-0.41,-1.57,1.57,1.51,1.38,1.15,1.16,1.16
72.91,-0.43,-1.57,-0.43,-1.56,1.55,1.48,1.34,1.12,1.13,1.14
73.64,-0.43,-1.54,-0.43,-1.54,1.53,1.45,1.31,1.10,1.10,1.11
74.38,-0.43,-1.52,-0.43,-1.52,1.52,1.42,1.27,1.09,1.09,1.09
75.12,-0.43,-1.49,-0.43,-1.49,1.50,1.39,1.24,1.07,1.07,1.06
75.87,-0.43,-1.47,-0.43,-1.47,1.48,1.36,1.21,1.05,1.05,1.04
76.63,-0.43,-1.44,-0.44,-1.45,1.46,1.33,1.17,1.03,1.02,1.01
77.40,-0.46,-1.45,-0.46,-1.44,1.44,1.30,1.14,0.98,0.98,0.99
78.17,-0.48,-1.44,-0.47,-1.43,1.42,1.27,1.11,0.94,0.95,0.96
78.95,-0.48,-1.41,-0.48,-1.41,1.40,1.25,1.07,0.92,0.92,0.93
79.74,-0.48,-1.38,-0.48,-1.38,1.38,1.22,1.04,0.90,0.91,0.90
80.54,-0.48,-1.36,-0.48,-1.36,1.36,1.19,1.01,0.88,0.88,0.88
81.35,-0.48,-1.33,-0.49,-1.34,1.34,1.16,0.98,0.86,0.85,0.85
82.16,-0.52,-1.34,-0.51,-1.32,1.32,1.13,0.95,0.80,0.81,0.82
82.98,-0.52,-1.31,-0.52,-1.30,1.30,1.10,0.92,0.78,0.78,0.79
83.81,-0.52,-1.27,-0.52,-1.27,1.28,1.07,0.89,0.76,0.76,0.75
84.65,-0.52,-1.24,-0.52,-1.24,1.25,1.05,0.86,0.73,0.73,0.72
85.50,-0.52,-1.21,-0.53,-1.22,1.23,1.02,0.84,0.71,0.70,0.69
86.35,-0.56,-1.22,-0.55,-1.21,1.20,0.99,0.81,0.64,0.66,0.66
87.22,-0.56,-1.19,-0.56,-1.18,1.18,0.96,0.78,0.62,0.62,0.63
88.09,-0.56,-1.15,-0.56,-1.16,1.15,0.94,0.76,0.59,0.58,0.59
88.97,-0.56,-1.12,-0.56,-1.12,1.12,0.91,0.73,0.56,0.56,0.56
89.86,-0.56,-1.08,-0.56,-1.08,1.09,0.88,0.70,0.53,0.53,0.52
90.76,-0.56,-1.05,-0.56,-1.05,1.05,0.85,0.68,0.49,0.49,0.49
91.66,-0.56,-1.01,-0.56,-1.01,1.02,0.83,0.66,0.46,0.46,0.45
92.58,-0.56,-0.98,-0.56,-0.98,0.98,0.80,0.63,0.42,0.42,0.42
93.51,-0.56,-0.94,-0.56,-0.94,0.94,0.77,0.61,0.38,0.38,0.38
94.44,-0.56,-0.91,-0.56,-0.91,0.91,0.75,0.59,0.35,0.35,0.35
95.39,-0.56,-0.87,-0.56,-0.87,0.87,0.72,0.56,0.31,0.31,0.31
96.34,-0.56,-0.83,-0.56,-0.83,0.84,0.69,0.54,0.28,0.28,0.27
97.30,-0.56,-0.80,-0.56,-0.80,0.80,0.67,0.52,0.24,0.24,0.24
98.28,-0.57,-0.77,-0.57,-0.77,0.77,0.64,0.50,0.20,0.20,0.20
99.26,-0.58,-0.74,-0.58,-0.74,0.73,0.62,0.48,0.15,0.16,0.16
100.25,-0.58,-0.70,-0.58,-0.70,0.70,0.59,0.46,0.12,0.12,0.12
101.25,-0.58,-0.67,-0.58,-0.67,0.66,0.56,0.44,0.08,0.08,0.09
102.27,-0.58,-0.63,-0.58,-0.63,0.63,0.54,0.42,0.05,0.05,0.05
103.29,-0.58,-0.59,-0.58,-0.59,0.59,0.51,0.40,0.01,0.01,0.01
104.32,-0.58,-0.55,-0.58,-0.55,0.55,0.49,0.38,-0.03,-0.03,-0.03
105.37,-0.58,-0.51,-0.58,-0.51,0.52,0.46,0.36,-0.06,-0.06,-0.07
106.42,-0.58,-0.48,-0.58,-0.47,0.48,0.43,0.34,-0.10,-0.10,-0.10
107.48,-0.58,-0.44,-0.58,-0.44,0.45,0.41,0.33,-0.13,-0.14,-0.14
108.56,-0.59,-0.41,-0.59,-0.41,0.41,0.38,0.31,-0.18,-0.18,-0.18
109.64,-0.61,-0.39,-0.60,-0.38,0.38,0.36,0.29,-0.23,-0.22,-0.22
110.74,-0.61,-0.35,-0.61,-0.35,0.35,0.33,0.27,-0.26,-0.26,-0.26
111.85,-0.61,-0.32,-0.61,-0.32,0.32,0.31,0.26,-0.29,-0.29,-0.29
112.97,-0.61,-0.28,-0.61,-0.28,0.29,0.28,0.24,-0.32,-0.32,-0.33
114.10,-0.61,-0.24,-0.62,-0.25,0.26,0.26,0.22,-0.35,-0.36,-0.37
115.24,-0.63,-0.22,-0.63,-0.22,0.23,0.23,0.21,-0.40,-0.40,-0.40
116.39,-0.65,-0.21,-0.64,-0.20,0.19,0.21,0.19,-0.46,-0.45,-0.44
117.55,-0.65,-0.17,-0.65,-0.17,0.16,0.18,0.17,-0.49,-0.49,-0.48
118.73,-0.65,-0.14,-0.65,-0.14,0.13,0.16,0.16,-0.52,-0.52,-0.51
119.92,-0.65,-0.10,-0.65,-0.10,0.10,0.13,0.14,-0.55,-0.54,-0.55
121.12,-0.65,-0.07,-0.65,-0.06,0.08,0.11,0.13,-0.57,-0.57,-0.58
122.33,-0.65,-0.03,-0.66,-0.04,0.05,0.09,0.11,-0.60,-0.61,-0.62
123.55,-0.67,-0.02,-0.67,-0.02,0.02,0.06,0.09,-0.65,-0.65,-0.65
124.79,-0.69,-0.00,-0.68,0.01,-0.01,0.04,0.08,-0.70,-0.69,-0.69
126.03,-0.69,0.03,-0.69,0.03,-0.04,0.01,0.06,-0.73,-0.73,-0.72
127.29,-0.69,0.07,-0.69,0.06,-0.07,-0.01,0.05,-0.76,-0.76,-0.76
128.57,-0.69,0.10,-0.69,0.10,-0.10,-0.03,0.03,-0.79,-0.79,-0.79
129.85,-0.69,0.13,-0.69,0.13,-0.13,-0.06,0.01,-0.82,-0.82,-0.82
131.15,-0.69,0.16,-0.69,0.16,-0.16,-0.08,-0.00,-0.85,-0.84,-0.85
132.46,-0.69,0.19,-0.69,0.19,-0.19,-0.10,-0.02,-0.88,-0.88,-0.88
133.79,-0.69,0.22,-0.70,0.22,-0.21,-0.13,-0.03,-0.90,-0.91,-0.91
135.12,-0.71,0.23,-0.70,0.24,-0.24,-0.15,-0.05,-0.95,-0.94,-0.94
136.48,-0.71,0.26,-0.71,0.26,-0.27,-0.17,-0.07,-0.98,-0.98,-0.97
137.84,-0.71,0.29,-0.71,0.29,-0.29,-0.20,-0.08,-1.00,-1.01,-1.00
139.22,-0.71,0.32,-0.71,0.32,-0.32,-0.22,-0.10,-1.03,-1.03,-1.03
140.61,-0.71,0.35,-0.71,0.35,-0.35,-0.24,-0.11,-1.06,-1.06,-1.06
142.02,-0.71,0.38,-0.71,0.38,-0.38,-0.26,-0.13,-1.09,-1.09,-1.09
143.44,-0.70,0.41,-0.70,0.41,-0.41,-0.29,-0.15,-1.11,-1.11,-1.11
144.87,-0.69,0.45,-0.69,0.44,-0.44,-0.31,-0.16,-1.13,-1.13,-1.14
146.32,-0.69,0.47,-0.69,0.47,-0.47,-0.33,-0.18,-1.16,-1.16,-1.16
147.78,-0.69,0.50,-0.69,0.50,-0.50,-0.35,-0.20,-1.19,-1.19,-1.19
149.26,-0.69,0.52,-0.69,0.52,-0.52,-0.37,-0.22,-1.21,-1.21,-1.21
150.75,-0.69,0.55,-0.69,0.55,-0.55,-0.39,-0.23,-1.24,-1.24,-1.24
152.26,-0.69,0.57,-0.69,0.57,-0.57,-0.42,-0.25,-1.26,-1.26,-1.26
153.78,-0.69,0.59,-0.69,0.59,-0.59,-0.44,-0.27,-1.28,-1.28,-1.28
155.32,-0.69,0.61,-0.69,0.61,-0.61,-0.46,-0.29,-1.30,-1.30,-1.30
156.88,-0.69,0.63,-0.70,0.63,-0.62,-0.48,-0.31,-1.31,-1.32,-1.32
158.44,-0.71,0.63,-0.70,0.64,-0.64,-0.50,-0.33,-1.35,-1.34,-1.34
160.03,-0.71,0.65,-0.71,0.65,-0.65,-0.52,-0.35,-1.36,-1.36,-1.36
161.63,-0.71,0.67,-0.72,0.66,-0.66,-0.54,-0.37,-1.37,-1.39,-1.38
163.24,-0.74,0.66,-0.73,0.67,-0.68,-0.56,-0.39,-1.42,-1.41,-1.40
164.88,-0.74,0.68,-0.74,0.68,-0.69,-0.58,-0.41,-1.43,-1.43,-1.42
166.53,-0.74,0.70,-0.74,0.70,-0.70,-0.60,-0.43,-1.44,-1.45,-1.44
168.19,-0.74,0.72,-0.74,0.72,-0.72,-0.62,-0.45,-1.46,-1.46,-1.46
169.87,-0.74,0.73,-0.74,0.73,-0.73,-0.64,-0.47,-1.47,-1.47,-1.47
171.57,-0.74,0.75,-0.74,0.75,-0.75,-0.66,-0.50,-1.49,-1.49,-1.49
173.29,-0.74,0.77,-0.74,0.77,-0.76,-0.68,-0.52,-1.50,-1.49,-1.51
175.02,-0.74,0.78,-0.74,0.78,-0.77,-0.70,-0.54,-1.51,-1.51,-1.52
176.77,-0.74,0.80,-0.75,0.78,-0.78,-0.72,-0.57,-1.52,-1.53,-1.54
178.54,-0.78,0.77,-0.77,0.78,-0.79,-0.73,-0.59,-1.57,-1.55,-1.55
180.32,-0.78,0.78,-0.78,0.79,-0.79,-0.75,-0.62,-1.57,-1.57,-1.56
182.13,-0.78,0.80,-0.78,0.79,-0.80,-0.77,-0.64,-1.58,-1.58,-1.58
183.95,-0.78,0.81,-0.78,0.81,-0.81,-0.79,-0.67,-1.59,-1.59,-1.59
185.79,-0.78,0.82,-0.78,0.82,-0.82,-0.81,-0.69,-1.60,-1.60,-1.60
187.65,-0.78,0.83,-0.79,0.83,-0.82,-0.82,-0.72,-1.60,-1.61,-1.61
189.52,-0.80,0.83,-0.79,0.83,-0.83,-0.84,-0.75,-1.63,-1.63,-1.63
191.42,-0.80,0.84,-0.79,0.84,-0.85,-0.86,-0.78,-1.65,-1.64,-1.64
193.33,-0.78,0.87,-0.79,0.86,-0.86,-0.88,-0.80,-1.64,-1.65,-1.65
195.27,-0.78,0.88,-0.78,0.88,-0.87,-0.89,-0.83,-1.65,-1.66,-1.66
197.22,-0.78,0.89,-0.78,0.89,-0.89,-0.91,-0.86,-1.67,-1.67,-1.67
199.19,-0.78,0.90,-0.78,0.90,-0.91,-0.93,-0.89,-1.69,-1.68,-1.68
201.18,-0.78,0.91,-0.77,0.92,-0.92,-0.94,-0.92,-1.70,-1.69,-1.69
203.19,-0.74,0.96,-0.75,0.94,-0.94,-0.96,-0.95,-1.68,-1.69,-1.70
205.23,-0.74,0.96,-0.74,0.96,-0.95,-0.97,-0.98,-1.69,-1.70,-1.70
207.28,-0.74,0.97,-0.74,0.98,-0.97,-0.99,-1.01,-1.71,-1.70,-1.71
209.35,-0.74,0.98,-0.74,0.98,-0.98,-1.00,-1.03,-1.72,-1.72,-1.72
211.44,-0.74,0.99,-0.74,0.99,-0.99,-1.02,-1.06,-1.73,-1.73,-1.73
213.56,-0.74,0.99,-0.74,0.99,-1.00,-1.03,-1.09,-1.74,-1.74,-1.73
215.69,-0.74,1.00,-0.74,1.00,-1.00,-1.05,-1.12,-1.74,-1.74,-1.74
217.85,-0.74,1.01,-0.74,1.01,-1.01,-1.06,-1.15,-1.75,-1.75,-1.75
220.03,-0.74,1.01,-0.74,1.01,-1.01,-1.08,-1.17,-1.75,-1.75,-1.75
222.23,-0.74,1.02,-0.74,1.02,-1.02,-1.09,-1.20,-1.76,-1.76,-1.76
224.45,-0.74,1.03,-0.74,1.03,-1.03,-1.11,-1.23,-1.77,-1.77,-1.77
226.70,-0.74,1.03,-0.74,1.03,-1.04,-1.12,-1.25,-1.78,-1.78,-1.77
228.96,-0.74,1.04,-0.74,1.04,-1.05,-1.13,-1.27,-1.79,-1.79,-1.78
231.25,-0.74,1.04,-0.73,1.05,-1.06,-1.15,-1.30,-1.80,-1.79,-1.78
233.57,-0.71,1.08,-0.72,1.07,-1.07,-1.16,-1.32,-1.78,-1.78,-1.79
235.90,-0.70,1.09,-0.70,1.09,-1.08,-1.17,-1.34,-1.78,-1.78,-1.79
238.26,-0.69,1.11,-0.69,1.10,-1.09,-1.19,-1.35,-1.78,-1.78,-1.80
240.64,-0.69,1.11,-0.69,1.11,-1.11,-1.20,-1.37,-1.80,-1.80,-1.80
243.05,-0.69,1.11,-0.69,1.11,-1.12,-1.21,-1.39,-1.81,-1.81,-1.80
245.48,-0.69,1.12,-0.69,1.12,-1.13,-1.22,-1.40,-1.82,-1.82,-1.81
247.93,-0.69,1.12,-0.68,1.13,-1.14,-1.24,-1.41,-1.83,-1.82,-1.81
250.41,-0.65,1.16,-0.66,1.15,-1.15,-1.25,-1.42,-1.80,-1.81,-1.81
252.92,-0.65,1.17,-0.65,1.17,-1.15,-1.26,-1.43,-1.80,-1.81,-1.82
255.45,-0.65,1.17,-0.65,1.17,-1.16,-1.27,-1.44,-1.81,-1.81,-1.82
258.00,-0.65,1.17,-0.65,1.17,-1.17,-1.28,-1.44,-1.82,-1.82,-1.82
260.58,-0.65,1.18,-0.65,1.17,-1.18,-1.29,-1.44,-1.83,-1.84,-1.83
263.19,-0.65,1.18,-0.65,1.18,-1.19,-1.30,-1.45,-1.84,-1.84,-1.83
265.82,-0.65,1.18,-0.64,1.19,-1.20,-1.31,-1.45,-1.85,-1.83,-1.83
268.48,-0.61,1.22,-0.62,1.21,-1.21,-1.33,-1.44,-1.82,-1.83,-1.83
271.16,-0.61,1.23,-0.61,1.22,-1.22,-1.34,-1.44,-1.83,-1.83,-1.84
273.87,-0.61,1.23,-0.61,1.23,-1.23,-1.35,-1.44,-1.84,-1.84,-1.84
276.61,-0.61,1.23,-0.61,1.23,-1.24,-1.36,-1.43,-1.85,-1.85,-1.84
279.38,-0.61,1.23,-0.59,1.25,-1.25,-1.37,-1.43,-1.86,-1.85,-1.84
282.17,-0.56,1.28,-0.58,1.27,-1.26,-1.38,-1.42,-1.82,-1.84,-1.84
284.99,-0.56,1.28,-0.56,1.28,-1.28,-1.39,-1.42,-1.84,-1.84,-1.84
287.84,-0.56,1.29,-0.56,1.29,-1.29,-1.39,-1.41,-1.85,-1.84,-1.85
290.72,-0.56,1.29,-0.55,1.29,-1.30,-1.40,-1.40,-1.86,-1.85,-1.85
293.63,-0.54,1.31,-0.54,1.31,-1.31,-1.41,-1.40,-1.85,-1.85,-1.85
296.57,-0.52,1.33,-0.53,1.32,-1.32,-1.42,-1.39,-1.84,-1.85,-1.85
299.53,-0.52,1.33,-0.52,1.33,-1.33,-1.43,-1.38,-1.85,-1.85,-1.85
302.53,-0.52,1.33,-0.52,1.34,-1.34,-1.44,-1.37,-1.86,-1.85,-1.85
305.55,-0.52,1.33,-0.51,1.35,-1.35,-1.45,-1.37,-1.87,-1.85,-1.85
308.61,-0.48,1.37,-0.49,1.36,-1.36,-1.46,-1.36,-1.84,-1.85,-1.85
311.69,-0.48,1.37,-0.49,1.37,-1.37,-1.46,-1.35,-1.85,-1.86,-1.85
314.81,-0.48,1.37,-0.47,1.38,-1.38,-1.47,-1.35,-1.86,-1.86,-1.85
317.96,-0.48,1.37,-0.46,1.39,-1.39,-1.48,-1.34,-1.87,-1.86,-1.85
321.14,-0.43,1.43,-0.45,1.40,-1.41,-1.49,-1.34,-1.84,-1.86,-1.86
324.35,-0.43,1.43,-0.43,1.43,-1.42,-1.49,-1.34,-1.85,-1.85,-1.86
327.59,-0.43,1.43,-0.41,1.44,-1.44,-1.50,-1.33,-1.87,-1.85,-1.86
330.87,-0.39,1.47,-0.41,1.45,-1.45,-1.51,-1.33,-1.84,-1.86,-1.86
334.18,-0.39,1.47,-0.39,1.46,-1.46,-1.52,-1.33,-1.85,-1.86,-1.86
337.52,-0.39,1.47,-0.38,1.48,-1.48,-1.52,-1.33,-1.87,-1.85,-1.86
340.90,-0.36,1.50,-0.37,1.49,-1.49,-1.53,-1.33,-1.85,-1.86,-1.86
344.30,-0.35,1.51,-0.35,1.50,-1.51,-1.54,-1.33,-1.86,-1.86,-1.86
347.75,-0.35,1.51,-0.33,1.52,-1.52,-1.54,-1.34,-1.87,-1.85,-1.86
351.23,-0.31,1.55,-0.32,1.53,-1.53,-1.55,-1.34,-1.84,-1.86,-1.86
354.74,-0.30,1.56,-0.30,1.55,-1.55,-1.55,-1.35,-1.85,-1.85,-1.86
358.28,-0.30,1.56,-0.29,1.57,-1.56,-1.56,-1.35,-1.86,-1.85,-1.86
361.87,-0.27,1.59,-0.28,1.58,-1.58,-1.57,-1.36,-1.85,-1.86,-1.86
365.49,-0.26,1.60,-0.26,1.59,-1.59,-1.57,-1.37,-1.85,-1.86,-1.86
369.14,-0.26,1.59,-0.25,1.61,-1.61,-1.58,-1.38,-1.87,-1.85,-1.85
372.83,-0.22,1.63,-0.23,1.62,-1.62,-1.58,-1.39,-1.84,-1.86,-1.85
376.56,-0.22,1.63,-0.21,1.64,-1.64,-1.59,-1.40,-1.86,-1.85,-1.85
380.33,-0.20,1.65,-0.20,1.66,-1.66,-1.59,-1.41,-1.86,-1.85,-1.85
384.13,-0.17,1.68,-0.18,1.67,-1.67,-1.60,-1.43,-1.84,-1.85,-1.85
387.97,-0.17,1.68,-0.16,1.69,-1.69,-1.60,-1.44,-1.86,-1.85,-1.85
391.85,-0.13,1.72,-0.14,1.71,-1.71,-1.61,-1.46,-1.84,-1.85,-1.85
395.77,-0.13,1.72,-0.12,1.73,-1.73,-1.61,-1.47,-1.86,-1.85,-1.85
399.73,-0.09,1.76,-0.10,1.75,-1.75,-1.62,-1.49,-1.84,-1.85,-1.85
403.72,-0.09,1.76,-0.08,1.77,-1.77,-1.62,-1.51,-1.86,-1.85,-1.85
407.76,-0.07,1.78,-0.07,1.78,-1.78,-1.62,-1.53,-1.85,-1.85,-1.85
411.84,-0.04,1.81,-0.05,1.80,-1.80,-1.63,-1.54,-1.84,-1.85,-1.85
415.96,-0.04,1.81,-0.03,1.82,-1.82,-1.63,-1.56,-1.86,-1.84,-1.85
420.12,-0.00,1.85,-0.01,1.83,-1.83,-1.64,-1.58,-1.83,-1.85,-1.85
424.32,0.00,1.85,0.00,1.85,-1.85,-1.64,-1.60,-1.85,-1.85,-1.85
428.56,0.01,1.86,0.02,1.87,-1.86,-1.64,-1.62,-1.85,-1.84,-1.85
432.85,0.04,1.88,0.02,1.87,-1.88,-1.65,-1.64,-1.84,-1.85,-1.84
437.18,0.04,1.88,0.04,1.89,-1.89,-1.65,-1.66,-1.85,-1.85,-1.84
441.55,0.04,1.88,0.06,1.90,-1.90,-1.65,-1.68,-1.86,-1.84,-1.84
445.96,0.09,1.93,0.07,1.92,-1.91,-1.66,-1.69,-1.82,-1.84,-1.84
450.42,0.09,1.93,0.09,1.93,-1.92,-1.66,-1.71,-1.83,-1.83,-1.84
454.93,0.09,1.93,0.09,1.93,-1.93,-1.66,-1.73,-1.84,-1.84,-1.84
459.48,0.09,1.93,0.09,1.93,-1.94,-1.66,-1.74,-1.85,-1.84,-1.84
464.07,0.09,1.93,0.10,1.93,-1.94,-1.67,-1.76,-1.85,-1.84,-1.84
468.71,0.11,1.95,0.11,1.94,-1.94,-1.67,-1.77,-1.83,-1.84,-1.84
473.40,0.11,1.95,0.11,1.94,-1.94,-1.67,-1.78,-1.83,-1.83,-1.84
