frequency,raw,error,smoothed,error_smoothed,equalization,parametric_eq,fixed_band_eq,equalized_raw,equalized_smoothed,target
20.00,-10.90,-10.74,-10.90,-10.74,6.00,4.96,2.67,-4.90,-4.90,-0.15
20.20,-10.86,-10.70,-10.85,-10.71,6.00,5.01,2.74,-4.86,-4.85,-0.15
20.40,-10.81,-10.66,-10.81,-10.67,6.00,5.05,2.82,-4.81,-4.81,-0.14
20.61,-10.77,-10.63,-10.77,-10.63,6.00,5.10,2.90,-4.77,-4.77,-0.13
20.81,-10.73,-10.59,-10.73,-10.60,6.00,5.14,2.99,-4.73,-4.73,-0.13
21.02,-10.69,-10.56,-10.69,-10.56,6.00,5.19,3.07,-4.69,-4.69,-0.12
21.23,-10.65,-10.52,-10.64,-10.52,6.00,5.23,3.16,-4.65,-4.64,-0.12
21.44,-10.60,-10.48,-10.60,-10.49,6.00,5.28,3.25,-4.60,-4.60,-0.11
21.66,-10.56,-10.45,-10.56,-10.45,6.00,5.32,3.34,-4.56,-4.56,-0.10
21.87,-10.52,-10.41,-10.52,-10.42,6.00,5.37,3.44,-4.52,-4.52,-0.10
22.09,-10.48,-10.38,-10.48,-10.38,6.00,5.41,3.54,-4.48,-4.48,-0.10
22.31,-10.44,-10.35,-10.43,-10.35,6.00,5.45,3.64,-4.44,-4.43,-0.09
22.54,-10.39,-10.30,-10.39,-10.31,6.00,5.49,3.75,-4.39,-4.39,-0.09
22.76,-10.35,-10.27,-10.34,-10.27,6.00,5.54,3.85,-4.35,-4.34,-0.08
22.99,-10.30,-10.23,-10.30,-10.23,6.00,5.58,3.96,-4.30,-4.30,-0.07
23.22,-10.26,-10.20,-10.26,-10.20,6.00,5.62,4.08,-4.26,-4.26,-0.06
23.45,-10.22,-10.17,-10.22,-10.17,6.00,5.66,4.19,-4.22,-4.22,-0.05
23.69,-10.18,-10.14,-10.18,-10.14,6.00,5.70,4.31,-4.18,-4.18,-0.04
23.92,-10.13,-10.10,-10.13,-10.10,6.00,5.74,4.43,-4.13,-4.13,-0.03
24.16,-10.09,-10.07,-10.09,-10.07,6.00,5.78,4.55,-4.09,-4.09,-0.02
24.40,-10.04,-10.03,-10.04,-10.03,6.00,5.82,4.68,-4.04,-4.04,-0.01
24.65,-10.00,-10.01,-9.99,-10.00,6.00,5.85,4.81,-4.00,-3.99,0.01
24.89,-9.95,-9.97,-9.95,-9.97,6.00,5.89,4.94,-3.95,-3.95,0.02
25.14,-9.90,-9.93,-9.90,-9.93,6.00,5.93,5.07,-3.90,-3.90,0.03
25.39,-9.86,-9.90,-9.85,-9.89,6.00,5.96,5.20,-3.86,-3.85,0.04
25.65,-9.81,-9.86,-9.81,-9.86,6.00,6.00,5.33,-3.81,-3.81,0.05
25.91,-9.77,-9.84,-9.76,-9.83,6.00,6.03,5.47,-3.77,-3.76,0.07
26.16,-9.72,-9.79,-9.72,-9.79,6.00,6.07,5.60,-3.72,-3.72,0.08
26.43,-9.67,-9.76,-9.67,-9.76,6.00,6.10,5.74,-3.67,-3.67,0.09
26.69,-9.63,-9.72,-9.62,-9.72,6.00,6.13,5.87,-3.63,-3.62,0.10
26.96,-9.58,-9.69,-9.58,-9.69,6.00,6.16,6.00,-3.58,-3.58,0.12
27.23,-9.53,-9.65,-9.53,-9.66,6.00,6.19,6.13,-3.53,-3.53,0.12
27.50,-9.48,-9.62,-9.48,-9.62,6.00,6.22,6.26,-3.48,-3.48,0.14
27.77,-9.44,-9.59,-9.43,-9.59,6.00,6.25,6.38,-3.44,-3.43,0.15
28.05,-9.39,-9.56,-9.39,-9.56,6.00,6.28,6.50,-3.39,-3.39,0.17
28.33,-9.34,-9.52,-9.34,-9.52,6.00,6.30,6.62,-3.34,-3.34,0.18
28.62,-9.29,-9.49,-9.29,-9.49,6.00,6.33,6.73,-3.29,-3.29,0.20
28.90,-9.25,-9.46,-9.24,-9.46,6.00,6.36,6.83,-3.25,-3.24,0.21
29.19,-9.20,-9.43,-9.20,-9.42,6.00,6.38,6.93,-3.20,-3.20,0.23
29.48,-9.15,-9.39,-9.15,-9.39,6.00,6.40,7.02,-3.15,-3.15,0.24
29.78,-9.10,-9.36,-9.10,-9.35,6.00,6.42,7.10,-3.10,-3.10,0.26
30.08,-9.05,-9.31,-9.05,-9.32,6.00,6.44,7.17,-3.05,-3.05,0.27
30.38,-9.00,-9.28,-9.00,-9.28,6.00,6.46,7.23,-3.00,-3.00,0.28
30.68,-8.95,-9.24,-8.95,-9.24,6.00,6.48,7.28,-2.95,-2.95,0.29
30.99,-8.90,-9.21,-8.90,-9.21,6.00,6.50,7.32,-2.90,-2.90,0.31
31.30,-8.85,-9.17,-8.85,-9.17,6.00,6.52,7.35,-2.85,-2.85,0.32
31.61,-8.80,-9.14,-8.80,-9.14,6.00,6.53,7.37,-2.80,-2.80,0.34
31.93,-8.75,-9.10,-8.75,-9.10,6.00,6.55,7.38,-2.75,-2.75,0.35
32.24,-8.70,-9.06,-8.70,-9.06,6.00,6.56,7.38,-2.70,-2.70,0.37
32.57,-8.65,-9.02,-8.65,-9.03,6.00,6.57,7.37,-2.65,-2.65,0.38
32.89,-8.60,-8.99,-8.59,-8.99,6.00,6.58,7.35,-2.60,-2.59,0.39
33.22,-8.54,-8.94,-8.54,-8.95,6.00,6.59,7.32,-2.54,-2.54,0.40
33.55,-8.49,-8.91,-8.49,-8.91,6.00,6.60,7.28,-2.49,-2.49,0.42
33.89,-8.44,-8.87,-8.44,-8.87,6.00,6.61,7.24,-2.44,-2.44,0.43
34.23,-8.39,-8.84,-8.38,-8.83,6.00,6.61,7.19,-2.39,-2.38,0.45
34.57,-8.33,-8.78,-8.33,-8.79,6.00,6.62,7.13,-2.33,-2.33,0.46
34.92,-8.28,-8.74,-8.28,-8.75,6.00,6.62,7.07,-2.28,-2.28,0.46
35.27,-8.23,-8.71,-8.23,-8.71,6.00,6.62,7.00,-2.23,-2.23,0.48
35.62,-8.18,-8.67,-8.18,-8.67,6.00,6.62,6.93,-2.18,-2.18,0.49
35.97,-8.13,-8.63,-8.13,-8.63,6.00,6.62,6.86,-2.13,-2.13,0.50
36.33,-8.08,-8.58,-8.07,-8.58,6.00,6.62,6.79,-2.08,-2.07,0.51
36.70,-8.02,-8.53,-8.02,-8.54,6.00,6.62,6.71,-2.02,-2.02,0.51
37.06,-7.97,-8.49,-7.97,-8.49,6.00,6.62,6.64,-1.97,-1.97,0.52
37.43,-7.92,-8.45,-7.92,-8.45,6.00,6.61,6.56,-1.92,-1.92,0.53
37.81,-7.87,-8.40,-7.87,-8.41,6.00,6.60,6.49,-1.87,-1.87,0.54
38.19,-7.83,-8.37,-7.83,-8.37,6.00,6.60,6.41,-1.83,-1.83,0.54
38.57,-7.78,-8.33,-7.78,-8.33,6.00,6.59,6.34,-1.78,-1.78,0.55
38.95,-7.74,-8.30,-7.73,-8.29,6.00,6.58,6.27,-1.74,-1.73,0.56
39.34,-7.68,-8.24,-7.68,-8.25,6.00,6.57,6.21,-1.68,-1.68,0.57
39.74,-7.63,-8.20,-7.63,-8.20,6.00,6.55,6.14,-1.63,-1.63,0.57
40.14,-7.57,-8.14,-7.57,-8.14,6.00,6.54,6.08,-1.57,-1.57,0.57
40.54,-7.51,-8.08,-7.51,-8.09,6.00,6.52,6.03,-1.51,-1.51,0.58
40.94,-7.45,-8.03,-7.45,-8.03,6.00,6.51,5.97,-1.45,-1.45,0.58
41.35,-7.39,-7.98,-7.39,-7.98,6.00,6.49,5.92,-1.39,-1.39,0.59
41.76,-7.33,-7.92,-7.33,-7.92,6.00,6.47,5.88,-1.33,-1.33,0.60
42.18,-7.27,-7.87,-7.27,-7.87,6.00,6.45,5.84,-1.27,-1.27,0.60
42.60,-7.21,-7.81,-7.21,-7.82,6.00,6.43,5.80,-1.21,-1.21,0.61
43.03,-7.16,-7.77,-7.15,-7.77,6.00,6.41,5.77,-1.16,-1.15,0.61
43.46,-7.10,-7.72,-7.09,-7.71,6.00,6.39,5.74,-1.10,-1.09,0.62
43.90,-7.03,-7.65,-7.03,-7.66,6.00,6.36,5.72,-1.03,-1.03,0.62
44.33,-6.97,-7.61,-6.97,-7.60,6.00,6.34,5.70,-0.97,-0.97,0.64
44.78,-6.90,-7.54,-6.90,-7.54,6.00,6.31,5.69,-0.90,-0.90,0.64
45.23,-6.84,-7.49,-6.84,-7.49,6.00,6.29,5.68,-0.84,-0.84,0.65
45.68,-6.78,-7.44,-6.78,-7.44,6.00,6.26,5.67,-0.78,-0.78,0.66
46.13,-6.72,-7.39,-6.72,-7.39,6.00,6.23,5.67,-0.72,-0.72,0.67
46.60,-6.67,-7.35,-6.66,-7.34,6.00,6.20,5.67,-0.67,-0.66,0.68
47.06,-6.61,-7.29,-6.61,-7.30,6.00,6.17,5.68,-0.61,-0.61,0.69
47.53,-6.56,-7.26,-6.56,-7.26,6.00,6.14,5.69,-0.56,-0.56,0.70
48.01,-6.51,-7.21,-6.51,-7.21,6.00,6.11,5.71,-0.51,-0.51,0.70
48.49,-6.46,-7.18,-6.46,-7.17,6.00,6.07,5.72,-0.46,-0.46,0.72
48.97,-6.41,-7.13,-6.41,-7.13,6.00,6.04,5.75,-0.41,-0.41,0.72
49.46,-6.37,-7.10,-6.36,-7.09,6.00,6.01,5.77,-0.37,-0.36,0.73
49.96,-6.32,-7.05,-6.32,-7.06,6.00,5.97,5.80,-0.32,-0.32,0.74
50.46,-6.29,-7.03,-6.29,-7.03,6.00,5.93,5.83,-0.29,-0.29,0.74
50.96,-6.26,-7.01,-6.26,-7.00,6.00,5.90,5.86,-0.26,-0.26,0.75
51.47,-6.23,-6.98,-6.23,-6.98,6.00,5.86,5.90,-0.23,-0.23,0.75
51.99,-6.20,-6.95,-6.20,-6.95,6.00,5.82,5.94,-0.20,-0.20,0.75
52.51,-6.17,-6.92,-6.17,-6.92,6.00,5.78,5.97,-0.17,-0.17,0.76
53.03,-6.14,-6.89,-6.14,-6.90,6.00,5.74,6.01,-0.14,-0.14,0.76
53.56,-6.11,-6.87,-6.11,-6.88,6.00,5.70,6.05,-0.11,-0.11,0.77
54.10,-6.09,-6.86,-6.09,-6.85,6.00,5.66,6.09,-0.09,-0.09,0.77
54.64,-6.07,-6.84,-6.07,-6.83,6.00,5.62,6.13,-0.07,-0.07,0.77
55.18,-6.05,-6.80,-6.05,-6.81,6.00,5.58,6.17,-0.05,-0.05,0.76
55.74,-6.03,-6.78,-6.03,-6.78,6.00,5.53,6.21,-0.03,-0.03,0.76
56.29,-6.01,-6.76,-6.00,-6.76,6.00,5.49,6.24,-0.01,-0.00,0.75
56.86,-5.98,-6.72,-5.98,-6.72,6.00,5.45,6.27,0.02,0.02,0.74
57.42,-5.95,-6.69,-5.95,-6.69,6.00,5.40,6.30,0.05,0.05,0.74
58.00,-5.92,-6.65,-5.92,-6.65,6.00,5.36,6.32,0.08,0.08,0.73
58.58,-5.89,-6.61,-5.89,-6.61,6.00,5.31,6.34,0.11,0.11,0.73
59.16,-5.86,-6.57,-5.86,-6.57,6.00,5.27,6.35,0.14,0.14,0.71
59.76,-5.83,-6.53,-5.83,-6.53,6.00,5.22,6.36,0.17,0.17,0.70
60.35,-5.80,-6.48,-5.79,-6.48,6.00,5.18,6.36,0.20,0.21,0.69
60.96,-5.75,-6.42,-5.75,-6.42,6.00,5.13,6.35,0.25,0.25,0.67
61.57,-5.71,-6.36,-5.71,-6.36,6.01,5.08,6.34,0.30,0.30,0.66
62.18,-5.67,-6.31,-5.67,-6.31,6.01,5.04,6.32,0.34,0.34,0.64
62.80,-5.63,-6.25,-5.63,-6.25,6.01,4.99,6.29,0.39,0.39,0.62
63.43,-5.59,-6.20,-5.59,-6.19,6.01,4.94,6.26,0.42,0.42,0.61
64.07,-5.55,-6.13,-5.54,-6.13,6.00,4.89,6.22,0.45,0.45,0.58
64.71,-5.50,-6.06,-5.50,-6.06,5.98,4.85,6.17,0.48,0.48,0.56
65.35,-5.45,-5.99,-5.45,-5.99,5.94,4.80,6.11,0.50,0.49,0.55
66.01,-5.40,-5.92,-5.39,-5.92,5.90,4.75,6.05,0.50,0.51,0.53
66.67,-5.34,-5.85,-5.34,-5.84,5.85,4.70,5.99,0.51,0.51,0.51
67.33,-5.28,-5.77,-5.28,-5.77,5.78,4.65,5.91,0.51,0.50,0.49
68.01,-5.23,-5.69,-5.23,-5.69,5.71,4.60,5.84,0.49,0.48,0.46
68.69,-5.19,-5.63,-5.18,-5.62,5.64,4.55,5.75,0.45,0.45,0.44
69.37,-5.14,-5.55,-5.14,-5.56,5.56,4.50,5.67,0.42,0.42,0.42
70.07,-5.10,-5.49,-5.09,-5.49,5.48,4.46,5.58,0.38,0.39,0.39
70.77,-5.05,-5.42,-5.04,-5.41,5.41,4.41,5.48,0.36,0.37,0.37
71.48,-4.99,-5.34,-4.99,-5.34,5.34,4.36,5.39,0.35,0.34,0.35
72.19,-4.94,-5.26,-4.94,-5.27,5.26,4.31,5.29,0.33,0.33,0.33
72.91,-4.89,-5.20,-4.88,-5.19,5.19,4.26,5.19,0.30,0.31,0.31
73.64,-4.83,-5.11,-4.83,-5.12,5.12,4.21,5.09,0.29,0.29,0.29
74.38,-4.78,-5.05,-4.78,-5.05,5.05,4.16,4.99,0.27,0.27,0.27
75.12,-4.73,-4.97,-4.73,-4.97,4.98,4.11,4.89,0.25,0.25,0.24
75.87,-4.68,-4.91,-4.68,-4.91,4.91,4.06,4.79,0.24,0.23,0.23
76.63,-4.64,-4.85,-4.64,-4.85,4.85,4.01,4.69,0.21,0.21,0.21
77.40,-4.60,-4.79,-4.60,-4.79,4.79,3.96,4.59,0.19,0.19,0.19
78.17,-4.56,-4.73,-4.56,-4.73,4.73,3.91,4.49,0.17,0.17,0.18
78.95,-4.52,-4.67,-4.52,-4.67,4.67,3.86,4.40,0.15,0.15,0.16
79.74,-4.48,-4.61,-4.48,-4.61,4.61,3.81,4.30,0.13,0.13,0.14
80.54,-4.44,-4.55,-4.43,-4.55,4.55,3.76,4.21,0.11,0.11,0.12
81.35,-4.39,-4.48,-4.39,-4.49,4.49,3.71,4.12,0.10,0.10,0.10
82.16,-4.35,-4.42,-4.35,-4.42,4.43,3.66,4.03,0.08,0.08,0.07
82.98,-4.31,-4.36,-4.31,-4.36,4.37,3.62,3.94,0.06,0.06,0.05
83.81,-4.28,-4.31,-4.28,-4.31,4.31,3.57,3.86,0.04,0.04,0.03
84.65,-4.25,-4.26,-4.25,-4.26,4.26,3.52,3.78,0.01,0.01,0.01
85.50,-4.23,-4.21,-4.22,-4.21,4.21,3.47,3.70,-0.02,-0.01,-0.02
86.35,-4.20,-4.16,-4.20,-4.16,4.16,3.42,3.62,-0.04,-0.04,-0.04
87.22,-4.18,-4.11,-4.18,-4.11,4.11,3.37,3.55,-0.07,-0.07,-0.06
88.09,-4.16,-4.07,-4.16,-4.07,4.06,3.32,3.48,-0.10,-0.09,-0.09
88.97,-4.13,-4.02,-4.13,-4.02,4.01,3.27,3.41,-0.12,-0.12,-0.10
89.86,-4.10,-3.97,-4.09,-3.96,3.96,3.23,3.34,-0.14,-0.14,-0.13
90.76,-4.05,-3.89,-4.05,-3.90,3.90,3.18,3.28,-0.15,-0.15,-0.16
91.66,-4.01,-3.83,-4.01,-3.84,3.84,3.13,3.22,-0.16,-0.17,-0.17
92.58,-3.98,-3.78,-3.98,-3.78,3.79,3.08,3.16,-0.19,-0.19,-0.20
93.51,-3.95,-3.72,-3.94,-3.72,3.73,3.03,3.10,-0.22,-0.22,-0.23
94.44,-3.91,-3.66,-3.91,-3.66,3.66,2.99,3.05,-0.24,-0.25,-0.24
95.39,-3.88,-3.61,-3.88,-3.61,3.60,2.94,3.00,-0.28,-0.28,-0.27
96.34,-3.84,-3.55,-3.83,-3.54,3.53,2.89,2.95,-0.31,-0.30,-0.29
97.30,-3.79,-3.47,-3.79,-3.47,3.46,2.85,2.90,-0.33,-0.33,-0.32
98.28,-3.74,-3.39,-3.74,-3.39,3.38,2.80,2.86,-0.35,-0.35,-0.35
99.26,-3.69,-3.31,-3.68,-3.31,3.31,2.75,2.82,-0.38,-0.37,-0.38
100.25,-3.63,-3.23,-3.63,-3.23,3.24,2.71,2.77,-0.39,-0.39,-0.40
101.25,-3.58,-3.15,-3.58,-3.15,3.16,2.66,2.73,-0.41,-0.41,-0.43
102.27,-3.53,-3.07,-3.54,-3.08,3.10,2.61,2.70,-0.43,-0.44,-0.45
103.29,-3.51,-3.01,-3.51,-3.02,3.03,2.57,2.66,-0.48,-0.48,-0.49
104.32,-3.49,-2.96,-3.48,-2.96,2.97,2.52,2.63,-0.52,-0.52,-0.52
105.37,-3.47,-2.92,-3.47,-2.91,2.90,2.47,2.59,-0.56,-0.57,-0.55
106.42,-3.45,-2.86,-3.45,-2.86,2.84,2.43,2.56,-0.61,-0.61,-0.59
107.48,-3.43,-2.80,-3.42,-2.79,2.78,2.38,2.53,-0.65,-0.64,-0.63
108.56,-3.39,-2.72,-3.39,-2.72,2.71,2.34,2.49,-0.68,-0.68,-0.67
109.64,-3.35,-2.64,-3.35,-2.64,2.64,2.29,2.46,-0.70,-0.71,-0.71
110.74,-3.32,-2.57,-3.31,-2.56,2.57,2.25,2.43,-0.74,-0.74,-0.75
111.85,-3.28,-2.49,-3.28,-2.49,2.50,2.20,2.40,-0.78,-0.79,-0.79
112.97,-3.26,-2.42,-3.26,-2.42,2.42,2.16,2.37,-0.83,-0.83,-0.84
114.10,-3.24,-2.36,-3.23,-2.35,2.35,2.11,2.34,-0.89,-0.88,-0.88
115.24,-3.20,-2.27,-3.20,-2.28,2.28,2.07,2.31,-0.92,-0.93,-0.92
116.39,-3.18,-2.22,-3.18,-2.21,2.21,2.02,2.27,-0.97,-0.97,-0.96
117.55,-3.15,-2.14,-3.14,-2.14,2.14,1.98,2.24,-1.01,-1.01,-1.01
118.73,-3.12,-2.07,-3.12,-2.07,2.07,1.93,2.21,-1.04,-1.04,-1.05
119.92,-3.09,-1.99,-3.09,-2.00,2.01,1.89,2.17,-1.07,-1.08,-1.09
121.12,-3.08,-1.95,-3.08,-1.95,1.96,1.84,2.14,-1.12,-1.12,-1.13
122.33,-3.07,-1.90,-3.07,-1.90,1.91,1.80,2.10,-1.16,-1.16,-1.17
123.55,-3.06,-1.86,-3.06,-1.86,1.86,1.75,2.06,-1.20,-1.20,-1.20
124.79,-3.06,-1.82,-3.05,-1.81,1.81,1.71,2.02,-1.25,-1.24,-1.24
126.03,-3.04,-1.76,-3.04,-1.77,1.76,1.66,1.98,-1.28,-1.28,-1.27
127.29,-3.03,-1.72,-3.03,-1.72,1.71,1.62,1.93,-1.32,-1.32,-1.31
128.57,-3.02,-1.68,-3.01,-1.67,1.66,1.57,1.89,-1.36,-1.35,-1.34
129.85,-2.98,-1.60,-2.98,-1.61,1.61,1.53,1.84,-1.37,-1.37,-1.37
131.15,-2.95,-1.54,-2.95,-1.55,1.55,1.48,1.79,-1.40,-1.40,-1.41
132.46,-2.93,-1.49,-2.92,-1.49,1.49,1.44,1.74,-1.43,-1.43,-1.44
133.79,-2.90,-1.44,-2.90,-1.43,1.43,1.39,1.69,-1.46,-1.47,-1.46
135.12,-2.87,-1.37,-2.87,-1.37,1.37,1.35,1.64,-1.50,-1.50,-1.49
136.48,-2.84,-1.31,-2.84,-1.31,1.31,1.30,1.58,-1.53,-1.53,-1.52
137.84,-2.80,-1.24,-2.80,-1.25,1.24,1.26,1.53,-1.56,-1.56,-1.56
139.22,-2.77,-1.18,-2.76,-1.18,1.17,1.21,1.47,-1.59,-1.59,-1.58
140.61,-2.73,-1.11,-2.72,-1.11,1.11,1.17,1.42,-1.62,-1.61,-1.61
142.02,-2.67,-1.04,-2.68,-1.04,1.05,1.12,1.36,-1.62,-1.63,-1.63
143.44,-2.64,-0.98,-2.63,-0.97,0.99,1.08,1.30,-1.65,-1.65,-1.66
144.87,-2.60,-0.91,-2.60,-0.91,0.93,1.03,1.24,-1.67,-1.67,-1.69
146.32,-2.59,-0.86,-2.59,-0.87,0.87,0.98,1.18,-1.71,-1.71,-1.72
147.78,-2.57,-0.82,-2.57,-0.82,0.82,0.93,1.11,-1.75,-1.75,-1.75
149.26,-2.56,-0.78,-2.55,-0.77,0.76,0.89,1.05,-1.80,-1.79,-1.78
150.75,-2.52,-0.72,-2.52,-0.72,0.70,0.84,0.99,-1.82,-1.82,-1.80
152.26,-2.48,-0.65,-2.48,-0.65,0.64,0.79,0.93,-1.84,-1.84,-1.83
153.78,-2.43,-0.57,-2.43,-0.57,0.57,0.74,0.86,-1.86,-1.86,-1.86
155.32,-2.39,-0.51,-2.38,-0.50,0.51,0.69,0.80,-1.88,-1.88,-1.88
156.88,-2.34,-0.43,-2.34,-0.43,0.45,0.64,0.74,-1.89,-1.89,-1.91
158.44,-2.30,-0.37,-2.30,-0.37,0.38,0.59,0.67,-1.91,-1.91,-1.93
160.03,-2.26,-0.30,-2.27,-0.31,0.33,0.54,0.61,-1.93,-1.94,-1.96
161.63,-2.25,-0.27,-2.25,-0.27,0.27,0.49,0.54,-1.98,-1.98,-1.98
163.24,-2.24,-0.23,-2.23,-0.22,0.21,0.44,0.48,-2.03,-2.01,-2.01
164.88,-2.20,-0.17,-2.20,-0.17,0.16,0.39,0.41,-2.04,-2.05,-2.03
166.53,-2.17,-0.11,-2.17,-0.11,0.10,0.33,0.35,-2.07,-2.07,-2.06
168.19,-2.14,-0.05,-2.13,-0.04,0.04,0.28,0.28,-2.10,-2.09,-2.09
169.87,-2.09,0.03,-2.09,0.02,-0.03,0.22,0.22,-2.11,-2.12,-2.12
171.57,-2.05,0.10,-2.05,0.09,-0.09,0.17,0.15,-2.14,-2.14,-2.14
173.29,-2.01,0.16,-2.01,0.17,-0.15,0.11,0.09,-2.16,-2.16,-2.17
175.02,-1.97,0.23,-1.97,0.23,-0.22,0.05,0.02,-2.19,-2.19,-2.20
176.77,-1.94,0.30,-1.94,0.29,-0.28,-0.00,-0.04,-2.22,-2.23,-2.23
178.54,-1.92,0.34,-1.92,0.34,-0.35,-0.06,-0.11,-2.26,-2.26,-2.26
180.32,-1.90,0.40,-1.89,0.40,-0.41,-0.12,-0.17,-2.31,-2.30,-2.29
182.13,-1.87,0.45,-1.86,0.46,-0.47,-0.18,-0.24,-2.34,-2.33,-2.32
183.95,-1.83,0.52,-1.83,0.52,-0.53,-0.24,-0.31,-2.35,-2.36,-2.35
185.79,-1.80,0.59,-1.80,0.58,-0.58,-0.31,-0.37,-2.38,-2.38,-2.39
187.65,-1.78,0.63,-1.78,0.64,-0.63,-0.37,-0.44,-2.41,-2.41,-2.41
189.52,-1.76,0.68,-1.76,0.69,-0.68,-0.43,-0.50,-2.43,-2.43,-2.44
191.42,-1.75,0.73,-1.75,0.73,-0.72,-0.49,-0.57,-2.46,-2.46,-2.48
193.33,-1.74,0.77,-1.74,0.76,-0.75,-0.56,-0.64,-2.49,-2.49,-2.51
195.27,-1.75,0.78,-1.75,0.79,-0.78,-0.62,-0.70,-2.53,-2.52,-2.53
197.22,-1.76,0.80,-1.76,0.80,-0.80,-0.69,-0.77,-2.56,-2.56,-2.56
199.19,-1.77,0.82,-1.77,0.82,-0.83,-0.75,-0.83,-2.60,-2.60,-2.59
201.18,-1.79,0.84,-1.78,0.85,-0.85,-0.82,-0.90,-2.64,-2.63,-2.63
203.19,-1.79,0.87,-1.78,0.88,-0.88,-0.88,-0.96,-2.67,-2.67,-2.66
205.23,-1.78,0.91,-1.78,0.91,-0.92,-0.94,-1.03,-2.69,-2.70,-2.69
207.28,-1.77,0.95,-1.77,0.95,-0.96,-1.00,-1.09,-2.73,-2.73,-2.72
209.35,-1.76,0.99,-1.75,1.00,-1.01,-1.07,-1.15,-2.77,-2.76,-2.75
211.44,-1.73,1.06,-1.73,1.06,-1.07,-1.13,-1.22,-2.80,-2.80,-2.79
213.56,-1.70,1.12,-1.70,1.13,-1.13,-1.18,-1.28,-2.83,-2.83,-2.82
215.69,-1.66,1.20,-1.65,1.20,-1.20,-1.24,-1.33,-2.86,-2.86,-2.86
217.85,-1.61,1.29,-1.61,1.27,-1.27,-1.29,-1.39,-2.88,-2.89,-2.89
220.03,-1.58,1.34,-1.58,1.35,-1.34,-1.35,-1.45,-2.92,-2.92,-2.92
222.23,-1.55,1.40,-1.54,1.41,-1.40,-1.39,-1.50,-2.95,-2.95,-2.95
224.45,-1.52,1.47,-1.52,1.46,-1.46,-1.44,-1.55,-2.98,-2.98,-2.99
226.70,-1.50,1.52,-1.50,1.51,-1.51,-1.48,-1.60,-3.00,-3.01,-3.01
228.96,-1.49,1.55,-1.49,1.55,-1.54,-1.52,-1.65,-3.03,-3.03,-3.04
231.25,-1.50,1.57,-1.50,1.57,-1.56,-1.55,-1.69,-3.06,-3.06,-3.07
233.57,-1.51,1.57,-1.51,1.58,-1.57,-1.58,-1.73,-3.08,-3.08,-3.08
235.90,-1.53,1.58,-1.53,1.58,-1.57,-1.61,-1.77,-3.10,-3.10,-3.11
238.26,-1.55,1.58,-1.55,1.57,-1.56,-1.63,-1.80,-3.11,-3.11,-3.12
240.64,-1.59,1.55,-1.59,1.55,-1.55,-1.65,-1.83,-3.13,-3.13,-3.14
243.05,-1.63,1.53,-1.63,1.52,-1.53,-1.66,-1.85,-3.15,-3.16,-3.16
245.48,-1.68,1.49,-1.67,1.50,-1.50,-1.67,-1.88,-3.18,-3.18,-3.17
247.93,-1.72,1.47,-1.71,1.47,-1.48,-1.68,-1.89,-3.20,-3.20,-3.19
250.41,-1.74,1.46,-1.74,1.46,-1.47,-1.68,-1.91,-3.20,-3.21,-3.20
252.92,-1.77,1.45,-1.76,1.45,-1.46,-1.68,-1.92,-3.22,-3.22,-3.21
255.45,-1.78,1.45,-1.78,1.45,-1.45,-1.68,-1.92,-3.23,-3.23,-3.23
258.00,-1.79,1.46,-1.79,1.45,-1.46,-1.67,-1.92,-3.25,-3.25,-3.24
260.58,-1.79,1.46,-1.79,1.47,-1.47,-1.67,-1.92,-3.26,-3.26,-3.25
263.19,-1.78,1.48,-1.78,1.48,-1.49,-1.65,-1.92,-3.27,-3.27,-3.26
265.82,-1.77,1.51,-1.77,1.51,-1.51,-1.64,-1.91,-3.28,-3.28,-3.28
268.48,-1.76,1.53,-1.76,1.53,-1.53,-1.63,-1.90,-3.29,-3.29,-3.29
271.16,-1.75,1.55,-1.75,1.56,-1.55,-1.61,-1.88,-3.30,-3.30,-3.30
273.87,-1.74,1.58,-1.74,1.57,-1.57,-1.60,-1.86,-3.30,-3.31,-3.32
276.61,-1.75,1.58,-1.75,1.58,-1.58,-1.58,-1.84,-3.32,-3.32,-3.33
279.38,-1.76,1.58,-1.75,1.59,-1.58,-1.56,-1.82,-3.34,-3.34,-3.34
282.17,-1.77,1.59,-1.77,1.59,-1.58,-1.54,-1.79,-3.35,-3.35,-3.36
284.99,-1.79,1.58,-1.79,1.58,-1.57,-1.53,-1.76,-3.36,-3.36,-3.37
287.84,-1.82,1.56,-1.82,1.56,-1.56,-1.51,-1.73,-3.38,-3.38,-3.38
290.72,-1.85,1.55,-1.85,1.54,-1.54,-1.49,-1.70,-3.39,-3.39,-3.39
293.63,-1.89,1.52,-1.88,1.52,-1.52,-1.48,-1.67,-3.41,-3.41,-3.41
296.57,-1.92,1.50,-1.92,1.50,-1.50,-1.46,-1.64,-3.42,-3.42,-3.42
299.53,-1.95,1.48,-1.95,1.48,-1.48,-1.44,-1.60,-3.43,-3.43,-3.43
302.53,-1.99,1.46,-1.99,1.46,-1.46,-1.43,-1.57,-3.45,-3.45,-3.44
305.55,-2.02,1.45,-2.02,1.44,-1.45,-1.41,-1.53,-3.46,-3.47,-3.47
308.61,-2.05,1.43,-2.05,1.43,-1.43,-1.40,-1.50,-3.48,-3.48,-3.48
311.69,-2.07,1.42,-2.07,1.43,-1.43,-1.39,-1.46,-3.50,-3.49,-3.49
314.81,-2.08,1.43,-2.08,1.43,-1.43,-1.38,-1.43,-3.51,-3.51,-3.51
317.96,-2.10,1.43,-2.10,1.43,-1.43,-1.37,-1.39,-3.53,-3.53,-3.52
321.14,-2.11,1.44,-2.10,1.44,-1.44,-1.36,-1.36,-3.55,-3.55,-3.55
324.35,-2.11,1.45,-2.11,1.45,-1.46,-1.35,-1.32,-3.57,-3.56,-3.56
327.59,-2.10,1.48,-2.10,1.48,-1.48,-1.34,-1.29,-3.58,-3.58,-3.58
330.87,-2.09,1.50,-2.09,1.50,-1.50,-1.34,-1.25,-3.59,-3.59,-3.59
334.18,-2.09,1.52,-2.08,1.53,-1.52,-1.33,-1.22,-3.61,-3.61,-3.61
337.52,-2.08,1.55,-2.08,1.55,-1.55,-1.33,-1.19,-3.63,-3.63,-3.62
340.90,-2.07,1.58,-2.07,1.57,-1.57,-1.32,-1.16,-3.64,-3.64,-3.64
344.30,-2.07,1.59,-2.07,1.59,-1.59,-1.32,-1.12,-3.66,-3.66,-3.66
347.75,-2.07,1.61,-2.07,1.61,-1.60,-1.32,-1.09,-3.67,-3.67,-3.68
351.23,-2.08,1.62,-2.08,1.62,-1.61,-1.32,-1.06,-3.69,-3.69,-3.70
354.74,-2.09,1.62,-2.09,1.62,-1.62,-1.31,-1.03,-3.70,-3.71,-3.71
358.28,-2.12,1.61,-2.11,1.62,-1.61,-1.31,-1.01,-3.73,-3.73,-3.73
361.87,-2.14,1.61,-2.14,1.61,-1.61,-1.31,-0.98,-3.74,-3.74,-3.75
365.49,-2.17,1.60,-2.17,1.60,-1.59,-1.32,-0.95,-3.76,-3.76,-3.76
369.14,-2.20,1.59,-2.20,1.58,-1.58,-1.32,-0.92,-3.78,-3.78,-3.78
372.83,-2.24,1.56,-2.24,1.56,-1.57,-1.32,-0.90,-3.80,-3.80,-3.80
376.56,-2.28,1.54,-2.27,1.54,-1.55,-1.32,-0.88,-3.83,-3.82,-3.82
380.33,-2.30,1.54,-2.30,1.53,-1.54,-1.33,-0.85,-3.84,-3.84,-3.84
384.13,-2.33,1.52,-2.33,1.53,-1.53,-1.33,-0.83,-3.85,-3.85,-3.85
387.97,-2.35,1.52,-2.35,1.52,-1.52,-1.33,-0.81,-3.86,-3.86,-3.87
391.85,-2.37,1.51,-2.37,1.51,-1.51,-1.34,-0.79,-3.88,-3.88,-3.88
395.77,-2.39,1.50,-2.39,1.50,-1.50,-1.34,-0.77,-3.89,-3.89,-3.89
399.73,-2.41,1.49,-2.41,1.49,-1.50,-1.35,-0.75,-3.91,-3.91,-3.90
403.72,-2.43,1.48,-2.42,1.49,-1.49,-1.35,-0.73,-3.92,-3.92,-3.91
407.76,-2.44,1.49,-2.44,1.49,-1.49,-1.36,-0.71,-3.92,-3.93,-3.92
411.84,-2.46,1.49,-2.46,1.48,-1.48,-1.36,-0.70,-3.93,-3.93,-3.94
415.96,-2.48,1.48,-2.48,1.47,-1.46,-1.37,-0.69,-3.94,-3.94,-3.95
420.12,-2.51,1.46,-2.51,1.46,-1.45,-1.37,-0.67,-3.96,-3.96,-3.96
424.32,-2.54,1.44,-2.54,1.44,-1.44,-1.38,-0.66,-3.97,-3.97,-3.98
428.56,-2.57,1.42,-2.57,1.42,-1.42,-1.38,-0.65,-3.99,-3.99,-3.99
432.85,-2.60,1.41,-2.60,1.40,-1.41,-1.38,-0.64,-4.00,-4.01,-4.01
437.18,-2.64,1.38,-2.63,1.38,-1.39,-1.39,-0.63,-4.03,-4.02,-4.02
441.55,-2.66,1.37,-2.66,1.37,-1.38,-1.39,-0.63,-4.04,-4.04,-4.03
445.96,-2.68,1.37,-2.68,1.37,-1.37,-1.39,-0.62,-4.05,-4.05,-4.05
