frequency,raw
20.00,-21.59
20.20,-21.46
20.40,-21.35
20.61,-21.22
20.81,-21.09
21.02,-20.96
21.23,-20.83
21.44,-20.69
21.66,-20.56
21.87,-20.43
22.09,-20.29
22.31,-20.15
22.54,-20.00
22.76,-19.86
22.99,-19.72
23.22,-19.57
23.45,-19.43
23.69,-19.28
23.92,-19.13
24.16,-18.99
24.40,-18.83
24.65,-18.68
24.89,-18.52
25.14,-18.37
25.39,-18.21
25.65,-18.04
25.91,-17.88
26.16,-17.72
26.43,-17.55
26.69,-17.39
26.96,-17.22
27.23,-17.06
27.50,-16.89
27.77,-16.73
28.05,-16.55
28.33,-16.39
28.62,-16.22
28.90,-16.05
29.19,-15.88
29.48,-15.71
29.78,-15.54
30.08,-15.37
30.38,-15.21
30.68,-15.04
30.99,-14.87
31.30,-14.69
31.61,-14.51
31.93,-14.33
32.24,-14.15
32.57,-13.97
32.89,-13.78
33.22,-13.60
33.55,-13.41
33.89,-13.22
34.23,-13.04
34.57,-12.86
34.92,-12.67
35.27,-12.48
35.62,-12.27
35.97,-12.08
36.33,-11.89
36.70,-11.70
37.06,-11.51
37.43,-11.32
37.81,-11.13
38.19,-10.95
38.57,-10.75
38.95,-10.54
39.34,-10.35
39.74,-10.16
40.14,-9.95
40.54,-9.76
40.94,-9.56
41.35,-9.37
41.76,-9.18
42.18,-9.00
42.60,-8.81
43.03,-8.62
43.46,-8.44
43.90,-8.25
44.33,-8.07
44.78,-7.90
45.23,-7.72
45.68,-7.54
46.13,-7.36
46.60,-7.19
47.06,-7.02
47.53,-6.85
48.01,-6.69
48.49,-6.53
48.97,-6.38
49.46,-6.23
49.96,-6.07
50.46,-5.93
50.96,-5.78
51.47,-5.63
51.99,-5.48
52.51,-5.35
53.03,-5.20
53.56,-5.06
54.10,-4.92
54.64,-4.79
55.18,-4.64
55.74,-4.51
56.29,-4.37
56.86,-4.24
57.42,-4.11
58.00,-3.97
58.58,-3.83
59.16,-3.68
59.76,-3.55
60.35,-3.43
60.96,-3.30
61.57,-3.18
62.18,-3.05
62.80,-2.93
63.43,-2.82
64.07,-2.72
64.71,-2.61
65.35,-2.51
66.01,-2.42
66.67,-2.34
67.33,-2.27
68.01,-2.21
68.69,-2.15
69.37,-2.12
70.07,-2.09
70.77,-2.05
71.48,-2.02
72.19,-1.98
72.91,-1.95
73.64,-1.92
74.38,-1.90
75.12,-1.88
75.87,-1.86
76.63,-1.86
77.40,-1.85
78.17,-1.85
78.95,-1.86
79.74,-1.87
80.54,-1.89
81.35,-1.90
82.16,-1.92
82.98,-1.94
83.81,-1.97
84.65,-1.99
85.50,-2.03
86.35,-2.07
87.22,-2.11
88.09,-2.15
88.97,-2.18
89.86,-2.20
90.76,-2.21
91.66,-2.21
92.58,-2.22
93.51,-2.24
94.44,-2.27
95.39,-2.30
96.34,-2.34
97.30,-2.37
98.28,-2.41
99.26,-2.44
100.25,-2.47
101.25,-2.50
102.27,-2.52
103.29,-2.54
104.32,-2.55
105.37,-2.57
106.42,-2.59
107.48,-2.59
108.56,-2.60
109.64,-2.59
110.74,-2.57
111.85,-2.54
112.97,-2.53
114.10,-2.54
115.24,-2.55
116.39,-2.56
117.55,-2.60
118.73,-2.63
119.92,-2.68
121.12,-2.72
122.33,-2.76
123.55,-2.80
124.79,-2.85
126.03,-2.89
127.29,-2.91
128.57,-2.95
129.85,-3.00
131.15,-3.03
132.46,-3.05
133.79,-3.09
135.12,-3.12
136.48,-3.15
137.84,-3.19
139.22,-3.22
140.61,-3.26
142.02,-3.31
143.44,-3.33
144.87,-3.36
146.32,-3.37
147.78,-3.38
149.26,-3.40
150.75,-3.42
152.26,-3.43
153.78,-3.44
155.32,-3.45
156.88,-3.49
158.44,-3.52
160.03,-3.56
161.63,-3.58
163.24,-3.61
164.88,-3.67
166.53,-3.69
168.19,-3.71
169.87,-3.74
171.57,-3.76
173.29,-3.77
175.02,-3.77
176.77,-3.77
178.54,-3.76
180.32,-3.76
182.13,-3.78
183.95,-3.80
185.79,-3.83
187.65,-3.86
189.52,-3.90
191.42,-3.94
193.33,-3.97
195.27,-4.01
197.22,-4.05
199.19,-4.09
201.18,-4.13
203.19,-4.16
205.23,-4.19
207.28,-4.22
209.35,-4.24
211.44,-4.25
213.56,-4.26
215.69,-4.25
217.85,-4.25
220.03,-4.24
222.23,-4.22
224.45,-4.19
226.70,-4.15
228.96,-4.13
231.25,-4.11
233.57,-4.07
235.90,-4.01
238.26,-3.98
240.64,-3.93
243.05,-3.88
245.48,-3.81
247.93,-3.75
250.41,-3.69
252.92,-3.61
255.45,-3.55
258.00,-3.49
260.58,-3.40
263.19,-3.31
265.82,-3.21
268.48,-3.13
271.16,-3.07
273.87,-2.98
276.61,-2.93
279.38,-2.87
282.17,-2.81
284.99,-2.76
287.84,-2.69
290.72,-2.64
293.63,-2.59
296.57,-2.55
299.53,-2.51
302.53,-2.46
305.55,-2.41
308.61,-2.37
311.69,-2.34
314.81,-2.33
317.96,-2.34
321.14,-2.35
324.35,-2.38
327.59,-2.41
330.87,-2.44
334.18,-2.45
337.52,-2.47
340.90,-2.48
344.30,-2.48
347.75,-2.46
351.23,-2.45
354.74,-2.45
358.28,-2.43
361.87,-2.41
365.49,-2.36
369.14,-2.31
372.83,-2.27
376.56,-2.22
380.33,-2.19
384.13,-2.17
387.97,-2.14
391.85,-2.10
395.77,-2.06
399.73,-2.00
403.72,-1.95
407.76,-1.88
411.84,-1.81
415.96,-1.73
420.12,-1.65
424.32,-1.58
428.56,-1.51
432.85,-1.46
437.18,-1.38
441.55,-1.31
445.96,-1.23
450.42,-1.15
454.93,-1.08
459.48,-1.02
464.07,-0.95
468.71,-0.90
473.40,-0.84
478.13,-0.80
482.91,-0.75
487.74,-0.72
492.62,-0.69
497.55,-0.66
502.52,-0.63
507.55,-0.61
512.62,-0.61
517.75,-0.60
522.93,-0.60
528.16,-0.59
533.44,-0.59
538.77,-0.60
544.16,-0.61
549.60,-0.63
555.10,-0.65
560.65,-0.68
566.25,-0.71
571.92,-0.75
577.64,-0.77
583.41,-0.80
589.25,-0.83
595.14,-0.86
601.09,-0.88
607.10,-0.89
613.17,-0.89
619.30,-0.90
625.50,-0.89
631.75,-0.90
638.07,-0.88
644.45,-0.85
650.89,-0.84
657.40,-0.83
663.98,-0.82
670.62,-0.80
677.32,-0.76
684.10,-0.72
690.94,-0.68
697.85,-0.63
704.83,-0.57
711.87,-0.49
718.99,-0.43
726.18,-0.34
733.44,-0.24
740.78,-0.14
748.19,-0.06
755.67,0.02
763.23,0.11
770.86,0.18
778.57,0.26
786.35,0.34
794.22,0.41
802.16,0.47
810.18,0.54
818.28,0.59
826.46,0.64
834.73,0.69
843.08,0.72
851.51,0.74
860.02,0.77
868.62,0.79
877.31,0.79
886.08,0.78
894.94,0.76
903.89,0.72
912.93,0.67
922.06,0.60
931.28,0.53
940.59,0.45
950.00,0.35
959.50,0.23
969.09,0.11
978.78,-0.00
988.57,-0.14
998.46,-0.27
1008.44,-0.40
1018.53,-0.54
1028.71,-0.69
1039.00,-0.82
1049.39,-0.94
1059.88,-1.07
1070.48,-1.17
1081.19,-1.26
1092.00,-1.34
1102.92,-1.39
1113.95,-1.44
1125.09,-1.46
1136.34,-1.48
1147.70,-1.48
1159.18,-1.47
1170.77,-1.42
1182.48,-1.36
1194.30,-1.27
1206.25,-1.16
1218.31,-1.02
1230.49,-0.86
1242.80,-0.67
1255.22,-0.47
1267.78,-0.25
1280.45,0.00
1293.26,0.27
1306.19,0.54
1319.25,0.84
1332.45,1.15
1345.77,1.45
1359.23,1.76
1372.82,2.08
1386.55,2.38
1400.41,2.68
1414.42,2.96
1428.56,3.24
1442.85,3.52
1457.28,3.79
1471.85,4.03
1486.57,4.28
1501.43,4.48
1516.45,4.68
1531.61,4.87
1546.93,5.04
1562.40,5.18
1578.02,5.32
1593.80,5.45
1609.74,5.55
1625.84,5.65
1642.10,5.73
1658.52,5.79
1675.10,5.84
1691.85,5.88
1708.77,5.91
1725.86,5.90
1743.12,5.91
1760.55,5.88
1778.15,5.83
1795.94,5.78
1813.90,5.70
1832.03,5.61
1850.36,5.50
1868.86,5.40
1887.55,5.28
1906.42,5.16
1925.49,5.03
1944.74,4.89
1964.19,4.75
1983.83,4.60
2003.67,4.47
2023.71,4.33
2043.94,4.22
2064.38,4.10
2085.03,3.98
2105.88,3.87
2126.94,3.73
2148.20,3.61
2169.69,3.49
2191.38,3.37
2213.30,3.24
2235.43,3.12
2257.78,3.01
2280.36,2.90
2303.17,2.78
2326.20,2.69
2349.46,2.61
2372.95,2.52
2396.68,2.45
2420.65,2.40
2444.86,2.37
2469.31,2.33
2494.00,2.31
2518.94,2.28
2544.13,2.25
2569.57,2.23
2595.27,2.21
2621.22,2.21
2647.43,2.20
2673.90,2.20
2700.64,2.19
2727.65,2.17
2754.93,2.17
2782.48,2.16
2810.30,2.17
2838.40,2.20
2866.79,2.24
2895.46,2.31
2924.41,2.41
2953.65,2.54
2983.19,2.68
3013.02,2.85
3043.15,3.04
3073.58,3.26
3104.32,3.50
3135.36,3.77
3166.72,4.04
3198.38,4.35
3230.37,4.66
3262.67,4.97
3295.30,5.26
3328.25,5.56
3361.53,5.84
3395.15,6.10
3429.10,6.33
3463.39,6.54
3498.03,6.71
3533.01,6.85
3568.34,6.94
3604.02,7.01
3640.06,7.02
3676.46,6.99
3713.22,6.93
3750.36,6.85
3787.86,6.73
3825.74,6.60
3864.00,6.44
3902.64,6.29
3941.66,6.11
3981.08,5.92
4020.89,5.72
4061.10,5.51
4101.71,5.27
4142.73,5.02
4184.15,4.74
4226.00,4.43
4268.26,4.09
4310.94,3.74
4354.05,3.36
4397.59,2.94
4441.56,2.52
4485.98,2.11
4530.84,1.69
4576.15,1.27
4621.91,0.86
4668.13,0.49
4714.81,0.12
4761.96,-0.22
4809.58,-0.55
4857.67,-0.83
4906.25,-1.06
4955.31,-1.26
5004.87,-1.39
5054.91,-1.47
5105.46,-1.49
5156.52,-1.45
5208.08,-1.33
5260.16,-1.13
5312.77,-0.88
5365.89,-0.58
5419.55,-0.25
5473.75,0.14
5528.49,0.53
5583.77,0.93
5639.61,1.30
5696.00,1.63
5752.96,1.92
5810.49,2.15
5868.60,2.33
5927.28,2.46
5986.56,2.54
6046.42,2.55
6106.89,2.52
6167.96,2.44
6229.64,2.33
6291.93,2.18
6354.85,2.00
6418.40,1.79
6482.58,1.55
6547.41,1.31
6612.88,1.04
6679.01,0.77
6745.80,0.50
6813.26,0.23
6881.39,-0.02
6950.21,-0.26
7019.71,-0.47
7089.91,-0.65
7160.81,-0.80
7232.41,-0.89
7304.74,-0.93
7377.79,-0.94
7451.56,-0.89
7526.08,-0.81
7601.34,-0.71
7677.35,-0.60
7754.13,-0.48
7831.67,-0.35
7909.98,-0.24
7989.08,-0.18
8068.98,-0.18
8149.67,-0.25
8231.16,-0.40
8313.47,-0.65
8396.61,-1.00
8480.57,-1.44
8565.38,-1.97
8651.03,-2.57
8737.54,-3.24
8824.92,-3.94
8913.17,-4.68
9002.30,-5.44
9092.32,-6.16
9183.25,-6.86
9275.08,-7.50
9367.83,-8.06
9461.51,-8.53
9556.12,-8.88
9651.68,-9.09
9748.20,-9.21
9845.68,-9.24
9944.14,-9.20
10043.58,-9.10
10144.02,-8.97
10245.46,-8.82
10347.91,-8.67
10451.39,-8.56
10555.91,-8.48
10661.46,-8.42
10768.08,-8.40
10875.76,-8.41
10984.52,-8.44
11094.36,-8.47
11205.31,-8.51
11317.36,-8.53
11430.53,-8.51
11544.84,-8.46
11660.29,-8.34
11776.89,-8.18
11894.66,-7.98
12013.60,-7.75
12133.74,-7.52
12255.08,-7.32
12377.63,-7.17
12501.41,-7.10
12626.42,-7.10
12752.68,-7.21
12880.21,-7.39
13009.01,-7.64
13139.10,-7.93
13270.49,-8.27
13403.20,-8.62
13537.23,-9.00
13672.60,-9.39
13809.33,-9.79
13947.42,-10.18
14086.90,-10.56
14227.77,-10.88
14370.04,-11.15
14513.74,-11.37
14658.88,-11.52
14805.47,-11.62
14953.52,-11.65
15103.06,-11.64
15254.09,-11.58
15406.63,-11.50
15560.70,-11.41
15716.30,-11.34
15873.47,-11.29
16032.20,-11.27
16192.52,-11.32
16354.45,-11.43
16517.99,-11.59
16683.17,-11.83
16850.01,-12.13
17018.51,-12.52
17188.69,-12.96
17360.58,-13.48
17534.18,-14.05
17709.53,-14.67
17886.62,-15.30
18065.49,-15.87
18246.14,-16.48
18428.60,-17.12
18612.89,-17.79
18799.02,-18.47
18987.01,-19.18
19176.88,-19.90
19368.65,-20.66
19562.33,-21.44
19757.96,-22.25
19955.54,-23.08
