frequency,raw
20.00,5.58
20.20,5.64
20.40,5.69
20.61,5.74
20.81,5.79
21.02,5.84
21.23,5.89
21.44,5.94
21.66,5.99
21.87,6.03
22.09,6.08
22.31,6.12
22.54,6.16
22.76,6.20
22.99,6.24
23.22,6.28
23.45,6.31
23.69,6.35
23.92,6.38
24.16,6.42
24.40,6.44
24.65,6.48
24.89,6.51
25.14,6.55
25.39,6.58
25.65,6.61
25.91,6.65
26.16,6.68
26.43,6.70
26.69,6.74
26.96,6.77
27.23,6.80
27.50,6.83
27.77,6.86
28.05,6.89
28.33,6.92
28.62,6.94
28.90,6.97
29.19,7.00
29.48,7.02
29.78,7.04
30.08,7.07
30.38,7.10
30.68,7.12
30.99,7.14
31.30,7.16
31.61,7.19
31.93,7.21
32.24,7.22
32.57,7.25
32.89,7.26
33.22,7.28
33.55,7.31
33.89,7.33
34.23,7.35
34.57,7.37
34.92,7.39
35.27,7.40
35.62,7.42
35.97,7.44
36.33,7.45
36.70,7.46
37.06,7.47
37.43,7.49
37.81,7.50
38.19,7.50
38.57,7.52
38.95,7.53
39.34,7.55
39.74,7.55
40.14,7.57
40.54,7.58
40.94,7.59
41.35,7.59
41.76,7.60
42.18,7.60
42.60,7.61
43.03,7.60
43.46,7.60
43.90,7.59
44.33,7.59
44.78,7.59
45.23,7.59
45.68,7.58
46.13,7.58
46.60,7.58
47.06,7.58
47.53,7.59
48.01,7.59
48.49,7.59
48.97,7.59
49.46,7.59
49.96,7.59
50.46,7.59
50.96,7.59
51.47,7.58
51.99,7.58
52.51,7.58
53.03,7.58
53.56,7.58
54.10,7.57
54.64,7.57
55.18,7.57
55.74,7.57
56.29,7.56
56.86,7.56
57.42,7.56
58.00,7.55
58.58,7.55
59.16,7.55
59.76,7.54
60.35,7.54
60.96,7.54
61.57,7.54
62.18,7.54
62.80,7.54
63.43,7.54
64.07,7.54
64.71,7.54
65.35,7.54
66.01,7.54
66.67,7.54
67.33,7.54
68.01,7.54
68.69,7.54
69.37,7.54
70.07,7.54
70.77,7.54
71.48,7.53
72.19,7.53
72.91,7.53
73.64,7.53
74.38,7.52
75.12,7.52
75.87,7.51
76.63,7.52
77.40,7.52
78.17,7.52
78.95,7.52
79.74,7.51
80.54,7.49
81.35,7.48
82.16,7.47
82.98,7.44
83.81,7.42
84.65,7.38
85.50,7.35
86.35,7.32
87.22,7.29
88.09,7.26
88.97,7.23
89.86,7.20
90.76,7.18
91.66,7.16
92.58,7.14
93.51,7.13
94.44,7.13
95.39,7.13
96.34,7.14
97.30,7.14
98.28,7.14
99.26,7.14
100.25,7.15
101.25,7.15
102.27,7.16
103.29,7.17
104.32,7.16
105.37,7.15
106.42,7.13
107.48,7.10
108.56,7.07
109.64,7.04
110.74,7.01
111.85,6.97
112.97,6.92
114.10,6.89
115.24,6.85
116.39,6.84
117.55,6.80
118.73,6.78
119.92,6.76
121.12,6.76
122.33,6.76
123.55,6.77
124.79,6.78
126.03,6.78
127.29,6.76
128.57,6.74
129.85,6.71
131.15,6.68
132.46,6.65
133.79,6.61
135.12,6.57
136.48,6.55
137.84,6.51
139.22,6.49
140.61,6.47
142.02,6.43
143.44,6.42
144.87,6.38
146.32,6.36
147.78,6.33
149.26,6.32
150.75,6.28
152.26,6.25
153.78,6.22
155.32,6.18
156.88,6.15
158.44,6.14
160.03,6.10
161.63,6.07
163.24,6.03
164.88,5.99
166.53,5.97
168.19,5.95
169.87,5.90
171.57,5.88
173.29,5.86
175.02,5.82
176.77,5.79
178.54,5.77
180.32,5.74
182.13,5.71
183.95,5.66
185.79,5.63
187.65,5.61
189.52,5.58
191.42,5.56
193.33,5.53
195.27,5.50
197.22,5.48
199.19,5.46
201.18,5.42
203.19,5.39
205.23,5.35
207.28,5.32
209.35,5.29
211.44,5.25
213.56,5.22
215.69,5.20
217.85,5.18
220.03,5.15
222.23,5.12
224.45,5.08
226.70,5.04
228.96,4.97
231.25,4.94
233.57,4.91
235.90,4.86
238.26,4.84
240.64,4.81
243.05,4.78
245.48,4.73
247.93,4.67
250.41,4.62
252.92,4.55
255.45,4.51
258.00,4.48
260.58,4.44
263.19,4.42
265.82,4.37
268.48,4.34
271.16,4.29
273.87,4.23
276.61,4.19
279.38,4.16
282.17,4.11
284.99,4.08
287.84,4.03
290.72,3.99
293.63,3.95
296.57,3.89
299.53,3.84
302.53,3.80
305.55,3.76
308.61,3.71
311.69,3.66
314.81,3.61
317.96,3.57
321.14,3.52
324.35,3.48
327.59,3.44
330.87,3.38
334.18,3.33
337.52,3.28
340.90,3.23
344.30,3.18
347.75,3.14
351.23,3.09
354.74,3.04
358.28,2.99
361.87,2.95
365.49,2.92
369.14,2.87
372.83,2.83
376.56,2.78
380.33,2.74
384.13,2.70
387.97,2.66
391.85,2.61
395.77,2.57
399.73,2.51
403.72,2.47
407.76,2.42
411.84,2.36
415.96,2.29
420.12,2.24
424.32,2.21
428.56,2.16
432.85,2.11
437.18,2.04
441.55,1.99
445.96,1.93
450.42,1.87
454.93,1.83
459.48,1.78
464.07,1.72
468.71,1.67
473.40,1.59
478.13,1.52
482.91,1.49
487.74,1.45
492.62,1.40
497.55,1.34
502.52,1.28
507.55,1.23
512.62,1.19
517.75,1.14
522.93,1.09
528.16,1.02
533.44,0.97
538.77,0.89
544.16,0.83
549.60,0.79
555.10,0.75
560.65,0.70
566.25,0.65
571.92,0.57
577.64,0.52
583.41,0.49
589.25,0.46
595.14,0.39
601.09,0.34
607.10,0.28
613.17,0.22
619.30,0.18
625.50,0.14
631.75,0.08
638.07,0.01
644.45,-0.05
650.89,-0.11
657.40,-0.16
663.98,-0.22
670.62,-0.27
677.32,-0.33
684.10,-0.39
690.94,-0.46
697.85,-0.51
704.83,-0.56
711.87,-0.61
718.99,-0.67
726.18,-0.74
733.44,-0.81
740.78,-0.86
748.19,-0.90
755.67,-0.95
763.23,-1.01
770.86,-1.06
778.57,-1.12
786.35,-1.16
794.22,-1.18
802.16,-1.23
810.18,-1.29
818.28,-1.36
826.46,-1.41
834.73,-1.46
843.08,-1.49
851.51,-1.53
860.02,-1.58
868.62,-1.62
877.31,-1.68
886.08,-1.71
894.94,-1.74
903.89,-1.76
912.93,-1.79
922.06,-1.82
931.28,-1.86
940.59,-1.89
950.00,-1.89
959.50,-1.90
969.09,-1.91
978.78,-1.92
988.57,-1.93
998.46,-1.93
1008.44,-1.93
1018.53,-1.91
1028.71,-1.89
1039.00,-1.87
1049.39,-1.86
1059.88,-1.85
1070.48,-1.83
1081.19,-1.81
1092.00,-1.78
1102.92,-1.75
1113.95,-1.71
1125.09,-1.67
1136.34,-1.62
1147.70,-1.56
1159.18,-1.50
1170.77,-1.42
1182.48,-1.34
1194.30,-1.28
1206.25,-1.20
1218.31,-1.12
1230.49,-1.02
1242.80,-0.93
1255.22,-0.85
1267.78,-0.78
1280.45,-0.71
1293.26,-0.64
1306.19,-0.59
1319.25,-0.53
1332.45,-0.48
1345.77,-0.43
1359.23,-0.38
1372.82,-0.34
1386.55,-0.29
1400.41,-0.25
1414.42,-0.21
1428.56,-0.18
1442.85,-0.15
1457.28,-0.12
1471.85,-0.10
1486.57,-0.08
1501.43,-0.06
1516.45,-0.05
1531.61,-0.03
1546.93,-0.01
1562.40,-0.01
1578.02,0.00
1593.80,0.01
1609.74,0.02
1625.84,0.04
1642.10,0.06
1658.52,0.09
1675.10,0.12
1691.85,0.16
1708.77,0.21
1725.86,0.29
1743.12,0.37
1760.55,0.45
1778.15,0.55
1795.94,0.63
1813.90,0.74
1832.03,0.84
1850.36,0.94
1868.86,1.05
1887.55,1.14
1906.42,1.23
1925.49,1.33
1944.74,1.44
1964.19,1.54
1983.83,1.62
2003.67,1.71
2023.71,1.83
2043.94,1.92
2064.38,2.02
2085.03,2.13
2105.88,2.23
2126.94,2.33
2148.20,2.41
2169.69,2.49
2191.38,2.57
2213.30,2.63
2235.43,2.69
2257.78,2.74
2280.36,2.79
2303.17,2.83
2326.20,2.85
2349.46,2.87
2372.95,2.88
2396.68,2.88
2420.65,2.85
2444.86,2.84
2469.31,2.82
2494.00,2.78
2518.94,2.74
2544.13,2.70
2569.57,2.64
2595.27,2.57
2621.22,2.49
2647.43,2.41
2673.90,2.33
2700.64,2.26
2727.65,2.17
2754.93,2.08
2782.48,2.02
2810.30,1.94
2838.40,1.87
2866.79,1.79
2895.46,1.72
2924.41,1.67
2953.65,1.61
2983.19,1.56
3013.02,1.52
3043.15,1.49
3073.58,1.46
3104.32,1.44
3135.36,1.41
3166.72,1.40
3198.38,1.40
3230.37,1.38
3262.67,1.38
3295.30,1.37
3328.25,1.34
3361.53,1.31
3395.15,1.29
3429.10,1.25
3463.39,1.21
3498.03,1.16
3533.01,1.11
3568.34,1.05
3604.02,0.98
3640.06,0.91
3676.46,0.83
3713.22,0.73
3750.36,0.63
3787.86,0.52
3825.74,0.41
3864.00,0.31
3902.64,0.20
3941.66,0.12
3981.08,0.03
4020.89,-0.06
4061.10,-0.14
4101.71,-0.22
4142.73,-0.27
4184.15,-0.30
4226.00,-0.34
4268.26,-0.35
4310.94,-0.34
4354.05,-0.31
4397.59,-0.27
4441.56,-0.22
4485.98,-0.16
4530.84,-0.08
4576.15,0.01
4621.91,0.13
4668.13,0.28
4714.81,0.43
4761.96,0.61
4809.58,0.79
4857.67,0.98
4906.25,1.17
4955.31,1.36
5004.87,1.54
5054.91,1.74
5105.46,1.91
5156.52,2.07
5208.08,2.21
5260.16,2.35
5312.77,2.47
5365.89,2.57
5419.55,2.67
5473.75,2.74
5528.49,2.81
5583.77,2.88
5639.61,2.93
5696.00,2.97
5752.96,3.03
5810.49,3.08
5868.60,3.13
5927.28,3.19
5986.56,3.24
6046.42,3.32
6106.89,3.39
6167.96,3.48
6229.64,3.57
6291.93,3.65
6354.85,3.74
6418.40,3.83
6482.58,3.92
6547.41,4.01
6612.88,4.11
6679.01,4.21
6745.80,4.34
6813.26,4.47
6881.39,4.64
6950.21,4.82
7019.71,5.03
7089.91,5.24
7160.81,5.49
7232.41,5.74
7304.74,6.01
7377.79,6.29
7451.56,6.56
7526.08,6.82
7601.34,7.05
7677.35,7.23
7754.13,7.36
7831.67,7.43
7909.98,7.44
7989.08,7.42
8068.98,7.34
8149.67,7.24
8231.16,7.09
8313.47,6.91
8396.61,6.71
8480.57,6.46
8565.38,6.19
8651.03,5.90
8737.54,5.58
8824.92,5.26
8913.17,4.94
9002.30,4.61
9092.32,4.28
9183.25,3.92
9275.08,3.61
9367.83,3.29
9461.51,2.95
9556.12,2.59
9651.68,2.23
9748.20,1.88
9845.68,1.50
9944.14,1.13
10043.58,0.72
10144.02,0.28
10245.46,-0.20
10347.91,-0.76
10451.39,-1.38
10555.91,-2.06
10661.46,-2.82
10768.08,-3.63
10875.76,-4.47
10984.52,-5.35
11094.36,-6.25
11205.31,-7.13
11317.36,-8.00
11430.53,-8.84
11544.84,-9.66
11660.29,-10.46
11776.89,-11.24
11894.66,-11.94
12013.60,-12.59
12133.74,-13.18
12255.08,-13.74
12377.63,-14.24
12501.41,-14.70
12626.42,-15.13
12752.68,-15.50
12880.21,-15.84
13009.01,-16.14
13139.10,-16.42
13270.49,-16.67
13403.20,-16.90
13537.23,-17.10
13672.60,-17.29
13809.33,-17.50
13947.42,-17.77
14086.90,-18.06
14227.77,-18.42
14370.04,-18.80
14513.74,-19.25
14658.88,-19.74
14805.47,-20.28
14953.52,-20.84
15103.06,-21.45
15254.09,-22.10
15406.63,-22.79
15560.70,-23.50
15716.30,-24.21
15873.47,-24.91
16032.20,-25.59
16192.52,-26.25
16354.45,-26.88
16517.99,-27.48
16683.17,-28.06
16850.01,-28.65
17018.51,-29.25
17188.69,-29.86
17360.58,-30.51
17534.18,-31.23
17709.53,-32.03
17886.62,-32.89
18065.49,-33.89
18246.14,-34.84
18428.60,-35.80
18612.89,-36.79
18799.02,-37.81
18987.01,-38.87
19176.88,-39.97
19368.65,-41.11
19562.33,-42.26
19757.96,-43.47
19955.54,-44.71
