frequency,raw,error,smoothed,error_smoothed,equalization,parametric_eq,fixed_band_eq,equalized_raw,equalized_smoothed,target
20.00,12.56,6.06,12.56,6.07,-6.06,-6.76,-3.12,6.50,6.50,6.50
20.20,12.59,6.09,12.59,6.09,-6.09,-6.75,-3.21,6.50,6.50,6.50
20.40,12.61,6.10,12.61,6.11,-6.11,-6.74,-3.30,6.50,6.51,6.51
20.61,12.64,6.12,12.64,6.13,-6.13,-6.74,-3.39,6.51,6.51,6.52
20.81,12.67,6.15,12.67,6.15,-6.15,-6.73,-3.49,6.52,6.52,6.52
21.02,12.69,6.16,12.69,6.17,-6.17,-6.72,-3.59,6.52,6.52,6.53
21.23,12.72,6.20,12.72,6.19,-6.19,-6.71,-3.69,6.53,6.53,6.52
21.44,12.74,6.21,12.74,6.21,-6.21,-6.70,-3.79,6.53,6.53,6.53
21.66,12.77,6.23,12.77,6.23,-6.23,-6.70,-3.90,6.54,6.54,6.54
21.87,12.80,6.26,12.80,6.25,-6.25,-6.69,-4.01,6.55,6.55,6.54
22.09,12.82,6.27,12.82,6.27,-6.27,-6.68,-4.12,6.55,6.55,6.55
22.31,12.84,6.28,12.84,6.28,-6.28,-6.67,-4.23,6.56,6.56,6.56
22.54,12.86,6.30,12.86,6.30,-6.30,-6.66,-4.35,6.56,6.56,6.56
22.76,12.89,6.32,12.89,6.31,-6.31,-6.65,-4.47,6.58,6.57,6.57
22.99,12.91,6.33,12.91,6.33,-6.33,-6.64,-4.60,6.58,6.58,6.58
23.22,12.93,6.34,12.93,6.34,-6.34,-6.63,-4.73,6.59,6.59,6.59
23.45,12.96,6.36,12.96,6.36,-6.36,-6.62,-4.86,6.60,6.60,6.60
23.69,12.98,6.37,12.98,6.37,-6.37,-6.61,-4.99,6.61,6.61,6.61
23.92,13.00,6.38,13.00,6.38,-6.38,-6.60,-5.12,6.62,6.62,6.62
24.16,13.02,6.39,13.02,6.39,-6.39,-6.59,-5.26,6.63,6.63,6.63
24.40,13.04,6.40,13.04,6.40,-6.40,-6.57,-5.40,6.64,6.64,6.64
24.65,13.06,6.40,13.06,6.41,-6.41,-6.56,-5.55,6.65,6.65,6.66
24.89,13.08,6.41,13.08,6.41,-6.41,-6.55,-5.69,6.67,6.67,6.67
25.14,13.10,6.42,13.10,6.42,-6.42,-6.54,-5.84,6.68,6.68,6.68
25.39,13.11,6.42,13.11,6.43,-6.42,-6.52,-5.99,6.69,6.69,6.69
25.65,13.13,6.43,13.13,6.43,-6.43,-6.51,-6.14,6.70,6.70,6.70
25.91,13.14,6.43,13.14,6.43,-6.43,-6.49,-6.29,6.71,6.71,6.71
26.16,13.16,6.44,13.16,6.43,-6.44,-6.48,-6.44,6.72,6.72,6.72
26.43,13.17,6.44,13.17,6.44,-6.44,-6.46,-6.59,6.73,6.73,6.73
26.69,13.18,6.44,13.18,6.44,-6.44,-6.45,-6.73,6.74,6.75,6.74
26.96,13.20,6.44,13.20,6.44,-6.44,-6.43,-6.88,6.76,6.76,6.76
27.23,13.21,6.44,13.21,6.44,-6.44,-6.42,-7.02,6.77,6.77,6.77
27.50,13.22,6.43,13.22,6.43,-6.43,-6.40,-7.16,6.79,6.79,6.79
27.77,13.23,6.43,13.23,6.43,-6.43,-6.38,-7.30,6.80,6.80,6.80
28.05,13.24,6.42,13.24,6.42,-6.42,-6.36,-7.43,6.82,6.82,6.82
28.33,13.25,6.42,13.25,6.42,-6.42,-6.34,-7.55,6.83,6.83,6.83
28.62,13.25,6.40,13.25,6.41,-6.41,-6.32,-7.66,6.84,6.84,6.85
28.90,13.26,6.40,13.26,6.40,-6.40,-6.30,-7.77,6.86,6.86,6.86
29.19,13.26,6.39,13.26,6.39,-6.39,-6.28,-7.87,6.87,6.87,6.87
29.48,13.27,6.39,13.27,6.39,-6.39,-6.26,-7.95,6.88,6.88,6.88
29.78,13.28,6.38,13.28,6.38,-6.38,-6.24,-8.02,6.90,6.90,6.90
30.08,13.28,6.37,13.28,6.37,-6.37,-6.21,-8.08,6.91,6.91,6.91
30.38,13.28,6.35,13.29,6.36,-6.36,-6.19,-8.13,6.92,6.93,6.93
30.68,13.29,6.35,13.29,6.35,-6.34,-6.17,-8.16,6.95,6.94,6.94
30.99,13.29,6.33,13.29,6.33,-6.33,-6.14,-8.18,6.96,6.96,6.96
31.30,13.28,6.31,13.28,6.32,-6.31,-6.11,-8.18,6.97,6.97,6.97
31.61,13.28,6.30,13.28,6.30,-6.30,-6.09,-8.17,6.98,6.98,6.98
31.93,13.27,6.28,13.27,6.28,-6.28,-6.06,-8.13,6.99,6.99,6.99
32.24,13.27,6.26,13.27,6.26,-6.26,-6.03,-8.09,7.01,7.01,7.01
32.57,13.26,6.24,13.26,6.24,-6.24,-6.00,-8.03,7.02,7.02,7.02
32.89,13.26,6.22,13.26,6.22,-6.22,-5.97,-7.96,7.04,7.03,7.04
33.22,13.25,6.20,13.25,6.20,-6.20,-5.93,-7.88,7.05,7.05,7.05
33.55,13.24,6.18,13.24,6.18,-6.18,-5.90,-7.78,7.06,7.06,7.06
33.89,13.23,6.16,13.23,6.16,-6.15,-5.87,-7.67,7.08,7.08,7.07
34.23,13.22,6.13,13.22,6.13,-6.13,-5.83,-7.56,7.09,7.09,7.09
34.57,13.20,6.10,13.20,6.10,-6.10,-5.79,-7.43,7.10,7.10,7.10
34.92,13.17,6.06,13.17,6.06,-6.06,-5.75,-7.30,7.11,7.11,7.11
35.27,13.15,6.03,13.14,6.02,-6.03,-5.71,-7.16,7.12,7.12,7.12
35.62,13.11,5.98,13.11,5.98,-5.99,-5.67,-7.02,7.12,7.13,7.13
35.97,13.08,5.94,13.08,5.94,-5.94,-5.63,-6.87,7.14,7.14,7.14
36.33,13.05,5.90,13.05,5.90,-5.90,-5.58,-6.71,7.15,7.15,7.15
36.70,13.01,5.86,13.01,5.86,-5.85,-5.54,-6.56,7.16,7.16,7.15
37.06,12.97,5.81,12.97,5.80,-5.80,-5.49,-6.40,7.17,7.16,7.16
37.43,12.92,5.75,12.92,5.75,-5.75,-5.44,-6.24,7.17,7.17,7.17
37.81,12.87,5.69,12.87,5.70,-5.70,-5.39,-6.08,7.17,7.17,7.18
38.19,12.83,5.65,12.83,5.64,-5.65,-5.33,-5.92,7.18,7.18,7.18
38.57,12.78,5.59,12.78,5.59,-5.59,-5.28,-5.76,7.19,7.19,7.19
38.95,12.73,5.53,12.72,5.53,-5.53,-5.22,-5.60,7.20,7.20,7.20
39.34,12.66,5.45,12.67,5.46,-5.46,-5.16,-5.44,7.20,7.20,7.20
39.74,12.60,5.39,12.60,5.39,-5.39,-5.10,-5.28,7.21,7.21,7.21
40.14,12.54,5.33,12.53,5.32,-5.32,-5.03,-5.13,7.22,7.21,7.21
40.54,12.46,5.25,12.46,5.25,-5.25,-4.96,-4.98,7.21,7.22,7.21
40.94,12.39,5.17,12.39,5.17,-5.17,-4.90,-4.82,7.22,7.22,7.22
41.35,12.31,5.08,12.31,5.08,-5.09,-4.82,-4.68,7.22,7.22,7.23
41.76,12.23,5.00,12.23,5.00,-5.00,-4.75,-4.53,7.23,7.23,7.23
42.18,12.15,4.91,12.14,4.91,-4.91,-4.67,-4.38,7.24,7.24,7.24
42.60,12.05,4.81,12.05,4.81,-4.81,-4.59,-4.24,7.24,7.24,7.24
43.03,11.95,4.70,11.95,4.70,-4.70,-4.51,-4.10,7.25,7.25,7.25
43.46,11.85,4.60,11.85,4.59,-4.59,-4.42,-3.97,7.26,7.26,7.25
43.90,11.74,4.48,11.74,4.48,-4.48,-4.34,-3.83,7.27,7.26,7.26
44.33,11.63,4.35,11.63,4.36,-4.35,-4.24,-3.70,7.27,7.27,7.27
44.78,11.50,4.22,11.50,4.23,-4.23,-4.15,-3.57,7.27,7.28,7.28
45.23,11.38,4.10,11.38,4.09,-4.09,-4.05,-3.44,7.29,7.29,7.28
45.68,11.25,3.95,11.25,3.96,-3.95,-3.95,-3.32,7.30,7.30,7.30
46.13,11.12,3.82,11.12,3.81,-3.81,-3.85,-3.20,7.31,7.31,7.30
46.60,10.98,3.66,10.98,3.66,-3.66,-3.74,-3.08,7.32,7.32,7.32
47.06,10.84,3.52,10.84,3.52,-3.51,-3.63,-2.96,7.32,7.32,7.32
47.53,10.69,3.36,10.69,3.36,-3.36,-3.52,-2.85,7.33,7.33,7.33
48.01,10.55,3.21,10.55,3.21,-3.21,-3.40,-2.74,7.34,7.34,7.34
48.49,10.40,3.05,10.40,3.05,-3.06,-3.28,-2.63,7.34,7.35,7.35
48.97,10.26,2.91,10.26,2.90,-2.90,-3.16,-2.52,7.36,7.36,7.35
49.46,10.11,2.74,10.11,2.75,-2.75,-3.03,-2.42,7.36,7.36,7.37
49.96,9.96,2.59,9.96,2.60,-2.59,-2.91,-2.32,7.37,7.37,7.37
50.46,9.82,2.45,9.82,2.44,-2.44,-2.78,-2.22,7.38,7.38,7.37
50.96,9.67,2.29,9.67,2.29,-2.29,-2.65,-2.13,7.38,7.38,7.38
51.47,9.53,2.15,9.53,2.14,-2.14,-2.51,-2.04,7.39,7.39,7.38
51.99,9.38,2.00,9.38,2.00,-2.00,-2.38,-1.95,7.38,7.38,7.38
52.51,9.25,1.87,9.25,1.86,-1.87,-2.25,-1.86,7.39,7.38,7.39
53.03,9.12,1.73,9.13,1.74,-1.74,-2.11,-1.78,7.38,7.39,7.39
53.56,9.02,1.62,9.01,1.62,-1.62,-1.98,-1.70,7.40,7.39,7.40
54.10,8.91,1.51,8.91,1.52,-1.52,-1.85,-1.63,7.39,7.39,7.40
54.64,8.82,1.42,8.82,1.43,-1.43,-1.72,-1.56,7.39,7.39,7.40
55.18,8.74,1.35,8.74,1.35,-1.35,-1.60,-1.49,7.39,7.39,7.39
55.74,8.66,1.28,8.67,1.28,-1.28,-1.48,-1.43,7.38,7.38,7.38
56.29,8.61,1.23,8.61,1.23,-1.23,-1.36,-1.37,7.38,7.38,7.38
56.86,8.56,1.19,8.56,1.19,-1.19,-1.25,-1.32,7.37,7.37,7.37
57.42,8.53,1.16,8.53,1.16,-1.16,-1.15,-1.27,7.37,7.37,7.37
58.00,8.50,1.14,8.50,1.14,-1.14,-1.06,-1.22,7.36,7.36,7.36
58.58,8.49,1.14,8.49,1.14,-1.14,-0.98,-1.19,7.35,7.35,7.35
59.16,8.48,1.14,8.48,1.14,-1.15,-0.90,-1.15,7.33,7.34,7.34
59.76,8.49,1.16,8.49,1.16,-1.16,-0.84,-1.13,7.33,7.32,7.33
60.35,8.50,1.19,8.50,1.19,-1.19,-0.80,-1.11,7.31,7.31,7.31
60.96,8.52,1.22,8.52,1.22,-1.22,-0.76,-1.09,7.30,7.30,7.30
61.57,8.54,1.26,8.54,1.26,-1.26,-0.74,-1.08,7.28,7.28,7.28
62.18,8.57,1.30,8.57,1.30,-1.30,-0.74,-1.08,7.27,7.27,7.27
62.80,8.59,1.34,8.59,1.34,-1.34,-0.74,-1.08,7.25,7.25,7.25
63.43,8.62,1.39,8.62,1.39,-1.38,-0.76,-1.09,7.24,7.24,7.23
64.07,8.64,1.43,8.64,1.43,-1.42,-0.80,-1.11,7.22,7.21,7.21
64.71,8.65,1.46,8.65,1.46,-1.46,-0.85,-1.13,7.19,7.19,7.19
65.35,8.67,1.50,8.67,1.50,-1.50,-0.91,-1.16,7.17,7.17,7.17
66.01,8.69,1.54,8.69,1.54,-1.54,-0.98,-1.19,7.15,7.15,7.15
66.67,8.71,1.58,8.71,1.57,-1.57,-1.06,-1.23,7.14,7.13,7.13
67.33,8.72,1.61,8.72,1.61,-1.61,-1.15,-1.28,7.11,7.11,7.11
68.01,8.73,1.65,8.73,1.64,-1.64,-1.25,-1.33,7.09,7.09,7.08
68.69,8.74,1.68,8.74,1.67,-1.67,-1.36,-1.38,7.07,7.07,7.06
69.37,8.74,1.70,8.74,1.70,-1.70,-1.48,-1.44,7.04,7.05,7.04
70.07,8.75,1.73,8.75,1.73,-1.72,-1.60,-1.51,7.03,7.02,7.02
70.77,8.75,1.75,8.75,1.75,-1.75,-1.72,-1.58,7.00,7.00,7.00
71.48,8.76,1.78,8.76,1.79,-1.79,-1.85,-1.65,6.97,6.97,6.98
72.19,8.78,1.83,8.78,1.82,-1.83,-1.98,-1.73,6.95,6.95,6.95
72.91,8.80,1.86,8.80,1.87,-1.87,-2.12,-1.81,6.93,6.93,6.94
73.64,8.83,1.92,8.83,1.92,-1.92,-2.25,-1.89,6.91,6.91,6.91
74.38,8.88,1.98,8.88,1.98,-1.98,-2.39,-1.98,6.90,6.90,6.90
75.12,8.93,2.06,8.93,2.06,-2.05,-2.52,-2.08,6.88,6.88,6.87
75.87,8.99,2.13,8.99,2.13,-2.13,-2.66,-2.17,6.86,6.86,6.86
76.63,9.06,2.22,9.06,2.22,-2.22,-2.79,-2.27,6.84,6.84,6.84
77.40,9.13,2.31,9.13,2.31,-2.32,-2.93,-2.38,6.81,6.81,6.82
78.17,9.22,2.42,9.22,2.42,-2.43,-3.06,-2.48,6.79,6.79,6.80
78.95,9.33,2.55,9.33,2.54,-2.55,-3.19,-2.59,6.78,6.78,6.79
79.74,9.45,2.68,9.45,2.68,-2.68,-3.32,-2.70,6.77,6.77,6.77
80.54,9.58,2.83,9.58,2.83,-2.83,-3.45,-2.81,6.75,6.75,6.75
81.35,9.71,2.98,9.71,2.98,-2.98,-3.58,-2.93,6.73,6.73,6.73
82.16,9.85,3.14,9.85,3.14,-3.14,-3.70,-3.05,6.71,6.71,6.71
82.98,9.99,3.31,10.00,3.31,-3.31,-3.83,-3.17,6.68,6.68,6.68
83.81,10.15,3.49,10.15,3.49,-3.49,-3.95,-3.30,6.66,6.66,6.66
84.65,10.31,3.67,10.31,3.67,-3.67,-4.07,-3.42,6.64,6.63,6.64
85.50,10.47,3.85,10.47,3.85,-3.86,-4.19,-3.55,6.61,6.61,6.62
86.35,10.64,4.05,10.64,4.05,-4.05,-4.31,-3.68,6.59,6.59,6.60
87.22,10.82,4.25,10.81,4.24,-4.24,-4.43,-3.82,6.58,6.57,6.57
88.09,10.99,4.44,10.99,4.44,-4.43,-4.54,-3.96,6.56,6.56,6.55
88.97,11.15,4.62,11.16,4.63,-4.62,-4.66,-4.10,6.53,6.53,6.53
89.86,11.32,4.81,11.32,4.81,-4.81,-4.78,-4.24,6.51,6.51,6.51
90.76,11.48,5.00,11.48,4.99,-4.99,-4.89,-4.39,6.49,6.49,6.48
91.66,11.63,5.16,11.63,5.17,-5.16,-5.01,-4.54,6.47,6.47,6.47
92.58,11.78,5.34,11.78,5.34,-5.34,-5.12,-4.69,6.44,6.44,6.44
93.51,11.92,5.50,11.92,5.50,-5.50,-5.24,-4.84,6.42,6.42,6.41
94.44,12.06,5.66,12.06,5.66,-5.67,-5.35,-5.00,6.39,6.39,6.40
95.39,12.19,5.82,12.19,5.82,-5.82,-5.47,-5.16,6.37,6.37,6.37
96.34,12.32,5.97,12.32,5.97,-5.98,-5.58,-5.32,6.34,6.34,6.35
97.30,12.45,6.12,12.45,6.12,-6.12,-5.70,-5.49,6.33,6.32,6.33
98.28,12.56,6.26,12.57,6.27,-6.26,-5.82,-5.66,6.30,6.31,6.30
99.26,12.68,6.41,12.68,6.40,-6.39,-5.93,-5.82,6.29,6.29,6.27
100.25,12.78,6.53,12.78,6.53,-6.51,-6.05,-5.99,6.27,6.27,6.25
101.25,12.87,6.65,12.87,6.65,-6.63,-6.17,-6.17,6.24,6.24,6.22
102.27,12.95,6.75,12.94,6.74,-6.75,-6.29,-6.34,6.20,6.19,6.20
103.29,13.00,6.84,13.01,6.85,-6.86,-6.41,-6.51,6.14,6.15,6.16
104.32,13.07,6.94,13.08,6.95,-6.97,-6.54,-6.68,6.10,6.11,6.13
105.37,13.17,7.07,13.16,7.06,-7.08,-6.66,-6.86,6.09,6.08,6.10
106.42,13.25,7.19,13.25,7.19,-7.19,-6.78,-7.03,6.06,6.06,6.06
107.48,13.33,7.31,13.33,7.30,-7.30,-6.91,-7.20,6.03,6.03,6.02
108.56,13.40,7.41,13.40,7.41,-7.40,-7.03,-7.36,6.00,6.00,5.99
109.64,13.46,7.51,13.46,7.51,-7.50,-7.15,-7.53,5.96,5.96,5.95
110.74,13.51,7.60,13.51,7.60,-7.59,-7.27,-7.68,5.92,5.92,5.91
111.85,13.55,7.68,13.54,7.67,-7.67,-7.39,-7.83,5.88,5.87,5.87
112.97,13.57,7.74,13.57,7.75,-7.75,-7.51,-7.97,5.82,5.82,5.83
114.10,13.59,7.80,13.59,7.81,-7.82,-7.62,-8.11,5.77,5.78,5.79
115.24,13.62,7.88,13.62,7.87,-7.88,-7.73,-8.22,5.74,5.73,5.74
116.39,13.63,7.93,13.63,7.93,-7.94,-7.84,-8.34,5.69,5.70,5.70
117.55,13.65,7.99,13.65,7.99,-7.99,-7.93,-8.43,5.66,5.66,5.66
118.73,13.65,8.03,13.65,8.03,-8.03,-8.02,-8.51,5.62,5.62,5.62
119.92,13.64,8.07,13.64,8.06,-8.06,-8.10,-8.57,5.58,5.58,5.57
121.12,13.62,8.08,13.62,8.09,-8.08,-8.17,-8.62,5.54,5.54,5.54
122.33,13.60,8.10,13.60,8.10,-8.10,-8.22,-8.64,5.50,5.50,5.50
123.55,13.57,8.10,13.56,8.10,-8.10,-8.27,-8.65,5.47,5.46,5.47
124.79,13.52,8.09,13.52,8.09,-8.09,-8.29,-8.63,5.43,5.43,5.43
126.03,13.46,8.06,13.47,8.07,-8.07,-8.30,-8.60,5.39,5.40,5.40
127.29,13.41,8.04,13.41,8.04,-8.04,-8.28,-8.54,5.37,5.37,5.36
128.57,13.34,8.01,13.33,7.99,-7.99,-8.26,-8.47,5.35,5.34,5.33
129.85,13.23,7.93,13.23,7.93,-7.92,-8.20,-8.36,5.31,5.31,5.30
131.15,13.10,7.83,13.12,7.86,-7.85,-8.14,-8.26,5.25,5.28,5.27
132.46,13.01,7.78,12.99,7.75,-7.76,-8.04,-8.12,5.25,5.23,5.23
133.79,12.87,7.66,12.86,7.65,-7.66,-7.94,-7.97,5.21,5.20,5.21
135.12,12.68,7.50,12.71,7.53,-7.54,-7.79,-7.80,5.14,5.17,5.18
136.48,12.57,7.42,12.56,7.40,-7.42,-7.65,-7.63,5.15,5.14,5.15
137.84,12.40,7.28,12.42,7.29,-7.28,-7.47,-7.44,5.12,5.14,5.12
139.22,12.26,7.17,12.25,7.16,-7.13,-7.29,-7.24,5.13,5.12,5.09
140.61,12.09,7.03,12.06,6.99,-6.97,-7.08,-7.03,5.12,5.09,5.06
142.02,11.81,6.76,11.85,6.81,-6.81,-6.86,-6.82,5.00,5.04,5.05
143.44,11.66,6.64,11.64,6.62,-6.64,-6.63,-6.59,5.03,5.00,5.02
144.87,11.41,6.42,11.42,6.43,-6.45,-6.39,-6.37,4.96,4.97,4.99
146.32,11.23,6.27,11.22,6.26,-6.27,-6.13,-6.13,4.96,4.96,4.96
147.78,10.99,6.06,10.99,6.06,-6.07,-5.88,-5.90,4.92,4.92,4.93
149.26,10.79,5.89,10.78,5.88,-5.87,-5.61,-5.66,4.92,4.91,4.90
150.75,10.54,5.66,10.55,5.67,-5.67,-5.34,-5.42,4.87,4.88,4.88
152.26,10.34,5.48,10.33,5.47,-5.47,-5.07,-5.18,4.87,4.86,4.86
153.78,10.07,5.25,10.08,5.26,-5.25,-4.79,-4.94,4.82,4.83,4.82
155.32,9.86,5.06,9.85,5.05,-5.03,-4.51,-4.70,4.83,4.82,4.80
156.88,9.57,4.79,9.59,4.81,-4.81,-4.24,-4.46,4.76,4.78,4.78
158.44,9.36,4.60,9.32,4.57,-4.58,-3.96,-4.21,4.78,4.74,4.75
160.03,9.02,4.30,9.06,4.34,-4.35,-3.68,-3.97,4.67,4.72,4.72
161.63,8.80,4.10,8.80,4.10,-4.11,-3.41,-3.73,4.69,4.69,4.70
163.24,8.58,3.91,8.53,3.86,-3.87,-3.13,-3.49,4.71,4.66,4.67
164.88,8.25,3.60,8.29,3.64,-3.63,-2.86,-3.26,4.62,4.66,4.65
166.53,8.00,3.38,8.01,3.39,-3.38,-2.59,-3.02,4.63,4.63,4.62
168.19,7.77,3.18,7.72,3.12,-3.12,-2.33,-2.79,4.65,4.60,4.59
169.87,7.41,2.84,7.45,2.89,-2.86,-2.07,-2.55,4.55,4.59,4.57
171.57,7.14,2.60,7.15,2.61,-2.60,-1.81,-2.32,4.54,4.54,4.54
173.29,6.89,2.38,6.83,2.32,-2.34,-1.55,-2.08,4.55,4.49,4.51
175.02,6.49,2.01,6.53,2.05,-2.08,-1.30,-1.85,4.41,4.46,4.48
176.77,6.22,1.77,6.23,1.78,-1.80,-1.05,-1.62,4.42,4.43,4.45
178.54,5.96,1.54,5.96,1.54,-1.53,-0.81,-1.39,4.43,4.43,4.42
180.32,5.69,1.30,5.68,1.29,-1.26,-0.57,-1.17,4.43,4.43,4.39
182.13,5.41,1.05,5.37,1.01,-0.98,-0.34,-0.94,4.43,4.39,4.36
183.95,4.99,0.66,5.03,0.70,-0.70,-0.11,-0.71,4.29,4.33,4.33
185.79,4.68,0.39,4.69,0.39,-0.42,0.12,-0.49,4.27,4.28,4.29
187.65,4.38,0.11,4.37,0.10,-0.13,0.34,-0.26,4.25,4.24,4.27
189.52,4.08,-0.16,4.08,-0.16,0.16,0.55,-0.04,4.24,4.24,4.24
191.42,3.77,-0.43,3.76,-0.44,0.46,0.77,0.18,4.23,4.22,4.20
193.33,3.44,-0.73,3.44,-0.73,0.74,0.97,0.41,4.18,4.19,4.17
195.27,3.12,-1.03,3.12,-1.03,1.02,1.18,0.63,4.14,4.14,4.15
197.22,2.80,-1.32,2.81,-1.31,1.30,1.38,0.85,4.10,4.11,4.12
199.19,2.51,-1.58,2.51,-1.58,1.57,1.57,1.06,4.08,4.08,4.09
201.18,2.22,-1.83,2.22,-1.83,1.83,1.76,1.28,4.05,4.05,4.05
203.19,1.93,-2.09,1.93,-2.09,2.10,1.94,1.50,4.02,4.02,4.02
205.23,1.64,-2.35,1.64,-2.34,2.35,2.12,1.71,3.99,3.99,3.99
207.28,1.37,-2.59,1.37,-2.58,2.59,2.29,1.92,3.96,3.96,3.96
209.35,1.11,-2.82,1.11,-2.82,2.82,2.46,2.13,3.93,3.93,3.93
211.44,0.86,-3.03,0.85,-3.04,3.04,2.62,2.33,3.90,3.89,3.89
213.56,0.60,-3.26,0.60,-3.26,3.24,2.78,2.53,3.84,3.84,3.86
215.69,0.36,-3.46,0.36,-3.46,3.44,2.93,2.73,3.80,3.80,3.82
217.85,0.13,-3.65,0.16,-3.63,3.62,3.07,2.92,3.75,3.77,3.78
220.03,-0.01,-3.76,-0.02,-3.78,3.78,3.21,3.11,3.77,3.76,3.75
222.23,-0.18,-3.91,-0.20,-3.92,3.94,3.34,3.29,3.76,3.74,3.73
224.45,-0.37,-4.06,-0.37,-4.06,4.08,3.47,3.46,3.71,3.71,3.69
226.70,-0.55,-4.21,-0.54,-4.20,4.21,3.59,3.63,3.66,3.66,3.66
228.96,-0.71,-4.34,-0.69,-4.33,4.32,3.70,3.79,3.61,3.63,3.63
231.25,-0.81,-4.42,-0.83,-4.44,4.42,3.80,3.93,3.61,3.60,3.61
233.57,-0.93,-4.52,-0.93,-4.52,4.52,3.90,4.08,3.59,3.58,3.59
235.90,-1.04,-4.61,-1.03,-4.59,4.60,3.99,4.20,3.56,3.57,3.57
238.26,-1.10,-4.65,-1.11,-4.66,4.66,4.07,4.32,3.56,3.55,3.55
240.64,-1.18,-4.71,-1.17,-4.71,4.71,4.14,4.43,3.53,3.53,3.53
243.05,-1.22,-4.74,-1.22,-4.74,4.74,4.21,4.53,3.52,3.52,3.52
245.48,-1.26,-4.76,-1.26,-4.76,4.76,4.27,4.61,3.50,3.50,3.50
247.93,-1.29,-4.78,-1.29,-4.77,4.77,4.33,4.68,3.48,3.48,3.49
250.41,-1.30,-4.77,-1.30,-4.77,4.77,4.37,4.73,3.47,3.47,3.47
252.92,-1.30,-4.76,-1.30,-4.75,4.76,4.41,4.78,3.46,3.46,3.46
255.45,-1.28,-4.72,-1.28,-4.73,4.73,4.44,4.81,3.45,3.45,3.44
258.00,-1.27,-4.70,-1.27,-4.70,4.70,4.47,4.83,3.43,3.43,3.43
260.58,-1.24,-4.66,-1.24,-4.66,4.66,4.49,4.83,3.42,3.42,3.42
263.19,-1.22,-4.63,-1.21,-4.62,4.62,4.51,4.83,3.40,3.40,3.41
265.82,-1.17,-4.56,-1.17,-4.57,4.57,4.52,4.81,3.40,3.39,3.39
268.48,-1.13,-4.51,-1.13,-4.51,4.52,4.53,4.79,3.39,3.39,3.38
271.16,-1.09,-4.46,-1.09,-4.45,4.46,4.53,4.75,3.37,3.38,3.37
273.87,-1.04,-4.39,-1.05,-4.40,4.41,4.52,4.71,3.37,3.36,3.35
276.61,-1.01,-4.35,-1.01,-4.35,4.35,4.51,4.66,3.34,3.34,3.34
279.38,-0.97,-4.30,-0.97,-4.30,4.29,4.50,4.60,3.32,3.32,3.33
282.17,-0.93,-4.24,-0.93,-4.24,4.24,4.48,4.53,3.31,3.31,3.31
284.99,-0.89,-4.19,-0.88,-4.18,4.18,4.46,4.46,3.29,3.30,3.30
287.84,-0.82,-4.11,-0.83,-4.12,4.12,4.44,4.39,3.30,3.29,3.29
290.72,-0.78,-4.05,-0.78,-4.06,4.06,4.41,4.31,3.28,3.28,3.27
293.63,-0.74,-4.00,-0.73,-4.00,4.00,4.38,4.23,3.26,3.26,3.26
296.57,-0.69,-3.94,-0.69,-3.94,3.93,4.35,4.14,3.24,3.25,3.25
299.53,-0.63,-3.87,-0.63,-3.87,3.87,4.31,4.06,3.24,3.23,3.24
302.53,-0.58,-3.80,-0.58,-3.80,3.81,4.28,3.97,3.23,3.22,3.22
305.55,-0.54,-3.74,-0.53,-3.74,3.74,4.24,3.88,3.20,3.21,3.20
308.61,-0.49,-3.68,-0.49,-3.68,3.68,4.19,3.79,3.19,3.19,3.19
311.69,-0.44,-3.62,-0.44,-3.62,3.62,4.15,3.70,3.18,3.17,3.18
314.81,-0.40,-3.55,-0.40,-3.56,3.55,4.10,3.62,3.15,3.16,3.15
317.96,-0.36,-3.50,-0.36,-3.50,3.50,4.06,3.53,3.14,3.14,3.14
321.14,-0.31,-3.43,-0.31,-3.43,3.44,4.01,3.44,3.13,3.13,3.12
324.35,-0.27,-3.38,-0.27,-3.38,3.39,3.96,3.36,3.12,3.11,3.11
327.59,-0.23,-3.32,-0.24,-3.32,3.33,3.91,3.27,3.10,3.10,3.09
330.87,-0.21,-3.28,-0.21,-3.28,3.28,3.86,3.19,3.07,3.08,3.07
334.18,-0.18,-3.23,-0.18,-3.23,3.23,3.80,3.11,3.05,3.05,3.05
337.52,-0.14,-3.18,-0.14,-3.18,3.17,3.75,3.03,3.03,3.03,3.04
340.90,-0.11,-3.13,-0.11,-3.13,3.12,3.70,2.96,3.01,3.01,3.02
344.30,-0.06,-3.07,-0.06,-3.07,3.06,3.64,2.88,3.00,2.99,3.01
347.75,-0.02,-3.01,-0.02,-3.00,3.00,3.59,2.81,2.98,2.98,2.99
351.23,0.04,-2.93,0.04,-2.93,2.94,3.53,2.74,2.98,2.97,2.96
354.74,0.08,-2.87,0.09,-2.86,2.88,3.48,2.67,2.96,2.96,2.95
358.28,0.14,-2.79,0.13,-2.80,2.82,3.42,2.61,2.96,2.95,2.93
361.87,0.16,-2.75,0.16,-2.75,2.76,3.37,2.54,2.92,2.93,2.91
365.49,0.19,-2.71,0.19,-2.71,2.71,3.31,2.48,2.90,2.90,2.90
369.14,0.21,-2.67,0.21,-2.67,2.66,3.26,2.42,2.87,2.87,2.88
372.83,0.23,-2.64,0.24,-2.63,2.61,3.20,2.37,2.84,2.85,2.87
376.56,0.27,-2.58,0.27,-2.58,2.57,3.15,2.31,2.84,2.83,2.85
380.33,0.30,-2.53,0.30,-2.53,2.52,3.10,2.26,2.82,2.82,2.83
384.13,0.34,-2.47,0.34,-2.47,2.48,3.04,2.21,2.82,2.82,2.81
387.97,0.37,-2.42,0.37,-2.42,2.43,2.99,2.16,2.80,2.81,2.79
391.85,0.41,-2.37,0.40,-2.38,2.39,2.94,2.11,2.80,2.79,2.78
395.77,0.43,-2.34,0.43,-2.34,2.34,2.88,2.07,2.77,2.77,2.77
399.73,0.45,-2.31,0.46,-2.31,2.30,2.83,2.03,2.75,2.75,2.76
403.72,0.48,-2.27,0.48,-2.27,2.25,2.78,1.99,2.73,2.74,2.75
407.76,0.52,-2.22,0.52,-2.22,2.21,2.73,1.95,2.73,2.73,2.74
411.84,0.55,-2.17,0.55,-2.17,2.17,2.68,1.91,2.72,2.72,2.72
415.96,0.58,-2.13,0.58,-2.13,2.13,2.63,1.87,2.71,2.71,2.71
420.12,0.61,-2.09,0.61,-2.09,2.10,2.58,1.84,2.71,2.70,2.70
424.32,0.63,-2.06,0.63,-2.06,2.06,2.53,1.81,2.69,2.69,2.69
428.56,0.64,-2.03,0.64,-2.03,2.04,2.48,1.78,2.68,2.68,2.67
432.85,0.65,-2.00,0.65,-2.01,2.01,2.44,1.75,2.66,2.66,2.65
437.18,0.65,-1.99,0.65,-2.00,2.00,2.39,1.72,2.65,2.65,2.64
441.55,0.64,-1.99,0.64,-1.98,1.98,2.34,1.69,2.62,2.63,2.63
445.96,0.64,-1.97,0.64,-1.98,1.97,2.30,1.67,2.61,2.61,2.61
450.42,0.63,-1.96,0.63,-1.96,1.96,2.25,1.64,2.59,2.59,2.59
454.93,0.63,-1.95,0.63,-1.95,1.94,2.21,1.62,2.57,2.57,2.58
459.48,0.63,-1.93,0.63,-1.93,1.93,2.17,1.60,2.56,2.56,2.56
464.07,0.63,-1.91,0.63,-1.91,1.91,2.12,1.58,2.54,2.54,2.54
468.71,0.63,-1.89,0.63,-1.89,1.89,2.08,1.56,2.52,2.52,2.52
473.40,0.63,-1.88,0.63,-1.88,1.88,2.04,1.54,2.51,2.51,2.51
478.13,0.63,-1.86,0.63,-1.86,1.86,2.00,1.52,2.49,2.49,2.49
482.91,0.63,-1.85,0.63,-1.85,1.85,1.96,1.51,2.48,2.48,2.48
487.74,0.63,-1.83,0.63,-1.83,1.83,1.92,1.49,2.46,2.46,2.46
492.62,0.63,-1.82,0.63,-1.82,1.82,1.88,1.47,2.45,2.45,2.45
497.55,0.63,-1.81,0.63,-1.81,1.81,1.85,1.46,2.44,2.44,2.44
502.52,0.63,-1.80,0.63,-1.80,1.79,1.81,1.45,2.42,2.42,2.43
507.55,0.63,-1.79,0.63,-1.78,1.78,1.77,1.43,2.41,2.41,2.42
512.62,0.63,-1.77,0.63,-1.77,1.77,1.74,1.42,2.40,2.40,2.40
517.75,0.63,-1.76,0.63,-1.76,1.76,1.70,1.41,2.39,2.39,2.39
