frequency,raw,error,smoothed,error_smoothed,equalization,parametric_eq,fixed_band_eq,equalized_raw,equalized_smoothed,target
20.00,2.56,-0.93,2.56,-0.94,0.94,-0.77,-0.54,3.50,3.50,3.49
20.20,2.63,-0.87,2.63,-0.87,0.88,-0.77,-0.55,3.51,3.51,3.50
20.40,2.70,-0.81,2.70,-0.81,0.81,-0.78,-0.57,3.51,3.51,3.51
20.61,2.77,-0.75,2.77,-0.75,0.74,-0.78,-0.58,3.51,3.51,3.51
20.81,2.84,-0.68,2.84,-0.68,0.67,-0.78,-0.60,3.51,3.51,3.52
21.02,2.91,-0.61,2.91,-0.61,0.60,-0.79,-0.62,3.51,3.51,3.52
21.23,2.99,-0.54,2.99,-0.54,0.53,-0.79,-0.64,3.52,3.52,3.53
21.44,3.07,-0.46,3.07,-0.46,0.46,-0.80,-0.66,3.53,3.53,3.53
21.66,3.16,-0.37,3.16,-0.38,0.38,-0.80,-0.68,3.54,3.54,3.53
21.87,3.24,-0.29,3.24,-0.30,0.30,-0.81,-0.70,3.54,3.54,3.53
22.09,3.32,-0.22,3.32,-0.22,0.23,-0.81,-0.72,3.55,3.54,3.54
22.31,3.39,-0.15,3.39,-0.15,0.15,-0.82,-0.74,3.54,3.54,3.54
22.54,3.46,-0.07,3.46,-0.07,0.07,-0.82,-0.76,3.53,3.53,3.53
22.76,3.53,0.01,3.53,0.00,-0.01,-0.83,-0.78,3.52,3.51,3.52
22.99,3.60,0.08,3.60,0.08,-0.10,-0.83,-0.80,3.50,3.51,3.52
23.22,3.68,0.16,3.68,0.16,-0.18,-0.84,-0.83,3.50,3.50,3.52
23.45,3.76,0.25,3.76,0.25,-0.25,-0.84,-0.85,3.51,3.51,3.51
23.69,3.85,0.34,3.85,0.34,-0.33,-0.85,-0.87,3.52,3.52,3.51
23.92,3.93,0.42,3.92,0.42,-0.40,-0.85,-0.90,3.53,3.53,3.51
24.16,3.99,0.48,3.99,0.48,-0.46,-0.86,-0.92,3.53,3.52,3.51
24.40,4.04,0.53,4.04,0.53,-0.53,-0.87,-0.95,3.51,3.51,3.51
24.65,4.08,0.57,4.08,0.58,-0.59,-0.87,-0.98,3.49,3.50,3.51
24.89,4.13,0.63,4.13,0.63,-0.64,-0.88,-1.00,3.49,3.49,3.50
25.14,4.18,0.68,4.18,0.68,-0.70,-0.89,-1.03,3.48,3.49,3.50
25.39,4.24,0.75,4.24,0.74,-0.75,-0.90,-1.05,3.49,3.49,3.49
25.65,4.30,0.81,4.30,0.81,-0.81,-0.90,-1.08,3.49,3.49,3.49
25.91,4.36,0.87,4.36,0.86,-0.86,-0.91,-1.11,3.50,3.49,3.49
26.16,4.41,0.92,4.41,0.92,-0.92,-0.92,-1.13,3.49,3.49,3.49
26.43,4.46,0.97,4.46,0.97,-0.97,-0.93,-1.16,3.49,3.50,3.49
26.69,4.51,1.02,4.51,1.02,-1.01,-0.94,-1.18,3.50,3.50,3.49
26.96,4.56,1.07,4.55,1.06,-1.05,-0.95,-1.21,3.51,3.50,3.49
27.23,4.58,1.09,4.58,1.09,-1.08,-0.96,-1.23,3.50,3.50,3.49
27.50,4.60,1.11,4.60,1.11,-1.11,-0.97,-1.26,3.49,3.49,3.49
27.77,4.62,1.13,4.62,1.13,-1.14,-0.98,-1.28,3.48,3.48,3.49
28.05,4.64,1.15,4.64,1.15,-1.16,-0.99,-1.30,3.48,3.48,3.49
28.33,4.66,1.17,4.66,1.18,-1.19,-1.00,-1.32,3.47,3.48,3.48
28.62,4.69,1.20,4.69,1.20,-1.21,-1.01,-1.34,3.48,3.48,3.48
28.90,4.72,1.23,4.72,1.23,-1.24,-1.02,-1.36,3.48,3.48,3.49
29.19,4.75,1.26,4.75,1.26,-1.26,-1.04,-1.38,3.49,3.49,3.49
29.48,4.78,1.29,4.79,1.29,-1.28,-1.05,-1.39,3.50,3.51,3.49
29.78,4.82,1.32,4.81,1.32,-1.30,-1.06,-1.41,3.52,3.52,3.50
30.08,4.84,1.34,4.83,1.33,-1.31,-1.08,-1.42,3.52,3.52,3.50
30.38,4.83,1.33,4.83,1.33,-1.33,-1.09,-1.43,3.50,3.50,3.50
30.68,4.83,1.33,4.83,1.33,-1.35,-1.11,-1.44,3.48,3.48,3.50
30.99,4.82,1.32,4.83,1.34,-1.37,-1.12,-1.44,3.45,3.46,3.49
31.30,4.86,1.37,4.86,1.36,-1.38,-1.14,-1.45,3.48,3.47,3.49
31.61,4.89,1.40,4.89,1.40,-1.40,-1.16,-1.45,3.49,3.49,3.49
31.93,4.93,1.44,4.92,1.43,-1.41,-1.17,-1.45,3.52,3.51,3.49
32.24,4.94,1.46,4.93,1.45,-1.43,-1.19,-1.45,3.51,3.50,3.48
32.57,4.93,1.45,4.93,1.46,-1.44,-1.21,-1.44,3.49,3.49,3.48
32.89,4.92,1.44,4.92,1.45,-1.46,-1.23,-1.44,3.46,3.47,3.48
33.22,4.92,1.46,4.92,1.45,-1.46,-1.25,-1.43,3.46,3.46,3.46
33.55,4.92,1.46,4.92,1.46,-1.47,-1.26,-1.42,3.45,3.45,3.46
33.89,4.92,1.47,4.92,1.47,-1.47,-1.28,-1.41,3.45,3.45,3.45
34.23,4.92,1.47,4.92,1.47,-1.47,-1.30,-1.40,3.45,3.45,3.45
34.57,4.92,1.47,4.92,1.47,-1.47,-1.32,-1.39,3.45,3.45,3.45
34.92,4.92,1.48,4.92,1.48,-1.47,-1.34,-1.38,3.44,3.44,3.44
35.27,4.92,1.48,4.92,1.48,-1.48,-1.36,-1.36,3.44,3.44,3.44
35.62,4.92,1.48,4.92,1.48,-1.48,-1.38,-1.35,3.44,3.44,3.44
35.97,4.92,1.48,4.92,1.48,-1.48,-1.40,-1.33,3.44,3.44,3.44
36.33,4.92,1.48,4.92,1.48,-1.48,-1.42,-1.31,3.43,3.43,3.43
36.70,4.92,1.49,4.92,1.49,-1.49,-1.44,-1.30,3.43,3.43,3.43
37.06,4.92,1.49,4.92,1.49,-1.49,-1.45,-1.28,3.43,3.43,3.43
37.43,4.92,1.49,4.92,1.49,-1.49,-1.47,-1.26,3.43,3.43,3.43
37.81,4.92,1.49,4.92,1.49,-1.49,-1.48,-1.24,3.43,3.43,3.43
38.19,4.92,1.49,4.92,1.49,-1.49,-1.50,-1.23,3.43,3.43,3.43
38.57,4.92,1.49,4.92,1.49,-1.49,-1.51,-1.21,3.43,3.43,3.43
38.95,4.92,1.48,4.92,1.49,-1.49,-1.52,-1.19,3.43,3.43,3.43
39.34,4.92,1.49,4.92,1.49,-1.49,-1.53,-1.17,3.42,3.42,3.43
39.74,4.92,1.49,4.92,1.49,-1.49,-1.54,-1.16,3.43,3.43,3.43
40.14,4.92,1.49,4.92,1.50,-1.49,-1.54,-1.14,3.43,3.44,3.42
40.54,4.92,1.50,4.92,1.50,-1.48,-1.54,-1.12,3.44,3.44,3.42
40.94,4.92,1.50,4.91,1.49,-1.47,-1.54,-1.11,3.45,3.44,3.42
41.35,4.88,1.47,4.88,1.47,-1.46,-1.54,-1.09,3.42,3.41,3.41
41.76,4.84,1.44,4.84,1.44,-1.45,-1.54,-1.08,3.39,3.39,3.40
42.18,4.81,1.41,4.82,1.42,-1.45,-1.54,-1.07,3.36,3.38,3.40
42.60,4.82,1.43,4.81,1.42,-1.44,-1.53,-1.05,3.38,3.37,3.39
43.03,4.82,1.43,4.82,1.43,-1.44,-1.52,-1.04,3.38,3.38,3.39
43.46,4.82,1.44,4.82,1.44,-1.44,-1.51,-1.03,3.38,3.38,3.38
43.90,4.82,1.45,4.82,1.45,-1.44,-1.50,-1.02,3.38,3.38,3.37
44.33,4.82,1.46,4.82,1.46,-1.45,-1.49,-1.01,3.37,3.37,3.36
44.78,4.82,1.46,4.82,1.46,-1.47,-1.47,-1.00,3.35,3.35,3.36
45.23,4.82,1.47,4.82,1.47,-1.47,-1.46,-0.99,3.34,3.34,3.35
45.68,4.82,1.47,4.82,1.47,-1.48,-1.44,-0.99,3.34,3.34,3.35
46.13,4.82,1.47,4.82,1.48,-1.47,-1.43,-0.98,3.35,3.35,3.35
46.60,4.82,1.47,4.82,1.47,-1.46,-1.41,-0.97,3.36,3.36,3.34
47.06,4.82,1.47,4.81,1.46,-1.43,-1.39,-0.97,3.38,3.37,3.35
47.53,4.78,1.43,4.78,1.43,-1.40,-1.37,-0.96,3.38,3.38,3.35
48.01,4.74,1.38,4.73,1.38,-1.37,-1.35,-0.96,3.37,3.36,3.35
48.49,4.69,1.33,4.68,1.33,-1.34,-1.33,-0.96,3.35,3.34,3.36
48.97,4.63,1.27,4.65,1.29,-1.32,-1.31,-0.95,3.31,3.33,3.36
49.46,4.63,1.27,4.63,1.26,-1.31,-1.29,-0.95,3.32,3.32,3.36
49.96,4.63,1.25,4.62,1.25,-1.29,-1.26,-0.95,3.34,3.33,3.38
50.46,4.63,1.25,4.63,1.25,-1.26,-1.24,-0.95,3.37,3.36,3.38
50.96,4.63,1.24,4.67,1.28,-1.24,-1.22,-0.95,3.39,3.43,3.39
51.47,4.68,1.29,4.69,1.30,-1.21,-1.19,-0.95,3.47,3.48,3.39
51.99,4.73,1.34,4.63,1.24,-1.18,-1.16,-0.95,3.55,3.45,3.39
52.51,4.54,1.15,4.54,1.15,-1.16,-1.14,-0.95,3.39,3.39,3.39
53.03,4.36,0.97,4.45,1.06,-1.12,-1.11,-0.96,3.24,3.33,3.39
53.56,4.41,1.01,4.40,1.00,-1.08,-1.08,-0.96,3.33,3.32,3.39
54.10,4.44,1.03,4.41,1.01,-1.03,-1.04,-0.96,3.41,3.38,3.40
54.64,4.42,1.02,4.42,1.02,-0.97,-1.01,-0.97,3.45,3.45,3.40
55.18,4.39,0.99,4.39,0.99,-0.93,-0.97,-0.97,3.46,3.46,3.40
55.74,4.33,0.94,4.32,0.92,-0.90,-0.94,-0.98,3.43,3.42,3.39
56.29,4.25,0.86,4.24,0.85,-0.87,-0.90,-0.98,3.38,3.37,3.39
56.86,4.15,0.76,4.17,0.78,-0.84,-0.86,-0.98,3.31,3.32,3.39
57.42,4.12,0.74,4.13,0.75,-0.80,-0.82,-0.99,3.32,3.33,3.38
58.00,4.12,0.76,4.15,0.79,-0.76,-0.78,-1.00,3.36,3.39,3.36
58.58,4.18,0.83,4.14,0.79,-0.73,-0.75,-1.00,3.45,3.42,3.35
59.16,4.16,0.82,4.08,0.74,-0.71,-0.71,-1.01,3.45,3.37,3.34
59.76,3.93,0.61,4.00,0.68,-0.69,-0.69,-1.01,3.24,3.31,3.32
60.35,3.88,0.58,3.93,0.63,-0.68,-0.67,-1.02,3.20,3.25,3.30
60.96,3.95,0.67,3.91,0.63,-0.67,-0.65,-1.02,3.28,3.23,3.27
61.57,3.94,0.69,3.93,0.68,-0.66,-0.65,-1.03,3.28,3.26,3.25
62.18,3.91,0.69,3.91,0.70,-0.66,-0.65,-1.04,3.25,3.25,3.21
62.80,3.86,0.68,3.86,0.68,-0.67,-0.67,-1.04,3.19,3.19,3.18
63.43,3.81,0.68,3.81,0.67,-0.68,-0.69,-1.05,3.13,3.13,3.13
64.07,3.76,0.66,3.77,0.68,-0.70,-0.72,-1.05,3.06,3.07,3.09
64.71,3.76,0.71,3.76,0.71,-0.72,-0.75,-1.06,3.04,3.04,3.05
65.35,3.76,0.75,3.76,0.75,-0.74,-0.80,-1.07,3.02,3.02,3.01
66.01,3.76,0.79,3.76,0.79,-0.76,-0.84,-1.07,3.00,3.00,2.97
66.67,3.76,0.83,3.73,0.80,-0.80,-0.89,-1.08,2.96,2.93,2.93
67.33,3.72,0.82,3.71,0.81,-0.85,-0.93,-1.09,2.87,2.86,2.90
68.01,3.65,0.79,3.72,0.86,-0.90,-0.98,-1.09,2.75,2.82,2.86
68.69,3.79,0.96,3.77,0.93,-0.95,-1.02,-1.10,2.84,2.81,2.83
69.37,3.86,1.06,3.82,1.02,-1.00,-1.07,-1.11,2.86,2.82,2.80
70.07,3.86,1.09,3.87,1.10,-1.05,-1.11,-1.12,2.81,2.82,2.77
70.77,3.86,1.12,3.87,1.13,-1.10,-1.15,-1.13,2.76,2.77,2.74
71.48,3.86,1.15,3.86,1.15,-1.15,-1.19,-1.14,2.71,2.71,2.71
72.19,3.86,1.18,3.86,1.18,-1.19,-1.23,-1.15,2.67,2.67,2.68
72.91,3.86,1.21,3.86,1.21,-1.23,-1.26,-1.16,2.63,2.63,2.65
73.64,3.86,1.25,3.86,1.25,-1.26,-1.30,-1.17,2.60,2.60,2.61
74.38,3.86,1.28,3.86,1.28,-1.29,-1.33,-1.18,2.57,2.57,2.58
75.12,3.86,1.32,3.86,1.32,-1.32,-1.36,-1.19,2.54,2.54,2.54
75.87,3.86,1.37,3.86,1.36,-1.36,-1.39,-1.20,2.50,2.50,2.49
76.63,3.86,1.40,3.86,1.40,-1.40,-1.41,-1.22,2.45,2.45,2.46
77.40,3.86,1.45,3.86,1.45,-1.45,-1.44,-1.23,2.41,2.41,2.41
78.17,3.86,1.49,3.86,1.49,-1.49,-1.47,-1.25,2.37,2.37,2.37
78.95,3.86,1.54,3.86,1.53,-1.53,-1.49,-1.27,2.32,2.32,2.32
79.74,3.86,1.58,3.86,1.58,-1.58,-1.52,-1.28,2.28,2.28,2.28
80.54,3.86,1.62,3.86,1.62,-1.62,-1.54,-1.30,2.24,2.24,2.23
81.35,3.86,1.66,3.86,1.66,-1.66,-1.56,-1.32,2.20,2.20,2.19
82.16,3.86,1.71,3.86,1.71,-1.70,-1.58,-1.34,2.16,2.16,2.15
82.98,3.86,1.75,3.86,1.75,-1.74,-1.60,-1.36,2.12,2.12,2.11
83.81,3.86,1.79,3.86,1.79,-1.78,-1.63,-1.39,2.08,2.08,2.07
84.65,3.86,1.82,3.86,1.82,-1.83,-1.65,-1.41,2.02,2.02,2.04
85.50,3.86,1.86,3.86,1.86,-1.89,-1.67,-1.44,1.97,1.97,2.00
86.35,3.86,1.91,3.85,1.90,-1.94,-1.69,-1.46,1.92,1.91,1.95
87.22,3.86,1.95,3.87,1.96,-1.98,-1.71,-1.49,1.88,1.88,1.91
88.09,3.87,2.00,3.91,2.04,-2.01,-1.73,-1.52,1.86,1.90,1.86
88.97,3.96,2.13,3.93,2.11,-2.03,-1.75,-1.55,1.93,1.91,1.83
89.86,3.96,2.17,3.91,2.13,-2.04,-1.77,-1.58,1.92,1.87,1.79
90.76,3.82,2.08,3.83,2.09,-2.05,-1.79,-1.61,1.77,1.78,1.74
91.66,3.71,2.00,3.72,2.02,-2.07,-1.81,-1.64,1.64,1.65,1.70
92.58,3.62,1.95,3.64,1.98,-2.09,-1.82,-1.68,1.53,1.55,1.67
93.51,3.62,2.00,3.62,2.00,-2.10,-1.84,-1.71,1.52,1.52,1.62
94.44,3.66,2.07,3.66,2.07,-2.10,-1.86,-1.75,1.56,1.56,1.59
95.39,3.70,2.15,3.72,2.17,-2.10,-1.88,-1.79,1.60,1.61,1.55
96.34,3.76,2.25,3.72,2.21,-2.10,-1.90,-1.83,1.66,1.62,1.51
97.30,3.70,2.22,3.68,2.21,-2.11,-1.92,-1.86,1.59,1.57,1.47
98.28,3.55,2.12,3.57,2.14,-2.12,-1.94,-1.90,1.43,1.45,1.43
99.26,3.47,2.08,3.46,2.07,-2.12,-1.96,-1.95,1.34,1.33,1.39
100.25,3.35,2.00,3.39,2.04,-2.13,-1.97,-1.99,1.22,1.26,1.35
101.25,3.37,2.06,3.37,2.06,-2.13,-1.99,-2.03,1.24,1.24,1.31
102.27,3.40,2.14,3.37,2.11,-2.14,-2.01,-2.07,1.26,1.24,1.26
103.29,3.39,2.17,3.38,2.17,-2.16,-2.03,-2.11,1.23,1.23,1.22
104.32,3.37,2.20,3.38,2.21,-2.18,-2.05,-2.15,1.19,1.20,1.17
105.37,3.36,2.23,3.38,2.26,-2.21,-2.07,-2.20,1.15,1.18,1.13
106.42,3.39,2.31,3.36,2.28,-2.23,-2.08,-2.24,1.16,1.13,1.08
107.48,3.33,2.30,3.30,2.27,-2.24,-2.10,-2.28,1.08,1.06,1.03
108.56,3.20,2.22,3.23,2.25,-2.25,-2.12,-2.32,0.95,0.98,0.98
109.64,3.15,2.21,3.16,2.22,-2.25,-2.14,-2.36,0.89,0.90,0.94
110.74,3.13,2.23,3.12,2.22,-2.26,-2.15,-2.40,0.86,0.86,0.90
111.85,3.11,2.25,3.11,2.25,-2.28,-2.17,-2.43,0.83,0.83,0.86
112.97,3.11,2.29,3.10,2.28,-2.30,-2.19,-2.47,0.81,0.80,0.82
114.10,3.10,2.31,3.10,2.31,-2.33,-2.21,-2.50,0.77,0.77,0.78
115.24,3.11,2.35,3.12,2.37,-2.36,-2.22,-2.53,0.75,0.76,0.76
116.39,3.13,2.41,3.14,2.42,-2.38,-2.24,-2.56,0.75,0.76,0.72
117.55,3.17,2.47,3.13,2.43,-2.39,-2.26,-2.59,0.78,0.74,0.70
118.73,3.12,2.44,3.11,2.43,-2.40,-2.27,-2.61,0.72,0.71,0.68
119.92,3.03,2.37,3.07,2.41,-2.40,-2.29,-2.63,0.63,0.67,0.66
121.12,3.03,2.38,3.03,2.38,-2.39,-2.30,-2.65,0.64,0.64,0.65
122.33,3.02,2.39,2.98,2.35,-2.38,-2.32,-2.66,0.63,0.59,0.63
123.55,2.95,2.33,2.95,2.34,-2.37,-2.33,-2.68,0.58,0.58,0.62
124.79,2.88,2.28,2.94,2.34,-2.36,-2.35,-2.68,0.52,0.58,0.60
126.03,2.97,2.38,2.95,2.36,-2.35,-2.36,-2.69,0.62,0.60,0.59
127.29,3.00,2.43,2.95,2.38,-2.35,-2.38,-2.69,0.65,0.60,0.57
128.57,2.94,2.38,2.95,2.39,-2.36,-2.39,-2.69,0.58,0.59,0.56
129.85,2.88,2.33,2.91,2.36,-2.37,-2.40,-2.68,0.51,0.54,0.55
131.15,2.89,2.36,2.88,2.35,-2.38,-2.41,-2.67,0.51,0.50,0.53
132.46,2.89,2.38,2.89,2.37,-2.40,-2.43,-2.66,0.49,0.49,0.51
133.79,2.90,2.40,2.90,2.40,-2.42,-2.44,-2.65,0.48,0.48,0.50
135.12,2.90,2.42,2.90,2.41,-2.42,-2.45,-2.63,0.48,0.47,0.48
136.48,2.90,2.43,2.91,2.44,-2.42,-2.46,-2.61,0.48,0.49,0.47
137.84,2.91,2.46,2.93,2.48,-2.42,-2.47,-2.59,0.49,0.51,0.45
139.22,2.94,2.51,2.90,2.47,-2.42,-2.48,-2.57,0.52,0.49,0.43
140.61,2.90,2.49,2.84,2.43,-2.41,-2.48,-2.54,0.49,0.43,0.41
142.02,2.70,2.31,2.77,2.38,-2.40,-2.49,-2.52,0.29,0.37,0.39
143.44,2.71,2.34,2.71,2.35,-2.40,-2.50,-2.49,0.30,0.31,0.37
144.87,2.72,2.38,2.70,2.36,-2.41,-2.51,-2.46,0.30,0.28,0.34
146.32,2.72,2.41,2.72,2.41,-2.43,-2.51,-2.43,0.29,0.29,0.31
147.78,2.72,2.44,2.72,2.44,-2.45,-2.52,-2.41,0.27,0.26,0.28
149.26,2.72,2.48,2.72,2.48,-2.48,-2.52,-2.38,0.24,0.24,0.24
150.75,2.72,2.52,2.75,2.55,-2.51,-2.52,-2.35,0.21,0.23,0.20
152.26,2.75,2.61,2.74,2.60,-2.54,-2.53,-2.32,0.21,0.20,0.14
153.78,2.75,2.66,2.68,2.60,-2.56,-2.53,-2.29,0.19,0.13,0.09
155.32,2.58,2.55,2.61,2.58,-2.57,-2.53,-2.26,0.01,0.04,0.03
156.88,2.47,2.50,2.52,2.55,-2.57,-2.53,-2.24,-0.10,-0.05,-0.03
158.44,2.48,2.57,2.44,2.53,-2.57,-2.53,-2.21,-0.09,-0.13,-0.09
160.03,2.43,2.57,2.40,2.54,-2.57,-2.53,-2.18,-0.14,-0.17,-0.14
161.63,2.34,2.52,2.39,2.58,-2.57,-2.52,-2.16,-0.23,-0.18,-0.18
163.24,2.36,2.59,2.35,2.58,-2.59,-2.52,-2.14,-0.23,-0.24,-0.23
164.88,2.38,2.64,2.32,2.59,-2.60,-2.52,-2.12,-0.23,-0.28,-0.26
166.53,2.27,2.56,2.33,2.62,-2.62,-2.51,-2.09,-0.35,-0.29,-0.29
168.19,2.32,2.63,2.33,2.63,-2.63,-2.50,-2.08,-0.31,-0.30,-0.31
169.87,2.36,2.68,2.34,2.66,-2.62,-2.50,-2.06,-0.26,-0.28,-0.32
171.57,2.35,2.67,2.34,2.66,-2.61,-2.49,-2.04,-0.26,-0.27,-0.32
173.29,2.32,2.64,2.30,2.62,-2.59,-2.48,-2.03,-0.27,-0.29,-0.32
175.02,2.21,2.52,2.24,2.55,-2.57,-2.47,-2.01,-0.36,-0.33,-0.31
176.77,2.19,2.48,2.20,2.49,-2.54,-2.46,-2.00,-0.35,-0.34,-0.29
178.54,2.19,2.47,2.18,2.46,-2.50,-2.45,-1.99,-0.31,-0.32,-0.28
180.32,2.19,2.44,2.20,2.46,-2.45,-2.44,-1.98,-0.26,-0.25,-0.26
182.13,2.20,2.44,2.20,2.44,-2.41,-2.43,-1.98,-0.21,-0.21,-0.24
183.95,2.21,2.42,2.18,2.40,-2.37,-2.42,-1.97,-0.16,-0.19,-0.21
185.79,2.14,2.35,2.15,2.36,-2.34,-2.40,-1.97,-0.20,-0.19,-0.21
187.65,2.10,2.30,2.11,2.31,-2.32,-2.39,-1.97,-0.22,-0.21,-0.20
189.52,2.07,2.26,2.07,2.27,-2.31,-2.37,-1.97,-0.24,-0.24,-0.20
191.42,2.07,2.27,2.07,2.26,-2.30,-2.36,-1.97,-0.23,-0.23,-0.20
193.33,2.08,2.27,2.08,2.27,-2.30,-2.34,-1.97,-0.22,-0.22,-0.19
195.27,2.10,2.29,2.09,2.29,-2.30,-2.33,-1.97,-0.20,-0.21,-0.19
197.22,2.11,2.31,2.12,2.32,-2.30,-2.31,-1.98,-0.19,-0.18,-0.20
199.19,2.14,2.34,2.14,2.35,-2.29,-2.29,-1.98,-0.15,-0.15,-0.21
201.18,2.16,2.37,2.13,2.35,-2.29,-2.27,-1.99,-0.13,-0.16,-0.22
203.19,2.09,2.32,2.09,2.31,-2.28,-2.25,-1.99,-0.19,-0.19,-0.23
205.23,2.01,2.25,2.02,2.25,-2.27,-2.23,-2.00,-0.26,-0.26,-0.24
207.28,1.94,2.19,1.95,2.20,-2.26,-2.21,-2.01,-0.32,-0.31,-0.25
209.35,1.92,2.17,1.93,2.18,-2.25,-2.19,-2.02,-0.33,-0.33,-0.26
211.44,1.93,2.20,1.93,2.20,-2.24,-2.17,-2.03,-0.31,-0.31,-0.27
213.56,1.96,2.24,1.96,2.24,-2.22,-2.15,-2.04,-0.26,-0.27,-0.28
215.69,1.97,2.27,1.97,2.27,-2.21,-2.13,-2.05,-0.24,-0.24,-0.30
217.85,1.96,2.27,1.94,2.25,-2.19,-2.11,-2.05,-0.23,-0.26,-0.31
220.03,1.87,2.20,1.88,2.20,-2.17,-2.09,-2.06,-0.30,-0.29,-0.33
222.23,1.79,2.13,1.80,2.14,-2.14,-2.06,-2.07,-0.36,-0.34,-0.34
224.45,1.74,2.08,1.73,2.07,-2.10,-2.04,-2.08,-0.36,-0.38,-0.34
226.70,1.67,2.02,1.68,2.03,-2.05,-2.02,-2.08,-0.38,-0.37,-0.35
228.96,1.64,2.00,1.64,2.00,-2.00,-1.99,-2.09,-0.36,-0.36,-0.36
231.25,1.62,1.97,1.61,1.96,-1.96,-1.97,-2.09,-0.34,-0.35,-0.35
233.57,1.57,1.93,1.57,1.93,-1.93,-1.95,-2.09,-0.36,-0.36,-0.36
235.90,1.54,1.90,1.54,1.89,-1.91,-1.92,-2.09,-0.37,-0.37,-0.36
238.26,1.50,1.85,1.51,1.86,-1.89,-1.90,-2.09,-0.39,-0.38,-0.35
240.64,1.51,1.85,1.51,1.85,-1.87,-1.87,-2.09,-0.36,-0.36,-0.34
243.05,1.52,1.85,1.54,1.88,-1.85,-1.85,-2.08,-0.33,-0.30,-0.33
245.48,1.56,1.89,1.55,1.88,-1.83,-1.83,-2.08,-0.27,-0.28,-0.33
247.93,1.59,1.91,1.52,1.84,-1.82,-1.80,-2.07,-0.23,-0.30,-0.33
250.41,1.42,1.74,1.47,1.79,-1.81,-1.78,-2.05,-0.39,-0.34,-0.32
252.92,1.39,1.70,1.42,1.74,-1.79,-1.75,-2.04,-0.40,-0.37,-0.32
255.45,1.42,1.74,1.41,1.73,-1.77,-1.73,-2.02,-0.35,-0.37,-0.32
258.00,1.44,1.76,1.44,1.76,-1.75,-1.71,-2.00,-0.31,-0.31,-0.32
260.58,1.46,1.79,1.44,1.77,-1.72,-1.68,-1.98,-0.26,-0.28,-0.33
263.19,1.41,1.74,1.41,1.74,-1.70,-1.66,-1.96,-0.29,-0.29,-0.33
265.82,1.34,1.68,1.35,1.68,-1.68,-1.63,-1.93,-0.34,-0.34,-0.34
268.48,1.28,1.62,1.28,1.62,-1.66,-1.61,-1.90,-0.38,-0.38,-0.34
271.16,1.23,1.57,1.24,1.59,-1.63,-1.59,-1.87,-0.40,-0.39,-0.35
273.87,1.22,1.57,1.24,1.59,-1.59,-1.56,-1.84,-0.37,-0.35,-0.35
276.61,1.25,1.60,1.23,1.59,-1.54,-1.54,-1.81,-0.30,-0.31,-0.35
279.38,1.25,1.60,1.19,1.54,-1.50,-1.51,-1.77,-0.25,-0.31,-0.36
282.17,1.09,1.44,1.14,1.49,-1.46,-1.49,-1.74,-0.37,-0.32,-0.35
284.99,1.03,1.37,1.06,1.40,-1.42,-1.47,-1.70,-0.39,-0.37,-0.34
287.84,1.05,1.39,0.99,1.33,-1.38,-1.45,-1.66,-0.34,-0.39,-0.35
290.72,0.94,1.28,0.98,1.32,-1.34,-1.42,-1.62,-0.40,-0.36,-0.34
293.63,0.96,1.29,0.97,1.30,-1.30,-1.40,-1.58,-0.34,-0.33,-0.33
296.57,0.99,1.31,0.95,1.28,-1.26,-1.38,-1.54,-0.27,-0.31,-0.32
299.53,0.94,1.27,0.94,1.26,-1.23,-1.36,-1.50,-0.29,-0.29,-0.33
302.53,0.90,1.22,0.90,1.22,-1.22,-1.33,-1.46,-0.32,-0.32,-0.32
305.55,0.85,1.17,0.86,1.18,-1.21,-1.31,-1.42,-0.37,-0.35,-0.32
308.61,0.85,1.17,0.85,1.17,-1.21,-1.29,-1.38,-0.36,-0.36,-0.32
311.69,0.85,1.18,0.85,1.18,-1.20,-1.27,-1.34,-0.36,-0.36,-0.33
314.81,0.86,1.20,0.85,1.19,-1.19,-1.25,-1.30,-0.33,-0.34,-0.34
317.96,0.86,1.20,0.88,1.22,-1.18,-1.23,-1.26,-0.32,-0.30,-0.34
321.14,0.87,1.22,0.88,1.23,-1.16,-1.21,-1.22,-0.29,-0.28,-0.35
324.35,0.90,1.25,0.83,1.18,-1.15,-1.19,-1.18,-0.25,-0.32,-0.35
327.59,0.73,1.10,0.76,1.12,-1.13,-1.17,-1.14,-0.40,-0.37,-0.37
330.87,0.65,1.03,0.69,1.07,-1.12,-1.15,-1.11,-0.47,-0.43,-0.38
334.18,0.65,1.04,0.64,1.03,-1.10,-1.13,-1.07,-0.45,-0.46,-0.39
337.52,0.66,1.06,0.65,1.05,-1.07,-1.11,-1.03,-0.41,-0.42,-0.40
340.90,0.66,1.06,0.66,1.07,-1.05,-1.09,-0.99,-0.39,-0.39,-0.40
344.30,0.66,1.07,0.65,1.07,-1.03,-1.07,-0.96,-0.37,-0.38,-0.41
347.75,0.61,1.05,0.61,1.04,-1.01,-1.05,-0.92,-0.40,-0.40,-0.44
351.23,0.57,1.02,0.56,1.01,-1.00,-1.03,-0.89,-0.43,-0.44,-0.45
354.74,0.50,0.96,0.52,0.97,-0.99,-1.01,-0.85,-0.49,-0.47,-0.46
358.28,0.47,0.94,0.46,0.93,-0.96,-1.00,-0.82,-0.49,-0.50,-0.47
361.87,0.44,0.92,0.42,0.91,-0.93,-0.98,-0.79,-0.49,-0.51,-0.48
365.49,0.36,0.86,0.41,0.91,-0.89,-0.96,-0.76,-0.53,-0.48,-0.50
369.14,0.40,0.91,0.38,0.89,-0.86,-0.94,-0.72,-0.46,-0.48,-0.51
372.83,0.39,0.91,0.32,0.85,-0.85,-0.93,-0.69,-0.46,-0.52,-0.53
376.56,0.23,0.77,0.27,0.81,-0.83,-0.91,-0.66,-0.60,-0.56,-0.54
380.33,0.18,0.73,0.22,0.77,-0.81,-0.89,-0.63,-0.63,-0.59,-0.55
384.13,0.22,0.78,0.20,0.76,-0.79,-0.88,-0.60,-0.57,-0.59,-0.56
387.97,0.24,0.81,0.22,0.79,-0.77,-0.86,-0.58,-0.53,-0.55,-0.57
391.85,0.20,0.78,0.21,0.79,-0.74,-0.85,-0.55,-0.54,-0.53,-0.58
395.77,0.16,0.75,0.16,0.75,-0.71,-0.83,-0.52,-0.55,-0.55,-0.59
399.73,0.09,0.69,0.08,0.68,-0.68,-0.82,-0.50,-0.59,-0.60,-0.60
403.72,0.01,0.62,0.01,0.63,-0.64,-0.80,-0.47,-0.63,-0.63,-0.61
407.76,-0.09,0.54,-0.04,0.59,-0.60,-0.79,-0.45,-0.69,-0.64,-0.63
411.84,-0.06,0.58,-0.10,0.54,-0.55,-0.77,-0.42,-0.62,-0.65,-0.64
415.96,-0.12,0.53,-0.15,0.50,-0.51,-0.76,-0.40,-0.63,-0.66,-0.66
420.12,-0.24,0.42,-0.20,0.47,-0.47,-0.74,-0.37,-0.72,-0.67,-0.66
424.32,-0.24,0.43,-0.23,0.43,-0.45,-0.73,-0.35,-0.69,-0.68,-0.67
428.56,-0.23,0.44,-0.24,0.43,-0.43,-0.72,-0.33,-0.66,-0.67,-0.67
432.85,-0.22,0.44,-0.25,0.41,-0.41,-0.70,-0.31,-0.63,-0.66,-0.66
437.18,-0.27,0.38,-0.27,0.38,-0.38,-0.69,-0.29,-0.65,-0.65,-0.65
441.55,-0.32,0.31,-0.26,0.37,-0.35,-0.68,-0.27,-0.67,-0.62,-0.63
445.96,-0.23,0.38,-0.27,0.34,-0.32,-0.67,-0.26,-0.55,-0.59,-0.61
450.42,-0.23,0.35,-0.25,0.33,-0.29,-0.65,-0.24,-0.52,-0.54,-0.58
454.93,-0.30,0.24,-0.25,0.29,-0.27,-0.64,-0.22,-0.57,-0.52,-0.54
459.48,-0.23,0.27,-0.30,0.21,-0.25,-0.63,-0.21,-0.48,-0.55,-0.50
464.07,-0.34,0.13,-0.30,0.17,-0.23,-0.62,-0.20,-0.57,-0.53,-0.47
468.71,-0.30,0.13,-0.25,0.18,-0.22,-0.61,-0.18,-0.52,-0.47,-0.43
473.40,-0.16,0.23,-0.21,0.19,-0.19,-0.60,-0.17,-0.35,-0.40,-0.39
478.13,-0.12,0.23,-0.14,0.22,-0.16,-0.59,-0.16,-0.29,-0.30,-0.35
482.91,-0.13,0.19,-0.11,0.22,-0.15,-0.58,-0.15,-0.28,-0.25,-0.32
487.74,-0.12,0.17,-0.12,0.17,-0.14,-0.57,-0.14,-0.26,-0.26,-0.29
492.62,-0.14,0.13,-0.17,0.10,-0.13,-0.56,-0.14,-0.27,-0.30,-0.28
497.55,-0.21,0.04,-0.23,0.03,-0.11,-0.55,-0.13,-0.32,-0.33,-0.26
502.52,-0.30,-0.05,-0.23,0.02,-0.07,-0.54,-0.13,-0.37,-0.30,-0.25
507.55,-0.22,0.03,-0.18,0.07,-0.03,-0.53,-0.13,-0.26,-0.21,-0.25
