frequency,raw,error,smoothed,error_smoothed,equalization,parametric_eq,fixed_band_eq,equalized_raw,equalized_smoothed,target
20.00,4.89,1.31,4.89,1.31,-1.30,-1.28,-1.09,3.58,3.58,3.57
20.20,4.93,1.34,4.93,1.34,-1.34,-1.31,-1.12,3.58,3.58,3.58
20.40,4.98,1.38,4.97,1.38,-1.38,-1.33,-1.15,3.59,3.59,3.59
20.61,5.01,1.42,5.01,1.42,-1.42,-1.36,-1.19,3.59,3.59,3.59
20.81,5.06,1.45,5.06,1.45,-1.46,-1.39,-1.22,3.60,3.60,3.60
21.02,5.10,1.49,5.10,1.49,-1.50,-1.41,-1.26,3.60,3.60,3.60
21.23,5.15,1.53,5.14,1.53,-1.53,-1.44,-1.30,3.61,3.61,3.61
21.44,5.19,1.57,5.19,1.57,-1.57,-1.47,-1.34,3.61,3.61,3.61
21.66,5.22,1.61,5.23,1.62,-1.61,-1.50,-1.38,3.61,3.62,3.61
21.87,5.28,1.66,5.27,1.65,-1.65,-1.53,-1.42,3.62,3.62,3.61
22.09,5.31,1.68,5.31,1.69,-1.69,-1.56,-1.46,3.61,3.62,3.62
22.31,5.34,1.71,5.34,1.72,-1.73,-1.59,-1.50,3.61,3.61,3.62
22.54,5.37,1.76,5.37,1.76,-1.76,-1.62,-1.55,3.61,3.61,3.61
22.76,5.41,1.80,5.40,1.80,-1.79,-1.65,-1.59,3.62,3.61,3.60
22.99,5.44,1.83,5.43,1.83,-1.82,-1.68,-1.64,3.62,3.61,3.60
23.22,5.45,1.84,5.45,1.85,-1.84,-1.71,-1.69,3.60,3.61,3.60
23.45,5.47,1.88,5.46,1.87,-1.87,-1.74,-1.74,3.60,3.59,3.59
23.69,5.48,1.89,5.48,1.89,-1.90,-1.77,-1.79,3.58,3.58,3.59
23.92,5.50,1.91,5.50,1.91,-1.93,-1.80,-1.84,3.57,3.57,3.59
24.16,5.53,1.94,5.53,1.94,-1.96,-1.83,-1.89,3.57,3.57,3.59
24.40,5.57,1.98,5.57,1.98,-1.99,-1.86,-1.95,3.58,3.58,3.59
24.65,5.61,2.03,5.61,2.02,-2.01,-1.90,-2.00,3.60,3.60,3.59
24.89,5.66,2.07,5.65,2.06,-2.04,-1.93,-2.05,3.62,3.61,3.59
25.14,5.68,2.09,5.67,2.09,-2.07,-1.96,-2.11,3.61,3.61,3.59
25.39,5.69,2.11,5.68,2.10,-2.10,-1.99,-2.16,3.59,3.59,3.58
25.65,5.69,2.11,5.69,2.11,-2.13,-2.03,-2.22,3.56,3.56,3.58
25.91,5.70,2.12,5.70,2.13,-2.16,-2.06,-2.28,3.54,3.54,3.58
26.16,5.73,2.15,5.73,2.16,-2.19,-2.09,-2.33,3.54,3.54,3.58
26.43,5.78,2.21,5.78,2.21,-2.22,-2.12,-2.39,3.57,3.56,3.57
26.69,5.84,2.26,5.84,2.26,-2.25,-2.16,-2.44,3.59,3.59,3.57
26.96,5.88,2.31,5.87,2.30,-2.27,-2.19,-2.50,3.61,3.60,3.57
27.23,5.90,2.32,5.89,2.32,-2.30,-2.22,-2.55,3.60,3.60,3.57
27.50,5.90,2.32,5.90,2.33,-2.31,-2.25,-2.60,3.58,3.59,3.57
27.77,5.90,2.32,5.90,2.33,-2.32,-2.28,-2.65,3.58,3.58,3.57
28.05,5.90,2.33,5.90,2.33,-2.33,-2.31,-2.70,3.57,3.57,3.57
28.33,5.90,2.33,5.89,2.32,-2.33,-2.35,-2.74,3.56,3.56,3.57
28.62,5.90,2.33,5.89,2.32,-2.34,-2.38,-2.79,3.55,3.55,3.57
28.90,5.90,2.32,5.90,2.33,-2.36,-2.41,-2.83,3.54,3.54,3.58
29.19,5.93,2.35,5.93,2.36,-2.38,-2.44,-2.86,3.54,3.55,3.58
29.48,5.99,2.41,5.98,2.40,-2.41,-2.46,-2.90,3.58,3.58,3.58
29.78,6.03,2.45,6.03,2.45,-2.43,-2.49,-2.93,3.60,3.60,3.58
30.08,6.07,2.49,6.07,2.48,-2.46,-2.52,-2.96,3.62,3.61,3.58
30.38,6.09,2.50,6.08,2.50,-2.48,-2.55,-2.98,3.61,3.61,3.58
30.68,6.09,2.50,6.09,2.51,-2.49,-2.57,-3.00,3.59,3.60,3.58
30.99,6.10,2.51,6.09,2.51,-2.51,-2.60,-3.02,3.58,3.58,3.58
31.30,6.10,2.52,6.09,2.51,-2.53,-2.62,-3.03,3.57,3.56,3.58
31.61,6.10,2.52,6.09,2.52,-2.54,-2.65,-3.04,3.55,3.55,3.58
31.93,6.10,2.52,6.10,2.53,-2.55,-2.67,-3.04,3.54,3.55,3.58
32.24,6.13,2.56,6.13,2.56,-2.57,-2.69,-3.04,3.56,3.56,3.57
32.57,6.16,2.60,6.16,2.60,-2.58,-2.71,-3.03,3.58,3.58,3.56
32.89,6.21,2.64,6.19,2.64,-2.60,-2.73,-3.03,3.60,3.59,3.56
33.22,6.21,2.65,6.20,2.65,-2.63,-2.75,-3.01,3.58,3.57,3.55
33.55,6.20,2.65,6.19,2.65,-2.65,-2.76,-3.00,3.54,3.54,3.55
33.89,6.18,2.64,6.19,2.65,-2.68,-2.78,-2.98,3.50,3.51,3.54
34.23,6.21,2.67,6.21,2.67,-2.70,-2.79,-2.96,3.51,3.51,3.54
34.57,6.25,2.71,6.25,2.71,-2.72,-2.81,-2.94,3.53,3.53,3.53
34.92,6.29,2.76,6.28,2.75,-2.73,-2.82,-2.91,3.56,3.55,3.53
35.27,6.31,2.77,6.30,2.77,-2.75,-2.83,-2.88,3.55,3.55,3.53
35.62,6.31,2.78,6.31,2.78,-2.77,-2.84,-2.85,3.54,3.54,3.53
35.97,6.31,2.78,6.31,2.78,-2.78,-2.85,-2.82,3.53,3.53,3.53
36.33,6.31,2.78,6.31,2.78,-2.79,-2.85,-2.79,3.52,3.52,3.52
36.70,6.31,2.78,6.31,2.78,-2.79,-2.86,-2.76,3.52,3.52,3.52
37.06,6.31,2.79,6.31,2.79,-2.79,-2.86,-2.72,3.52,3.52,3.52
37.43,6.31,2.79,6.31,2.78,-2.79,-2.87,-2.69,3.52,3.52,3.52
37.81,6.31,2.78,6.31,2.78,-2.78,-2.87,-2.65,3.52,3.52,3.52
38.19,6.31,2.78,6.31,2.78,-2.78,-2.87,-2.62,3.52,3.52,3.52
38.57,6.31,2.79,6.31,2.78,-2.78,-2.87,-2.59,3.52,3.52,3.52
38.95,6.31,2.78,6.31,2.78,-2.78,-2.86,-2.55,3.52,3.52,3.53
39.34,6.31,2.78,6.31,2.78,-2.78,-2.86,-2.52,3.52,3.52,3.52
39.74,6.31,2.79,6.31,2.78,-2.79,-2.86,-2.49,3.52,3.52,3.52
40.14,6.31,2.79,6.31,2.79,-2.79,-2.85,-2.46,3.52,3.52,3.52
40.54,6.31,2.79,6.31,2.79,-2.79,-2.84,-2.43,3.51,3.51,3.51
40.94,6.31,2.80,6.31,2.80,-2.80,-2.84,-2.40,3.51,3.51,3.51
41.35,6.31,2.80,6.31,2.80,-2.80,-2.83,-2.37,3.50,3.50,3.51
41.76,6.31,2.81,6.31,2.81,-2.81,-2.82,-2.35,3.50,3.50,3.49
42.18,6.31,2.82,6.31,2.82,-2.81,-2.81,-2.32,3.49,3.49,3.49
42.60,6.31,2.82,6.31,2.82,-2.82,-2.80,-2.30,3.48,3.48,3.48
43.03,6.31,2.82,6.31,2.83,-2.83,-2.78,-2.28,3.48,3.48,3.48
43.46,6.31,2.83,6.31,2.83,-2.83,-2.77,-2.26,3.47,3.47,3.48
43.90,6.31,2.84,6.31,2.84,-2.84,-2.76,-2.24,3.46,3.46,3.46
44.33,6.31,2.85,6.31,2.85,-2.85,-2.74,-2.22,3.46,3.46,3.46
44.78,6.31,2.85,6.31,2.86,-2.85,-2.73,-2.21,3.45,3.45,3.45
45.23,6.31,2.86,6.31,2.86,-2.86,-2.72,-2.20,3.44,3.44,3.45
45.68,6.31,2.86,6.31,2.86,-2.87,-2.70,-2.18,3.44,3.44,3.44
46.13,6.31,2.86,6.31,2.86,-2.87,-2.69,-2.18,3.44,3.44,3.45
46.60,6.31,2.86,6.31,2.86,-2.86,-2.67,-2.17,3.44,3.44,3.44
47.06,6.31,2.86,6.31,2.87,-2.85,-2.65,-2.16,3.46,3.46,3.44
47.53,6.31,2.86,6.31,2.86,-2.83,-2.64,-2.16,3.47,3.48,3.45
48.01,6.31,2.85,6.28,2.83,-2.81,-2.62,-2.15,3.49,3.47,3.45
48.49,6.25,2.79,6.24,2.79,-2.79,-2.61,-2.15,3.45,3.45,3.46
48.97,6.18,2.72,6.21,2.75,-2.77,-2.59,-2.15,3.40,3.43,3.46
49.46,6.19,2.72,6.18,2.72,-2.75,-2.58,-2.15,3.43,3.43,3.46
49.96,6.20,2.72,6.19,2.72,-2.73,-2.56,-2.16,3.46,3.45,3.47
50.46,6.20,2.72,6.20,2.72,-2.71,-2.55,-2.16,3.48,3.49,3.48
50.96,6.21,2.72,6.20,2.71,-2.69,-2.53,-2.16,3.51,3.51,3.49
51.47,6.19,2.69,6.19,2.70,-2.67,-2.52,-2.17,3.51,3.51,3.49
51.99,6.17,2.67,6.16,2.67,-2.65,-2.50,-2.18,3.51,3.51,3.49
52.51,6.13,2.63,6.13,2.64,-2.63,-2.49,-2.19,3.50,3.50,3.49
53.03,6.10,2.60,6.10,2.60,-2.60,-2.47,-2.20,3.50,3.50,3.49
53.56,6.07,2.57,6.06,2.56,-2.57,-2.46,-2.21,3.50,3.49,3.49
54.10,6.04,2.53,6.03,2.53,-2.54,-2.45,-2.22,3.49,3.49,3.51
54.64,6.01,2.50,6.01,2.51,-2.53,-2.44,-2.23,3.48,3.48,3.51
55.18,6.00,2.49,6.00,2.50,-2.51,-2.42,-2.25,3.48,3.48,3.50
55.74,6.00,2.50,5.99,2.49,-2.51,-2.41,-2.26,3.49,3.48,3.49
56.29,6.00,2.50,5.99,2.50,-2.51,-2.40,-2.27,3.49,3.49,3.49
56.86,6.00,2.50,6.01,2.52,-2.50,-2.39,-2.29,3.49,3.50,3.49
57.42,6.01,2.53,6.01,2.53,-2.50,-2.38,-2.30,3.50,3.51,3.48
58.00,6.02,2.55,5.99,2.52,-2.49,-2.38,-2.32,3.52,3.49,3.47
58.58,5.95,2.49,5.96,2.50,-2.48,-2.37,-2.33,3.46,3.47,3.45
59.16,5.90,2.45,5.92,2.48,-2.47,-2.36,-2.34,3.42,3.45,3.44
59.76,5.90,2.47,5.87,2.45,-2.46,-2.36,-2.36,3.43,3.41,3.43
60.35,5.85,2.45,5.84,2.44,-2.46,-2.35,-2.37,3.40,3.38,3.40
60.96,5.79,2.41,5.81,2.43,-2.46,-2.35,-2.39,3.33,3.35,3.38
61.57,5.79,2.43,5.79,2.44,-2.47,-2.34,-2.40,3.32,3.32,3.35
62.18,5.80,2.48,5.79,2.47,-2.48,-2.34,-2.42,3.32,3.31,3.32
62.80,5.81,2.52,5.80,2.52,-2.50,-2.34,-2.43,3.30,3.30,3.28
63.43,5.80,2.56,5.79,2.55,-2.53,-2.34,-2.44,3.27,3.26,3.24
64.07,5.77,2.57,5.76,2.56,-2.55,-2.34,-2.46,3.21,3.20,3.20
64.71,5.72,2.56,5.73,2.57,-2.58,-2.34,-2.47,3.13,3.15,3.15
65.35,5.70,2.58,5.70,2.59,-2.60,-2.34,-2.49,3.09,3.10,3.11
66.01,5.70,2.62,5.69,2.61,-2.62,-2.34,-2.50,3.08,3.07,3.07
66.67,5.68,2.64,5.67,2.63,-2.62,-2.34,-2.51,3.05,3.05,3.04
67.33,5.65,2.64,5.64,2.64,-2.63,-2.35,-2.53,3.02,3.02,3.01
68.01,5.60,2.63,5.61,2.64,-2.62,-2.35,-2.54,2.97,2.98,2.97
68.69,5.57,2.63,5.56,2.62,-2.62,-2.36,-2.56,2.95,2.94,2.94
69.37,5.51,2.61,5.50,2.60,-2.61,-2.36,-2.57,2.90,2.89,2.90
70.07,5.45,2.57,5.45,2.58,-2.60,-2.37,-2.59,2.85,2.85,2.87
70.77,5.40,2.56,5.42,2.58,-2.58,-2.37,-2.60,2.81,2.84,2.84
71.48,5.39,2.57,5.37,2.56,-2.56,-2.38,-2.62,2.82,2.81,2.82
72.19,5.36,2.58,5.32,2.54,-2.54,-2.39,-2.64,2.83,2.78,2.78
72.91,5.22,2.47,5.27,2.52,-2.50,-2.40,-2.66,2.71,2.77,2.75
73.64,5.21,2.49,5.20,2.49,-2.47,-2.40,-2.68,2.74,2.74,2.71
74.38,5.16,2.48,5.12,2.44,-2.43,-2.41,-2.70,2.73,2.69,2.68
75.12,5.02,2.38,5.03,2.39,-2.38,-2.42,-2.73,2.64,2.65,2.64
75.87,4.90,2.31,4.92,2.33,-2.34,-2.42,-2.75,2.57,2.59,2.60
76.63,4.83,2.27,4.82,2.26,-2.29,-2.43,-2.78,2.53,2.53,2.56
77.40,4.75,2.23,4.73,2.22,-2.24,-2.43,-2.81,2.50,2.49,2.51
78.17,4.66,2.18,4.67,2.20,-2.20,-2.43,-2.84,2.45,2.47,2.47
78.95,4.58,2.15,4.61,2.18,-2.16,-2.43,-2.88,2.41,2.44,2.42
79.74,4.58,2.20,4.53,2.15,-2.13,-2.43,-2.91,2.46,2.40,2.38
80.54,4.45,2.11,4.44,2.10,-2.10,-2.43,-2.95,2.35,2.34,2.33
81.35,4.32,2.02,4.36,2.07,-2.06,-2.42,-2.99,2.25,2.29,2.29
82.16,4.28,2.02,4.29,2.04,-2.04,-2.40,-3.03,2.24,2.25,2.25
82.98,4.28,2.06,4.24,2.03,-2.01,-2.39,-3.08,2.26,2.23,2.21
83.81,4.21,2.04,4.18,2.01,-2.00,-2.37,-3.12,2.21,2.18,2.17
84.65,4.10,1.96,4.12,1.99,-2.00,-2.35,-3.17,2.10,2.13,2.14
85.50,4.06,1.96,4.07,1.98,-2.01,-2.34,-3.23,2.05,2.06,2.09
86.35,4.08,2.03,4.07,2.02,-2.03,-2.33,-3.28,2.04,2.03,2.05
87.22,4.10,2.09,4.09,2.09,-2.09,-2.34,-3.34,2.01,2.00,2.00
88.09,4.15,2.19,4.13,2.17,-2.17,-2.37,-3.40,1.98,1.97,1.96
88.97,4.16,2.23,4.17,2.25,-2.27,-2.43,-3.46,1.88,1.89,1.92
89.86,4.26,2.38,4.23,2.35,-2.40,-2.51,-3.53,1.85,1.83,1.88
90.76,4.30,2.46,4.34,2.50,-2.54,-2.62,-3.59,1.76,1.80,1.83
91.66,4.49,2.69,4.49,2.70,-2.68,-2.75,-3.66,1.80,1.81,1.79
92.58,4.67,2.91,4.65,2.89,-2.83,-2.90,-3.74,1.84,1.81,1.76
93.51,4.79,3.08,4.78,3.06,-2.98,-3.07,-3.81,1.81,1.79,1.71
94.44,4.87,3.19,4.85,3.17,-3.14,-3.24,-3.89,1.72,1.71,1.67
95.39,4.89,3.25,4.92,3.28,-3.31,-3.42,-3.97,1.58,1.61,1.64
96.34,4.99,3.39,5.01,3.41,-3.48,-3.59,-4.05,1.51,1.53,1.60
97.30,5.17,3.61,5.13,3.57,-3.64,-3.76,-4.14,1.53,1.49,1.56
98.28,5.27,3.77,5.29,3.78,-3.80,-3.93,-4.22,1.48,1.49,1.51
99.26,5.43,3.95,5.45,3.98,-3.96,-4.10,-4.31,1.47,1.49,1.47
100.25,5.62,4.18,5.59,4.16,-4.11,-4.25,-4.40,1.50,1.48,1.43
101.25,5.73,4.33,5.71,4.32,-4.27,-4.40,-4.49,1.46,1.45,1.39
102.27,5.78,4.43,5.78,4.44,-4.41,-4.53,-4.58,1.37,1.38,1.34
103.29,5.84,4.54,5.82,4.52,-4.54,-4.65,-4.67,1.29,1.28,1.29
104.32,5.86,4.61,5.89,4.65,-4.66,-4.75,-4.76,1.20,1.24,1.24
105.37,5.94,4.73,5.95,4.75,-4.77,-4.84,-4.85,1.17,1.18,1.21
106.42,6.09,4.93,5.98,4.83,-4.86,-4.91,-4.94,1.22,1.12,1.16
107.48,5.98,4.87,6.04,4.94,-4.95,-4.96,-5.03,1.03,1.09,1.11
108.56,6.05,4.99,6.11,5.06,-5.03,-5.01,-5.12,1.01,1.08,1.06
109.64,6.23,5.22,6.16,5.15,-5.11,-5.05,-5.20,1.11,1.04,1.01
110.74,6.25,5.28,6.18,5.21,-5.19,-5.08,-5.28,1.06,0.99,0.97
111.85,6.14,5.21,6.20,5.27,-5.26,-5.11,-5.36,0.87,0.93,0.93
112.97,6.11,5.21,6.18,5.29,-5.33,-5.13,-5.43,0.77,0.85,0.89
114.10,6.31,5.46,6.21,5.36,-5.40,-5.16,-5.50,0.91,0.81,0.85
115.24,6.24,5.41,6.27,5.45,-5.47,-5.19,-5.56,0.77,0.81,0.82
116.39,6.31,5.52,6.31,5.52,-5.52,-5.22,-5.62,0.79,0.79,0.79
117.55,6.34,5.57,6.33,5.56,-5.56,-5.24,-5.66,0.78,0.77,0.77
118.73,6.35,5.60,6.37,5.63,-5.59,-5.27,-5.70,0.76,0.78,0.74
119.92,6.41,5.68,6.37,5.65,-5.60,-5.30,-5.73,0.80,0.77,0.72
121.12,6.35,5.64,6.34,5.63,-5.60,-5.33,-5.75,0.74,0.73,0.71
122.33,6.27,5.57,6.28,5.58,-5.58,-5.35,-5.77,0.69,0.70,0.69
123.55,6.19,5.51,6.21,5.53,-5.54,-5.38,-5.77,0.64,0.67,0.68
124.79,6.15,5.49,6.15,5.49,-5.50,-5.40,-5.76,0.64,0.64,0.66
126.03,6.12,5.47,6.06,5.42,-5.45,-5.42,-5.74,0.66,0.61,0.65
127.29,5.98,5.34,6.00,5.37,-5.39,-5.44,-5.72,0.58,0.61,0.63
128.57,5.89,5.27,5.94,5.33,-5.33,-5.45,-5.68,0.56,0.62,0.62
129.85,5.93,5.32,5.89,5.29,-5.26,-5.46,-5.64,0.66,0.63,0.60
131.15,5.87,5.28,5.83,5.25,-5.20,-5.46,-5.58,0.67,0.64,0.59
132.46,5.73,5.16,5.74,5.17,-5.13,-5.46,-5.52,0.59,0.60,0.57
133.79,5.61,5.05,5.60,5.05,-5.08,-5.45,-5.44,0.53,0.53,0.56
135.12,5.49,4.95,5.51,4.97,-5.02,-5.44,-5.36,0.46,0.48,0.53
136.48,5.44,4.91,5.45,4.93,-4.97,-5.42,-5.28,0.46,0.48,0.52
137.84,5.44,4.93,5.40,4.90,-4.92,-5.39,-5.18,0.51,0.48,0.50
139.22,5.37,4.88,5.38,4.90,-4.88,-5.36,-5.08,0.49,0.50,0.48
140.61,5.33,4.86,5.34,4.87,-4.84,-5.33,-4.98,0.48,0.49,0.46
142.02,5.31,4.86,5.26,4.82,-4.80,-5.29,-4.87,0.50,0.46,0.45
143.44,5.17,4.75,5.19,4.77,-4.77,-5.24,-4.76,0.40,0.42,0.42
144.87,5.10,4.71,5.12,4.73,-4.73,-5.19,-4.64,0.37,0.39,0.39
146.32,5.05,4.68,5.03,4.67,-4.68,-5.13,-4.52,0.37,0.35,0.36
147.78,4.96,4.64,4.94,4.61,-4.61,-5.07,-4.40,0.35,0.32,0.33
149.26,4.81,4.51,4.82,4.53,-4.54,-5.00,-4.28,0.27,0.28,0.29
150.75,4.68,4.43,4.70,4.46,-4.45,-4.93,-4.16,0.22,0.25,0.25
152.26,4.58,4.38,4.58,4.39,-4.35,-4.85,-4.03,0.22,0.22,0.19
153.78,4.47,4.34,4.43,4.30,-4.24,-4.77,-3.91,0.23,0.19,0.14
155.32,4.26,4.18,4.25,4.17,-4.12,-4.68,-3.78,0.14,0.13,0.08
156.88,4.02,3.99,4.04,4.02,-4.00,-4.59,-3.66,0.02,0.04,0.02
158.44,3.84,3.88,3.84,3.88,-3.89,-4.50,-3.54,-0.05,-0.05,-0.04
160.03,3.68,3.77,3.68,3.77,-3.82,-4.41,-3.41,-0.14,-0.14,-0.09
161.63,3.58,3.71,3.55,3.69,-3.77,-4.31,-3.29,-0.20,-0.22,-0.13
163.24,3.47,3.65,3.48,3.66,-3.76,-4.21,-3.17,-0.30,-0.28,-0.18
164.88,3.46,3.67,3.49,3.70,-3.78,-4.11,-3.05,-0.33,-0.30,-0.21
166.53,3.57,3.81,3.56,3.80,-3.83,-4.01,-2.94,-0.27,-0.27,-0.24
168.19,3.68,3.94,3.67,3.93,-3.89,-3.90,-2.82,-0.21,-0.22,-0.26
169.87,3.77,4.03,3.75,4.02,-3.94,-3.80,-2.71,-0.18,-0.19,-0.27
171.57,3.79,4.06,3.78,4.05,-3.97,-3.69,-2.59,-0.19,-0.20,-0.28
173.29,3.75,4.02,3.76,4.03,-3.96,-3.58,-2.48,-0.22,-0.20,-0.27
175.02,3.70,3.95,3.70,3.96,-3.91,-3.47,-2.38,-0.21,-0.21,-0.26
176.77,3.62,3.86,3.61,3.86,-3.81,-3.37,-2.27,-0.20,-0.20,-0.25
178.54,3.49,3.72,3.49,3.71,-3.69,-3.26,-2.16,-0.21,-0.21,-0.23
180.32,3.33,3.54,3.31,3.52,-3.55,-3.15,-2.06,-0.22,-0.24,-0.21
182.13,3.12,3.31,3.11,3.30,-3.39,-3.04,-1.96,-0.28,-0.28,-0.19
183.95,2.93,3.09,2.98,3.15,-3.23,-2.93,-1.86,-0.30,-0.25,-0.16
185.79,2.86,3.01,2.89,3.05,-3.06,-2.82,-1.76,-0.20,-0.17,-0.16
187.65,2.89,3.04,2.81,2.96,-2.90,-2.71,-1.66,-0.02,-0.09,-0.15
189.52,2.72,2.86,2.69,2.84,-2.76,-2.61,-1.56,-0.04,-0.07,-0.14
191.42,2.49,2.63,2.50,2.64,-2.62,-2.50,-1.47,-0.14,-0.12,-0.15
193.33,2.28,2.41,2.30,2.44,-2.50,-2.39,-1.38,-0.23,-0.20,-0.14
195.27,2.16,2.30,2.18,2.32,-2.40,-2.29,-1.29,-0.24,-0.22,-0.14
197.22,2.13,2.28,2.13,2.28,-2.30,-2.18,-1.20,-0.18,-0.17,-0.15
199.19,2.11,2.26,2.07,2.23,-2.22,-2.08,-1.11,-0.12,-0.15,-0.15
201.18,2.03,2.19,1.97,2.14,-2.15,-1.97,-1.02,-0.13,-0.18,-0.16
203.19,1.85,2.02,1.89,2.07,-2.09,-1.87,-0.94,-0.24,-0.19,-0.17
205.23,1.77,1.95,1.85,2.04,-2.02,-1.77,-0.86,-0.26,-0.17,-0.18
207.28,1.90,2.09,1.82,2.01,-1.96,-1.66,-0.78,-0.07,-0.15,-0.19
209.35,1.82,2.02,1.76,1.96,-1.89,-1.56,-0.70,-0.08,-0.14,-0.20
211.44,1.60,1.82,1.63,1.85,-1.81,-1.46,-0.62,-0.22,-0.18,-0.22
213.56,1.43,1.66,1.45,1.68,-1.73,-1.36,-0.54,-0.30,-0.28,-0.23
215.69,1.32,1.56,1.32,1.57,-1.64,-1.26,-0.46,-0.32,-0.32,-0.25
217.85,1.24,1.49,1.26,1.52,-1.54,-1.16,-0.39,-0.30,-0.28,-0.26
220.03,1.22,1.49,1.19,1.46,-1.43,-1.06,-0.32,-0.21,-0.24,-0.27
222.23,1.12,1.40,1.08,1.36,-1.32,-0.96,-0.25,-0.20,-0.24,-0.28
224.45,0.94,1.22,0.94,1.23,-1.21,-0.86,-0.18,-0.28,-0.28,-0.29
226.70,0.75,1.04,0.80,1.09,-1.11,-0.76,-0.11,-0.37,-0.32,-0.30
228.96,0.68,0.98,0.69,0.99,-1.02,-0.66,-0.05,-0.34,-0.33,-0.30
231.25,0.64,0.93,0.58,0.89,-0.91,-0.57,0.01,-0.27,-0.32,-0.30
233.57,0.50,0.80,0.49,0.79,-0.79,-0.47,0.08,-0.29,-0.30,-0.30
235.90,0.33,0.63,0.37,0.67,-0.67,-0.37,0.13,-0.34,-0.29,-0.30
238.26,0.27,0.56,0.26,0.55,-0.54,-0.27,0.19,-0.28,-0.28,-0.30
240.64,0.17,0.45,0.15,0.44,-0.42,-0.17,0.25,-0.25,-0.26,-0.28
243.05,0.05,0.32,0.02,0.30,-0.28,-0.08,0.30,-0.23,-0.26,-0.28
245.48,-0.15,0.12,-0.14,0.13,-0.13,0.02,0.35,-0.28,-0.27,-0.27
247.93,-0.31,-0.05,-0.29,-0.02,0.02,0.12,0.40,-0.29,-0.27,-0.27
250.41,-0.43,-0.17,-0.45,-0.19,0.18,0.22,0.45,-0.26,-0.27,-0.26
252.92,-0.57,-0.32,-0.60,-0.34,0.33,0.31,0.49,-0.24,-0.27,-0.26
255.45,-0.78,-0.52,-0.77,-0.51,0.48,0.41,0.54,-0.30,-0.28,-0.26
258.00,-0.93,-0.67,-0.92,-0.66,0.64,0.51,0.58,-0.30,-0.29,-0.27
260.58,-1.06,-0.79,-1.04,-0.77,0.79,0.61,0.62,-0.28,-0.26,-0.27
263.19,-1.14,-0.87,-1.17,-0.90,0.93,0.71,0.66,-0.22,-0.24,-0.27
265.82,-1.28,-1.01,-1.32,-1.04,1.07,0.81,0.69,-0.22,-0.25,-0.28
268.48,-1.52,-1.24,-1.48,-1.20,1.20,0.91,0.73,-0.33,-0.28,-0.28
271.16,-1.63,-1.35,-1.63,-1.34,1.32,1.00,0.76,-0.32,-0.31,-0.28
273.87,-1.73,-1.45,-1.76,-1.47,1.43,1.10,0.80,-0.31,-0.33,-0.29
276.61,-1.84,-1.55,-1.86,-1.57,1.54,1.20,0.83,-0.31,-0.33,-0.29
279.38,-1.98,-1.69,-1.95,-1.66,1.66,1.30,0.86,-0.33,-0.30,-0.29
282.17,-2.05,-1.77,-2.03,-1.74,1.78,1.40,0.89,-0.28,-0.25,-0.29
284.99,-2.05,-1.77,-2.09,-1.81,1.88,1.50,0.92,-0.17,-0.21,-0.28
287.84,-2.17,-1.89,-2.20,-1.92,1.98,1.60,0.95,-0.20,-0.22,-0.28
290.72,-2.33,-2.06,-2.35,-2.08,2.06,1.70,0.98,-0.27,-0.29,-0.28
293.63,-2.54,-2.28,-2.51,-2.24,2.15,1.80,1.01,-0.40,-0.36,-0.27
296.57,-2.63,-2.37,-2.60,-2.34,2.24,1.90,1.04,-0.40,-0.37,-0.26
299.53,-2.61,-2.35,-2.60,-2.34,2.32,2.00,1.07,-0.29,-0.28,-0.26
302.53,-2.56,-2.31,-2.58,-2.32,2.40,2.10,1.10,-0.17,-0.18,-0.26
305.55,-2.55,-2.30,-2.65,-2.39,2.47,2.19,1.13,-0.09,-0.18,-0.26
308.61,-2.78,-2.52,-2.75,-2.49,2.52,2.29,1.16,-0.26,-0.23,-0.26
311.69,-2.95,-2.69,-2.87,-2.60,2.57,2.38,1.19,-0.38,-0.29,-0.26
314.81,-2.91,-2.64,-2.96,-2.69,2.63,2.48,1.23,-0.28,-0.33,-0.27
317.96,-2.96,-2.69,-2.98,-2.71,2.70,2.57,1.26,-0.26,-0.28,-0.28
321.14,-3.06,-2.78,-3.02,-2.74,2.77,2.66,1.29,-0.29,-0.25,-0.29
324.35,-3.05,-2.77,-3.11,-2.82,2.85,2.75,1.33,-0.21,-0.26,-0.29
327.59,-3.21,-2.91,-3.20,-2.90,2.91,2.83,1.37,-0.31,-0.29,-0.30
330.87,-3.30,-2.99,-3.29,-2.98,2.96,2.91,1.40,-0.34,-0.33,-0.31
334.18,-3.36,-3.04,-3.38,-3.06,3.02,2.99,1.44,-0.35,-0.36,-0.32
337.52,-3.44,-3.11,-3.40,-3.07,3.08,3.07,1.48,-0.37,-0.33,-0.34
340.90,-3.44,-3.11,-3.44,-3.10,3.13,3.14,1.52,-0.32,-0.31,-0.34
344.30,-3.42,-3.08,-3.53,-3.17,3.17,3.21,1.57,-0.25,-0.35,-0.35
347.75,-3.64,-3.27,-3.59,-3.22,3.21,3.28,1.61,-0.44,-0.38,-0.37
351.23,-3.71,-3.33,-3.64,-3.26,3.24,3.34,1.66,-0.48,-0.40,-0.38
354.74,-3.61,-3.22,-3.68,-3.29,3.27,3.39,1.70,-0.35,-0.41,-0.39
358.28,-3.65,-3.25,-3.68,-3.27,3.30,3.44,1.75,-0.35,-0.37,-0.40
361.87,-3.73,-3.32,-3.70,-3.29,3.34,3.49,1.80,-0.40,-0.37,-0.41
365.49,-3.76,-3.33,-3.77,-3.34,3.36,3.53,1.85,-0.40,-0.41,-0.44
369.14,-3.82,-3.38,-3.83,-3.39,3.38,3.56,1.91,-0.45,-0.45,-0.45
372.83,-3.88,-3.43,-3.88,-3.42,3.39,3.59,1.96,-0.49,-0.49,-0.46
376.56,-3.93,-3.47,-3.93,-3.46,3.41,3.61,2.02,-0.53,-0.52,-0.47
380.33,-3.93,-3.46,-3.93,-3.45,3.42,3.63,2.07,-0.52,-0.51,-0.48
384.13,-3.92,-3.43,-3.91,-3.41,3.43,3.64,2.13,-0.49,-0.47,-0.49
387.97,-3.87,-3.37,-3.89,-3.39,3.43,3.65,2.19,-0.44,-0.46,-0.50
391.85,-3.86,-3.35,-3.91,-3.39,3.43,3.65,2.25,-0.43,-0.47,-0.51
395.77,-3.97,-3.45,-3.95,-3.43,3.44,3.64,2.31,-0.54,-0.51,-0.52
399.73,-4.01,-3.48,-4.00,-3.46,3.44,3.63,2.37,-0.57,-0.56,-0.53
403.72,-4.02,-3.48,-4.01,-3.46,3.45,3.61,2.43,-0.58,-0.56,-0.54
407.76,-3.99,-3.43,-4.02,-3.45,3.46,3.59,2.49,-0.53,-0.56,-0.57
411.84,-3.99,-3.42,-4.04,-3.46,3.48,3.56,2.56,-0.52,-0.56,-0.58
415.96,-4.11,-3.53,-4.06,-3.47,3.48,3.53,2.62,-0.63,-0.58,-0.59
420.12,-4.07,-3.49,-4.07,-3.48,3.47,3.50,2.68,-0.60,-0.60,-0.59
424.32,-4.03,-3.44,-4.06,-3.46,3.45,3.46,2.74,-0.59,-0.61,-0.60
428.56,-4.01,-3.42,-4.04,-3.44,3.41,3.41,2.80,-0.60,-0.62,-0.60
432.85,-4.01,-3.43,-4.00,-3.41,3.37,3.37,2.86,-0.64,-0.63,-0.59
437.18,-3.98,-3.41,-3.92,-3.35,3.33,3.32,2.91,-0.65,-0.59,-0.58
441.55,-3.78,-3.23,-3.82,-3.26,3.28,3.26,2.96,-0.50,-0.54,-0.56
445.96,-3.67,-3.13,-3.71,-3.17,3.22,3.21,3.02,-0.45,-0.49,-0.54
450.42,-3.63,-3.12,-3.63,-3.12,3.16,3.15,3.06,-0.47,-0.47,-0.51
454.93,-3.59,-3.12,-3.57,-3.10,3.10,3.09,3.11,-0.50,-0.47,-0.47
459.48,-3.50,-3.07,-3.50,-3.06,3.03,3.03,3.15,-0.48,-0.47,-0.43
464.07,-3.37,-2.97,-3.40,-3.00,2.96,2.97,3.19,-0.41,-0.44,-0.40
468.71,-3.30,-2.94,-3.28,-2.91,2.90,2.90,3.22,-0.41,-0.38,-0.36
473.40,-3.15,-2.83,-3.15,-2.82,2.83,2.84,3.25,-0.32,-0.31,-0.32
478.13,-3.00,-2.72,-3.04,-2.75,2.77,2.77,3.27,-0.23,-0.26,-0.28
482.91,-2.93,-2.68,-2.93,-2.68,2.71,2.71,3.28,-0.22,-0.22,-0.25
487.74,-2.87,-2.65,-2.85,-2.63,2.65,2.64,3.30,-0.22,-0.20,-0.22
492.62,-2.78,-2.58,-2.79,-2.59,2.60,2.58,3.30,-0.19,-0.20,-0.20
497.55,-2.73,-2.55,-2.75,-2.56,2.55,2.51,3.30,-0.18,-0.20,-0.18
502.52,-2.70,-2.53,-2.70,-2.53,2.51,2.44,3.29,-0.19,-0.19,-0.17
507.55,-2.68,-2.51,-2.66,-2.48,2.47,2.38,3.28,-0.21,-0.18,-0.17
