frequency,raw,error,smoothed,error_smoothed,equalization,parametric_eq,fixed_band_eq,equalized_raw,equalized_smoothed,target
20.00,-19.18,-17.12,-19.18,-17.12,6.00,4.84,3.24,-13.18,-13.18,-2.06
20.20,-19.03,-17.06,-19.03,-17.05,6.00,4.89,3.33,-13.03,-13.03,-1.97
20.40,-18.87,-16.98,-18.87,-16.98,6.00,4.93,3.42,-12.87,-12.87,-1.88
20.61,-18.72,-16.91,-18.72,-16.91,6.00,4.98,3.52,-12.72,-12.72,-1.82
20.81,-18.56,-16.83,-18.56,-16.83,6.00,5.03,3.62,-12.56,-12.56,-1.72
21.02,-18.40,-16.75,-18.40,-16.75,6.00,5.07,3.72,-12.40,-12.40,-1.64
21.23,-18.25,-16.66,-18.25,-16.66,6.00,5.12,3.83,-12.25,-12.25,-1.58
21.44,-18.09,-16.56,-18.09,-16.57,6.00,5.17,3.94,-12.09,-12.09,-1.52
21.66,-17.93,-16.47,-17.93,-16.47,6.00,5.21,4.05,-11.93,-11.93,-1.46
21.87,-17.77,-16.36,-17.77,-16.36,6.00,5.26,4.16,-11.77,-11.77,-1.41
22.09,-17.61,-16.25,-17.61,-16.26,6.00,5.30,4.28,-11.61,-11.61,-1.36
22.31,-17.45,-16.14,-17.45,-16.14,6.00,5.35,4.40,-11.45,-11.45,-1.31
22.54,-17.29,-16.03,-17.29,-16.03,6.00,5.39,4.53,-11.29,-11.29,-1.26
22.76,-17.13,-15.91,-17.13,-15.91,6.00,5.44,4.65,-11.13,-11.13,-1.22
22.99,-16.97,-15.79,-16.97,-15.79,6.00,5.48,4.78,-10.97,-10.97,-1.18
23.22,-16.80,-15.66,-16.80,-15.67,6.00,5.52,4.92,-10.80,-10.80,-1.14
23.45,-16.64,-15.55,-16.64,-15.54,6.00,5.56,5.05,-10.64,-10.64,-1.09
23.69,-16.47,-15.42,-16.47,-15.42,6.00,5.61,5.19,-10.47,-10.47,-1.05
23.92,-16.30,-15.29,-16.30,-15.30,6.00,5.65,5.34,-10.30,-10.30,-1.01
24.16,-16.14,-15.18,-16.14,-15.17,6.00,5.69,5.48,-10.14,-10.14,-0.96
24.40,-15.97,-15.05,-15.97,-15.04,6.00,5.73,5.63,-9.97,-9.97,-0.92
24.65,-15.80,-14.91,-15.80,-14.91,6.00,5.76,5.78,-9.80,-9.80,-0.89
24.89,-15.63,-14.78,-15.63,-14.78,6.00,5.80,5.93,-9.63,-9.63,-0.85
25.14,-15.46,-14.65,-15.46,-14.65,6.00,5.84,6.08,-9.46,-9.46,-0.81
25.39,-15.29,-14.52,-15.29,-14.52,6.00,5.87,6.24,-9.29,-9.29,-0.77
25.65,-15.12,-14.39,-15.12,-14.38,6.00,5.91,6.40,-9.12,-9.12,-0.73
25.91,-14.95,-14.25,-14.95,-14.25,6.00,5.94,6.55,-8.95,-8.95,-0.70
26.16,-14.78,-14.11,-14.78,-14.11,6.00,5.97,6.71,-8.78,-8.78,-0.66
26.43,-14.61,-13.98,-14.61,-13.98,6.00,6.00,6.87,-8.61,-8.61,-0.63
26.69,-14.43,-13.83,-14.43,-13.84,6.00,6.03,7.02,-8.43,-8.43,-0.59
26.96,-14.26,-13.71,-14.26,-13.70,6.00,6.06,7.17,-8.26,-8.26,-0.56
27.23,-14.08,-13.56,-14.08,-13.56,6.00,6.08,7.32,-8.08,-8.08,-0.53
27.50,-13.91,-13.42,-13.91,-13.42,6.00,6.11,7.47,-7.91,-7.91,-0.49
27.77,-13.73,-13.27,-13.73,-13.27,6.00,6.13,7.61,-7.73,-7.73,-0.46
28.05,-13.56,-13.14,-13.56,-13.13,6.00,6.15,7.74,-7.56,-7.56,-0.42
28.33,-13.38,-12.98,-13.38,-12.99,6.00,6.17,7.86,-7.38,-7.38,-0.40
28.62,-13.21,-12.85,-13.21,-12.85,6.00,6.19,7.98,-7.21,-7.21,-0.36
28.90,-13.03,-12.71,-13.03,-12.71,6.00,6.21,8.09,-7.03,-7.03,-0.32
29.19,-12.85,-12.56,-12.85,-12.56,6.00,6.22,8.18,-6.85,-6.85,-0.29
29.48,-12.67,-12.43,-12.67,-12.42,6.00,6.24,8.26,-6.67,-6.67,-0.24
29.78,-12.49,-12.27,-12.49,-12.27,6.00,6.25,8.33,-6.49,-6.49,-0.22
30.08,-12.32,-12.14,-12.32,-12.13,6.00,6.26,8.38,-6.32,-6.32,-0.19
30.38,-12.14,-11.99,-12.14,-11.99,6.00,6.26,8.41,-6.14,-6.14,-0.16
30.68,-11.96,-11.84,-11.96,-11.84,6.00,6.27,8.43,-5.96,-5.96,-0.12
30.99,-11.78,-11.68,-11.78,-11.69,6.00,6.27,8.43,-5.78,-5.78,-0.10
31.30,-11.60,-11.54,-11.60,-11.54,6.00,6.27,8.41,-5.60,-5.60,-0.06
31.61,-11.41,-11.38,-11.41,-11.38,6.00,6.27,8.38,-5.41,-5.41,-0.03
31.93,-11.23,-11.23,-11.23,-11.23,6.00,6.26,8.32,-5.23,-5.23,-0.00
32.24,-11.06,-11.07,-11.06,-11.08,6.00,6.25,8.25,-5.06,-5.06,0.02
32.57,-10.88,-10.93,-10.88,-10.93,6.00,6.25,8.17,-4.88,-4.88,0.05
32.89,-10.71,-10.79,-10.71,-10.78,6.00,6.23,8.06,-4.71,-4.71,0.08
33.22,-10.53,-10.63,-10.53,-10.63,6.00,6.22,7.94,-4.53,-4.53,0.10
33.55,-10.36,-10.48,-10.36,-10.48,6.00,6.20,7.81,-4.36,-4.36,0.12
33.89,-10.19,-10.33,-10.19,-10.33,6.00,6.19,7.66,-4.19,-4.19,0.14
34.23,-10.01,-10.18,-10.01,-10.17,6.00,6.17,7.51,-4.01,-4.01,0.17
34.57,-9.83,-10.01,-9.83,-10.01,6.00,6.14,7.34,-3.83,-3.83,0.19
34.92,-9.64,-9.84,-9.65,-9.85,6.00,6.12,7.17,-3.64,-3.65,0.19
35.27,-9.47,-9.69,-9.47,-9.68,6.00,6.10,6.98,-3.47,-3.47,0.22
35.62,-9.29,-9.52,-9.29,-9.52,6.00,6.07,6.79,-3.29,-3.29,0.23
35.97,-9.11,-9.35,-9.11,-9.36,6.00,6.04,6.60,-3.11,-3.11,0.24
36.33,-8.94,-9.19,-8.94,-9.19,6.00,6.01,6.40,-2.94,-2.94,0.26
36.70,-8.76,-9.02,-8.76,-9.02,6.00,5.98,6.20,-2.76,-2.76,0.26
37.06,-8.59,-8.86,-8.59,-8.86,6.00,5.95,6.00,-2.59,-2.59,0.27
37.43,-8.41,-8.70,-8.41,-8.69,6.00,5.92,5.79,-2.41,-2.41,0.29
37.81,-8.23,-8.53,-8.23,-8.53,6.00,5.89,5.58,-2.23,-2.23,0.30
38.19,-8.05,-8.35,-8.05,-8.36,6.00,5.86,5.38,-2.05,-2.05,0.30
38.57,-7.88,-8.19,-7.88,-8.19,6.00,5.83,5.17,-1.88,-1.88,0.31
38.95,-7.71,-8.01,-7.70,-8.01,6.00,5.80,4.96,-1.71,-1.70,0.31
39.34,-7.53,-7.83,-7.53,-7.84,6.00,5.78,4.75,-1.53,-1.53,0.31
39.74,-7.36,-7.67,-7.36,-7.66,6.00,5.76,4.55,-1.36,-1.36,0.31
40.14,-7.18,-7.49,-7.18,-7.49,6.00,5.73,4.34,-1.18,-1.18,0.31
40.54,-7.00,-7.31,-7.00,-7.31,6.00,5.71,4.14,-1.00,-1.00,0.31
40.94,-6.83,-7.14,-6.82,-7.13,6.01,5.70,3.94,-0.82,-0.81,0.31
41.35,-6.64,-6.95,-6.64,-6.95,6.03,5.68,3.74,-0.61,-0.61,0.31
41.76,-6.46,-6.77,-6.46,-6.77,6.04,5.67,3.54,-0.42,-0.42,0.31
42.18,-6.28,-6.60,-6.28,-6.60,6.03,5.65,3.34,-0.24,-0.24,0.32
42.60,-6.10,-6.41,-6.10,-6.42,6.01,5.63,3.15,-0.09,-0.09,0.32
43.03,-5.92,-6.24,-5.92,-6.24,5.96,5.61,2.95,0.04,0.05,0.32
43.46,-5.73,-6.05,-5.73,-6.04,5.89,5.58,2.76,0.16,0.16,0.32
43.90,-5.54,-5.84,-5.54,-5.85,5.78,5.54,2.57,0.24,0.24,0.30
44.33,-5.35,-5.65,-5.35,-5.65,5.64,5.48,2.38,0.30,0.29,0.30
44.78,-5.16,-5.45,-5.16,-5.45,5.48,5.40,2.19,0.32,0.32,0.29
45.23,-4.97,-5.26,-4.97,-5.26,5.29,5.30,2.01,0.32,0.32,0.29
45.68,-4.78,-5.06,-4.78,-5.06,5.09,5.17,1.83,0.31,0.31,0.28
46.13,-4.58,-4.86,-4.58,-4.86,4.88,5.03,1.64,0.30,0.30,0.28
46.60,-4.37,-4.65,-4.37,-4.65,4.66,4.86,1.46,0.29,0.29,0.28
47.06,-4.16,-4.44,-4.16,-4.45,4.45,4.67,1.28,0.29,0.28,0.29
47.53,-3.96,-4.24,-3.96,-4.25,4.24,4.47,1.10,0.28,0.28,0.28
48.01,-3.76,-4.05,-3.75,-4.04,4.03,4.25,0.93,0.27,0.28,0.29
48.49,-3.54,-3.82,-3.54,-3.82,3.81,4.03,0.75,0.27,0.27,0.28
48.97,-3.32,-3.59,-3.32,-3.59,3.60,3.80,0.58,0.28,0.27,0.27
49.46,-3.11,-3.37,-3.11,-3.37,3.38,3.56,0.41,0.27,0.28,0.26
49.96,-2.89,-3.15,-2.89,-3.16,3.16,3.33,0.24,0.27,0.27,0.26
50.46,-2.67,-2.95,-2.67,-2.94,2.94,3.09,0.07,0.27,0.27,0.28
50.96,-2.45,-2.73,-2.44,-2.72,2.72,2.85,-0.09,0.27,0.27,0.28
51.47,-2.21,-2.48,-2.21,-2.49,2.49,2.61,-0.26,0.28,0.28,0.27
51.99,-1.98,-2.26,-1.98,-2.26,2.26,2.37,-0.42,0.28,0.28,0.28
52.51,-1.74,-2.04,-1.74,-2.03,2.03,2.14,-0.58,0.29,0.29,0.29
53.03,-1.50,-1.80,-1.50,-1.80,1.79,1.90,-0.73,0.29,0.29,0.31
53.56,-1.25,-1.56,-1.25,-1.56,1.55,1.66,-0.88,0.30,0.30,0.31
54.10,-0.99,-1.30,-0.99,-1.30,1.30,1.42,-1.03,0.31,0.31,0.31
54.64,-0.73,-1.05,-0.73,-1.04,1.05,1.18,-1.18,0.32,0.32,0.32
55.18,-0.47,-0.78,-0.47,-0.79,0.79,0.94,-1.32,0.33,0.32,0.32
55.74,-0.22,-0.54,-0.22,-0.53,0.54,0.70,-1.46,0.31,0.32,0.32
56.29,0.04,-0.27,0.04,-0.28,0.27,0.46,-1.59,0.32,0.31,0.31
56.86,0.29,-0.02,0.30,-0.01,0.01,0.21,-1.72,0.30,0.31,0.31
57.42,0.56,0.26,0.56,0.25,-0.25,-0.03,-1.84,0.31,0.30,0.30
58.00,0.82,0.52,0.82,0.52,-0.52,-0.28,-1.95,0.30,0.30,0.30
58.58,1.08,0.78,1.08,0.79,-0.79,-0.53,-2.06,0.29,0.29,0.30
59.16,1.35,1.06,1.35,1.06,-1.06,-0.78,-2.17,0.29,0.29,0.29
59.76,1.62,1.33,1.62,1.33,-1.34,-1.03,-2.26,0.28,0.28,0.29
60.35,1.89,1.62,1.89,1.61,-1.62,-1.28,-2.35,0.27,0.27,0.27
60.96,2.15,1.89,2.15,1.90,-1.90,-1.53,-2.43,0.25,0.25,0.26
61.57,2.41,2.17,2.41,2.18,-2.17,-1.78,-2.51,0.23,0.24,0.24
62.18,2.67,2.46,2.67,2.45,-2.45,-2.04,-2.58,0.22,0.22,0.21
62.80,2.92,2.72,2.92,2.73,-2.72,-2.29,-2.64,0.20,0.20,0.20
63.43,3.17,2.99,3.17,2.99,-2.98,-2.54,-2.69,0.19,0.19,0.18
64.07,3.41,3.24,3.41,3.24,-3.24,-2.80,-2.74,0.17,0.17,0.17
64.71,3.65,3.49,3.65,3.49,-3.49,-3.04,-2.78,0.16,0.16,0.16
65.35,3.88,3.73,3.88,3.72,-3.73,-3.29,-2.81,0.15,0.15,0.15
66.01,4.10,3.95,4.10,3.96,-3.96,-3.53,-2.84,0.14,0.14,0.15
66.67,4.31,4.17,4.31,4.17,-4.17,-3.77,-2.86,0.14,0.14,0.14
67.33,4.52,4.38,4.52,4.38,-4.38,-4.01,-2.87,0.15,0.14,0.14
68.01,4.71,4.57,4.71,4.57,-4.57,-4.23,-2.88,0.14,0.14,0.14
68.69,4.89,4.75,4.89,4.75,-4.75,-4.45,-2.88,0.14,0.14,0.14
69.37,5.05,4.92,5.05,4.92,-4.91,-4.67,-2.88,0.14,0.14,0.14
70.07,5.20,5.07,5.20,5.07,-5.07,-4.87,-2.88,0.13,0.14,0.13
70.77,5.34,5.20,5.34,5.20,-5.21,-5.06,-2.87,0.13,0.13,0.14
71.48,5.47,5.33,5.47,5.33,-5.34,-5.24,-2.86,0.13,0.13,0.14
72.19,5.58,5.45,5.59,5.45,-5.45,-5.40,-2.85,0.13,0.13,0.13
72.91,5.69,5.56,5.68,5.56,-5.55,-5.55,-2.83,0.14,0.13,0.13
73.64,5.77,5.66,5.77,5.65,-5.65,-5.69,-2.82,0.13,0.13,0.12
74.38,5.84,5.72,5.85,5.73,-5.73,-5.81,-2.80,0.12,0.12,0.12
75.12,5.91,5.80,5.91,5.79,-5.79,-5.91,-2.78,0.12,0.12,0.11
75.87,5.96,5.84,5.96,5.84,-5.85,-6.00,-2.76,0.11,0.11,0.12
76.63,6.00,5.89,6.00,5.89,-5.89,-6.07,-2.74,0.11,0.11,0.11
77.40,6.02,5.91,6.02,5.92,-5.92,-6.12,-2.72,0.10,0.11,0.11
78.17,6.04,5.94,6.05,5.94,-5.93,-6.15,-2.71,0.11,0.11,0.10
78.95,6.06,5.95,6.06,5.94,-5.94,-6.17,-2.69,0.12,0.12,0.12
79.74,6.06,5.93,6.06,5.93,-5.93,-6.17,-2.67,0.13,0.13,0.13
80.54,6.04,5.90,6.04,5.91,-5.91,-6.16,-2.66,0.13,0.14,0.14
81.35,6.02,5.88,6.02,5.87,-5.87,-6.13,-2.64,0.15,0.14,0.14
82.16,5.98,5.83,5.99,5.83,-5.83,-6.09,-2.63,0.15,0.16,0.15
82.98,5.95,5.77,5.95,5.77,-5.77,-6.04,-2.62,0.18,0.17,0.18
83.81,5.90,5.71,5.90,5.71,-5.71,-5.97,-2.61,0.19,0.19,0.19
84.65,5.84,5.64,5.84,5.64,-5.64,-5.90,-2.60,0.21,0.21,0.20
85.50,5.78,5.55,5.78,5.55,-5.55,-5.82,-2.60,0.23,0.23,0.23
86.35,5.71,5.46,5.71,5.47,-5.46,-5.73,-2.60,0.25,0.25,0.25
87.22,5.64,5.38,5.63,5.37,-5.37,-5.63,-2.60,0.27,0.27,0.26
88.09,5.54,5.27,5.54,5.27,-5.26,-5.53,-2.60,0.28,0.28,0.27
88.97,5.44,5.15,5.45,5.16,-5.16,-5.42,-2.60,0.29,0.29,0.29
89.86,5.35,5.05,5.34,5.04,-5.04,-5.31,-2.61,0.31,0.30,0.30
90.76,5.23,4.94,5.23,4.93,-4.93,-5.20,-2.62,0.30,0.30,0.29
91.66,5.11,4.80,5.12,4.82,-4.82,-5.08,-2.63,0.29,0.29,0.31
92.58,5.00,4.71,5.00,4.71,-4.71,-4.97,-2.64,0.29,0.29,0.29
93.51,4.89,4.60,4.89,4.60,-4.61,-4.85,-2.65,0.28,0.28,0.29
94.44,4.78,4.50,4.78,4.50,-4.50,-4.73,-2.67,0.28,0.28,0.28
95.39,4.66,4.39,4.67,4.40,-4.40,-4.61,-2.69,0.27,0.27,0.27
96.34,4.55,4.31,4.54,4.31,-4.29,-4.49,-2.71,0.26,0.25,0.24
97.30,4.42,4.21,4.42,4.21,-4.19,-4.38,-2.73,0.23,0.23,0.21
98.28,4.28,4.10,4.29,4.10,-4.10,-4.26,-2.76,0.18,0.19,0.18
99.26,4.15,4.00,4.15,4.00,-4.01,-4.14,-2.78,0.14,0.14,0.15
100.25,4.02,3.91,4.01,3.90,-3.93,-4.03,-2.81,0.09,0.09,0.11
101.25,3.89,3.82,3.89,3.82,-3.85,-3.92,-2.84,0.04,0.05,0.07
102.27,3.77,3.73,3.79,3.75,-3.77,-3.81,-2.87,0.01,0.03,0.04
103.29,3.71,3.72,3.70,3.70,-3.69,-3.70,-2.90,0.03,0.02,-0.00
104.32,3.62,3.65,3.60,3.64,-3.61,-3.60,-2.93,0.01,-0.00,-0.03
105.37,3.48,3.55,3.48,3.56,-3.52,-3.49,-2.96,-0.04,-0.04,-0.07
106.42,3.34,3.44,3.35,3.45,-3.44,-3.39,-2.99,-0.10,-0.10,-0.10
107.48,3.20,3.34,3.20,3.35,-3.35,-3.29,-3.02,-0.15,-0.15,-0.14
108.56,3.07,3.25,3.07,3.25,-3.26,-3.19,-3.05,-0.19,-0.19,-0.18
109.64,2.94,3.16,2.95,3.16,-3.17,-3.10,-3.08,-0.23,-0.22,-0.22
110.74,2.83,3.08,2.83,3.07,-3.08,-3.01,-3.11,-0.25,-0.25,-0.25
111.85,2.71,2.98,2.71,2.99,-3.00,-2.92,-3.13,-0.29,-0.29,-0.27
112.97,2.59,2.91,2.59,2.90,-2.92,-2.83,-3.16,-0.33,-0.33,-0.32
114.10,2.49,2.83,2.50,2.84,-2.85,-2.74,-3.18,-0.36,-0.35,-0.34
115.24,2.41,2.78,2.42,2.78,-2.78,-2.66,-3.20,-0.37,-0.36,-0.36
116.39,2.36,2.74,2.35,2.73,-2.71,-2.58,-3.21,-0.35,-0.36,-0.38
117.55,2.27,2.68,2.26,2.67,-2.64,-2.50,-3.23,-0.37,-0.38,-0.41
118.73,2.16,2.59,2.16,2.58,-2.58,-2.42,-3.24,-0.42,-0.42,-0.43
119.92,2.05,2.49,2.06,2.50,-2.51,-2.35,-3.25,-0.46,-0.45,-0.43
121.12,1.96,2.41,1.97,2.43,-2.44,-2.28,-3.25,-0.48,-0.46,-0.45
122.33,1.91,2.38,1.90,2.36,-2.37,-2.21,-3.25,-0.46,-0.47,-0.47
123.55,1.83,2.30,1.82,2.30,-2.29,-2.14,-3.24,-0.46,-0.47,-0.47
124.79,1.73,2.22,1.74,2.23,-2.22,-2.07,-3.23,-0.49,-0.48,-0.49
126.03,1.64,2.14,1.65,2.15,-2.15,-2.01,-3.22,-0.51,-0.50,-0.50
127.29,1.58,2.09,1.57,2.09,-2.09,-1.94,-3.20,-0.51,-0.51,-0.51
128.57,1.50,2.03,1.49,2.02,-2.02,-1.88,-3.18,-0.52,-0.53,-0.53
129.85,1.41,1.96,1.41,1.96,-1.95,-1.82,-3.15,-0.54,-0.54,-0.55
131.15,1.31,1.87,1.33,1.89,-1.89,-1.77,-3.12,-0.58,-0.56,-0.56
132.46,1.27,1.84,1.25,1.82,-1.82,-1.71,-3.08,-0.55,-0.57,-0.57
133.79,1.19,1.76,1.19,1.77,-1.76,-1.66,-3.04,-0.57,-0.58,-0.57
135.12,1.10,1.71,1.11,1.70,-1.71,-1.60,-3.00,-0.61,-0.60,-0.60
136.48,1.04,1.65,1.03,1.64,-1.65,-1.55,-2.95,-0.61,-0.62,-0.61
137.84,0.95,1.58,0.96,1.60,-1.60,-1.50,-2.90,-0.65,-0.63,-0.63
139.22,0.90,1.56,0.90,1.55,-1.55,-1.45,-2.85,-0.65,-0.65,-0.66
140.61,0.85,1.53,0.84,1.51,-1.50,-1.41,-2.80,-0.65,-0.67,-0.67
142.02,0.76,1.44,0.78,1.46,-1.46,-1.36,-2.74,-0.70,-0.68,-0.68
143.44,0.72,1.42,0.71,1.42,-1.42,-1.32,-2.69,-0.69,-0.70,-0.70
144.87,0.65,1.38,0.65,1.38,-1.38,-1.28,-2.63,-0.73,-0.73,-0.73
146.32,0.60,1.36,0.60,1.34,-1.35,-1.23,-2.57,-0.74,-0.75,-0.76
147.78,0.53,1.29,0.53,1.30,-1.31,-1.19,-2.50,-0.78,-0.78,-0.76
149.26,0.48,1.27,0.48,1.28,-1.29,-1.16,-2.44,-0.80,-0.80,-0.79
150.75,0.43,1.26,0.43,1.25,-1.26,-1.12,-2.38,-0.83,-0.83,-0.83
152.26,0.39,1.25,0.39,1.24,-1.23,-1.08,-2.32,-0.84,-0.85,-0.86
153.78,0.34,1.22,0.34,1.22,-1.21,-1.05,-2.25,-0.87,-0.87,-0.88
155.32,0.29,1.20,0.29,1.20,-1.19,-1.01,-2.19,-0.90,-0.90,-0.91
156.88,0.23,1.17,0.23,1.17,-1.17,-0.98,-2.13,-0.94,-0.94,-0.94
158.44,0.18,1.15,0.17,1.15,-1.15,-0.95,-2.06,-0.97,-0.98,-0.97
160.03,0.11,1.12,0.12,1.13,-1.14,-0.92,-2.00,-1.03,-1.01,-1.01
161.63,0.08,1.12,0.08,1.12,-1.12,-0.88,-1.94,-1.04,-1.04,-1.04
163.24,0.05,1.12,0.04,1.10,-1.10,-0.86,-1.88,-1.05,-1.07,-1.07
164.88,-0.01,1.08,-0.00,1.09,-1.09,-0.83,-1.82,-1.10,-1.09,-1.09
166.53,-0.05,1.07,-0.05,1.08,-1.08,-0.80,-1.76,-1.13,-1.12,-1.12
168.19,-0.08,1.08,-0.09,1.06,-1.06,-0.77,-1.71,-1.14,-1.15,-1.16
169.87,-0.13,1.05,-0.12,1.06,-1.05,-0.75,-1.65,-1.18,-1.17,-1.18
171.57,-0.16,1.04,-0.16,1.04,-1.04,-0.72,-1.59,-1.20,-1.20,-1.20
173.29,-0.20,1.03,-0.21,1.02,-1.02,-0.70,-1.54,-1.22,-1.23,-1.23
175.02,-0.26,0.99,-0.25,1.00,-1.00,-0.67,-1.49,-1.26,-1.26,-1.25
176.77,-0.30,0.98,-0.30,0.99,-0.99,-0.65,-1.44,-1.29,-1.28,-1.28
178.54,-0.33,0.98,-0.33,0.97,-0.97,-0.63,-1.39,-1.30,-1.31,-1.31
180.32,-0.36,0.97,-0.36,0.96,-0.96,-0.61,-1.34,-1.32,-1.32,-1.32
182.13,-0.39,0.94,-0.39,0.95,-0.95,-0.59,-1.29,-1.34,-1.34,-1.33
183.95,-0.42,0.93,-0.42,0.93,-0.94,-0.56,-1.24,-1.36,-1.36,-1.35
185.79,-0.44,0.93,-0.44,0.93,-0.93,-0.54,-1.19,-1.37,-1.37,-1.37
187.65,-0.45,0.93,-0.45,0.93,-0.92,-0.53,-1.15,-1.37,-1.38,-1.38
189.52,-0.47,0.92,-0.47,0.92,-0.92,-0.51,-1.10,-1.39,-1.39,-1.39
191.42,-0.49,0.92,-0.49,0.91,-0.91,-0.49,-1.06,-1.40,-1.40,-1.41
193.33,-0.52,0.90,-0.52,0.90,-0.91,-0.47,-1.02,-1.43,-1.42,-1.42
195.27,-0.54,0.89,-0.54,0.89,-0.90,-0.45,-0.98,-1.44,-1.44,-1.43
197.22,-0.56,0.88,-0.56,0.89,-0.89,-0.44,-0.94,-1.45,-1.45,-1.44
199.19,-0.58,0.89,-0.58,0.88,-0.88,-0.42,-0.90,-1.46,-1.45,-1.47
201.18,-0.60,0.87,-0.60,0.87,-0.86,-0.41,-0.86,-1.46,-1.46,-1.47
203.19,-0.63,0.85,-0.63,0.85,-0.84,-0.39,-0.83,-1.47,-1.48,-1.48
205.23,-0.67,0.83,-0.67,0.83,-0.82,-0.38,-0.79,-1.49,-1.49,-1.50
207.28,-0.71,0.79,-0.71,0.80,-0.81,-0.36,-0.75,-1.51,-1.51,-1.50
209.35,-0.74,0.78,-0.74,0.78,-0.79,-0.35,-0.72,-1.53,-1.53,-1.52
211.44,-0.77,0.77,-0.77,0.76,-0.77,-0.33,-0.69,-1.54,-1.54,-1.54
213.56,-0.80,0.74,-0.79,0.74,-0.75,-0.32,-0.65,-1.55,-1.55,-1.54
215.69,-0.81,0.73,-0.81,0.73,-0.74,-0.31,-0.62,-1.55,-1.55,-1.54
217.85,-0.82,0.73,-0.82,0.73,-0.73,-0.30,-0.59,-1.55,-1.55,-1.55
220.03,-0.83,0.73,-0.83,0.73,-0.73,-0.28,-0.56,-1.55,-1.56,-1.56
222.23,-0.84,0.73,-0.84,0.73,-0.72,-0.27,-0.53,-1.56,-1.55,-1.57
224.45,-0.85,0.71,-0.85,0.72,-0.71,-0.26,-0.50,-1.56,-1.56,-1.56
226.70,-0.86,0.70,-0.86,0.70,-0.69,-0.25,-0.47,-1.55,-1.56,-1.56
228.96,-0.89,0.68,-0.88,0.68,-0.68,-0.24,-0.44,-1.57,-1.56,-1.57
231.25,-0.91,0.66,-0.91,0.66,-0.66,-0.23,-0.42,-1.57,-1.57,-1.57
233.57,-0.94,0.63,-0.94,0.63,-0.63,-0.22,-0.39,-1.57,-1.58,-1.57
235.90,-0.98,0.60,-0.98,0.61,-0.61,-0.21,-0.36,-1.59,-1.58,-1.58
238.26,-1.01,0.59,-1.01,0.58,-0.58,-0.20,-0.34,-1.59,-1.59,-1.60
240.64,-1.04,0.55,-1.04,0.55,-0.55,-0.19,-0.32,-1.59,-1.60,-1.59
243.05,-1.07,0.53,-1.07,0.52,-0.53,-0.18,-0.29,-1.60,-1.60,-1.60
245.48,-1.10,0.49,-1.10,0.50,-0.51,-0.17,-0.27,-1.60,-1.60,-1.59
247.93,-1.12,0.48,-1.12,0.48,-0.48,-0.16,-0.25,-1.60,-1.60,-1.60
250.41,-1.13,0.47,-1.13,0.46,-0.46,-0.15,-0.22,-1.59,-1.60,-1.60
252.92,-1.15,0.44,-1.15,0.44,-0.44,-0.14,-0.20,-1.59,-1.59,-1.59
255.45,-1.16,0.41,-1.16,0.42,-0.42,-0.13,-0.18,-1.58,-1.58,-1.57
258.00,-1.17,0.39,-1.17,0.40,-0.39,-0.12,-0.16,-1.56,-1.56,-1.56
260.58,-1.18,0.38,-1.18,0.37,-0.37,-0.11,-0.14,-1.54,-1.54,-1.56
263.19,-1.19,0.34,-1.20,0.34,-0.33,-0.10,-0.12,-1.52,-1.53,-1.53
265.82,-1.23,0.30,-1.22,0.30,-0.29,-0.10,-0.10,-1.52,-1.51,-1.53
268.48,-1.25,0.26,-1.25,0.26,-0.25,-0.09,-0.08,-1.50,-1.50,-1.51
271.16,-1.28,0.21,-1.29,0.21,-0.21,-0.08,-0.06,-1.49,-1.50,-1.49
273.87,-1.33,0.15,-1.32,0.15,-0.16,-0.07,-0.04,-1.49,-1.49,-1.48
276.61,-1.36,0.10,-1.36,0.11,-0.11,-0.06,-0.02,-1.47,-1.47,-1.46
279.38,-1.39,0.06,-1.39,0.06,-0.06,-0.05,-0.00,-1.45,-1.45,-1.45
282.17,-1.41,0.04,-1.41,0.03,-0.02,-0.05,0.01,-1.42,-1.43,-1.45
284.99,-1.44,-0.02,-1.44,-0.02,0.03,-0.04,0.03,-1.41,-1.41,-1.42
287.84,-1.48,-0.07,-1.47,-0.06,0.07,-0.03,0.05,-1.41,-1.41,-1.41
290.72,-1.50,-0.10,-1.50,-0.11,0.10,-0.02,0.07,-1.40,-1.40,-1.39
293.63,-1.52,-0.14,-1.52,-0.14,0.12,-0.02,0.09,-1.40,-1.40,-1.38
296.57,-1.52,-0.17,-1.52,-0.16,0.14,-0.01,0.11,-1.38,-1.37,-1.35
299.53,-1.50,-0.16,-1.50,-0.16,0.15,0.00,0.12,-1.34,-1.34,-1.34
302.53,-1.47,-0.15,-1.47,-0.16,0.16,0.01,0.14,-1.31,-1.31,-1.32
305.55,-1.44,-0.15,-1.44,-0.15,0.16,0.02,0.16,-1.28,-1.28,-1.29
308.61,-1.42,-0.15,-1.42,-0.15,0.16,0.02,0.18,-1.26,-1.26,-1.27
311.69,-1.39,-0.15,-1.39,-0.15,0.15,0.03,0.20,-1.24,-1.24,-1.24
314.81,-1.36,-0.16,-1.36,-0.15,0.15,0.04,0.22,-1.21,-1.22,-1.20
317.96,-1.33,-0.14,-1.33,-0.15,0.14,0.05,0.24,-1.19,-1.19,-1.18
321.14,-1.30,-0.14,-1.29,-0.14,0.13,0.06,0.26,-1.17,-1.16,-1.16
324.35,-1.26,-0.12,-1.26,-0.12,0.13,0.06,0.28,-1.13,-1.13,-1.14
327.59,-1.22,-0.11,-1.23,-0.12,0.12,0.07,0.30,-1.10,-1.11,-1.11
330.87,-1.20,-0.12,-1.20,-0.11,0.12,0.08,0.32,-1.08,-1.08,-1.08
334.18,-1.18,-0.12,-1.17,-0.11,0.12,0.09,0.34,-1.06,-1.06,-1.06
337.52,-1.15,-0.12,-1.15,-0.12,0.13,0.10,0.36,-1.02,-1.03,-1.03
340.90,-1.14,-0.13,-1.14,-0.13,0.14,0.11,0.38,-1.00,-1.00,-1.01
344.30,-1.13,-0.15,-1.13,-0.15,0.16,0.12,0.41,-0.97,-0.97,-0.98
347.75,-1.13,-0.17,-1.13,-0.18,0.18,0.13,0.43,-0.95,-0.95,-0.96
351.23,-1.14,-0.21,-1.14,-0.21,0.21,0.14,0.45,-0.93,-0.93,-0.93
354.74,-1.14,-0.24,-1.14,-0.24,0.23,0.15,0.48,-0.91,-0.91,-0.90
358.28,-1.15,-0.27,-1.15,-0.27,0.26,0.16,0.50,-0.89,-0.89,-0.88
361.87,-1.15,-0.30,-1.15,-0.29,0.29,0.17,0.52,-0.86,-0.86,-0.85
365.49,-1.15,-0.32,-1.15,-0.32,0.31,0.18,0.55,-0.84,-0.84,-0.83
369.14,-1.15,-0.33,-1.15,-0.33,0.33,0.19,0.57,-0.82,-0.82,-0.82
372.83,-1.14,-0.34,-1.14,-0.34,0.34,0.20,0.60,-0.80,-0.80,-0.80
376.56,-1.13,-0.35,-1.13,-0.36,0.36,0.21,0.63,-0.77,-0.77,-0.78
380.33,-1.13,-0.38,-1.13,-0.37,0.38,0.22,0.65,-0.75,-0.75,-0.75
384.13,-1.13,-0.39,-1.13,-0.39,0.39,0.24,0.68,-0.74,-0.74,-0.74
387.97,-1.14,-0.41,-1.14,-0.41,0.42,0.25,0.71,-0.72,-0.72,-0.73
391.85,-1.15,-0.43,-1.15,-0.43,0.44,0.26,0.73,-0.71,-0.71,-0.72
395.77,-1.17,-0.47,-1.17,-0.47,0.47,0.28,0.76,-0.69,-0.70,-0.70
399.73,-1.20,-0.51,-1.20,-0.50,0.51,0.29,0.79,-0.69,-0.69,-0.69
403.72,-1.23,-0.55,-1.23,-0.55,0.55,0.31,0.82,-0.68,-0.68,-0.68
407.76,-1.26,-0.59,-1.26,-0.59,0.59,0.32,0.84,-0.67,-0.67,-0.67
411.84,-1.29,-0.64,-1.29,-0.63,0.63,0.34,0.87,-0.66,-0.67,-0.65
415.96,-1.33,-0.67,-1.33,-0.67,0.67,0.36,0.90,-0.66,-0.66,-0.65
420.12,-1.36,-0.70,-1.36,-0.71,0.70,0.37,0.92,-0.65,-0.65,-0.66
424.32,-1.39,-0.73,-1.39,-0.73,0.74,0.39,0.95,-0.65,-0.65,-0.66
428.56,-1.42,-0.76,-1.42,-0.76,0.77,0.41,0.98,-0.65,-0.65,-0.66
432.85,-1.45,-0.79,-1.45,-0.79,0.79,0.43,1.00,-0.66,-0.66,-0.66
437.18,-1.48,-0.82,-1.47,-0.82,0.81,0.45,1.02,-0.67,-0.67,-0.66
441.55,-1.49,-0.83,-1.49,-0.83,0.82,0.47,1.05,-0.67,-0.67,-0.66
445.96,-1.50,-0.84,-1.50,-0.84,0.83,0.49,1.07,-0.67,-0.67,-0.66
450.42,-1.50,-0.83,-1.50,-0.83,0.83,0.51,1.09,-0.67,-0.67,-0.67
