frequency,raw,error,smoothed,error_smoothed,equalization,parametric_eq,fixed_band_eq,equalized_raw,equalized_smoothed,target
20.00,-29.23,-27.89,-29.23,-27.89,6.00,5.70,2.69,-23.23,-23.23,-1.34
20.20,-29.09,-27.76,-29.09,-27.75,6.00,5.73,2.77,-23.09,-23.09,-1.33
20.40,-28.94,-27.62,-28.95,-27.62,6.00,5.76,2.85,-22.94,-22.95,-1.32
20.61,-28.80,-27.48,-28.80,-27.48,6.00,5.78,2.93,-22.80,-22.80,-1.32
20.81,-28.66,-27.34,-28.66,-27.34,6.00,5.81,3.01,-22.66,-22.66,-1.31
21.02,-28.51,-27.20,-28.51,-27.20,6.00,5.84,3.10,-22.51,-22.51,-1.31
21.23,-28.35,-27.05,-28.35,-27.04,6.00,5.86,3.18,-22.35,-22.35,-1.30
21.44,-28.18,-26.87,-28.18,-26.87,6.00,5.88,3.27,-22.18,-22.18,-1.31
21.66,-28.01,-26.71,-28.01,-26.71,6.00,5.91,3.37,-22.01,-22.01,-1.31
21.87,-27.85,-26.54,-27.85,-26.55,6.00,5.93,3.46,-21.85,-21.85,-1.31
22.09,-27.70,-26.40,-27.70,-26.41,6.00,5.95,3.56,-21.70,-21.70,-1.30
22.31,-27.57,-26.27,-27.57,-26.27,6.00,5.97,3.66,-21.57,-21.57,-1.30
22.54,-27.44,-26.14,-27.44,-26.13,6.00,5.99,3.76,-21.44,-21.44,-1.31
22.76,-27.31,-25.99,-27.31,-26.00,6.00,6.01,3.87,-21.31,-21.31,-1.32
22.99,-27.18,-25.86,-27.18,-25.86,6.00,6.02,3.98,-21.18,-21.18,-1.32
23.22,-27.03,-25.71,-27.03,-25.71,6.00,6.04,4.09,-21.03,-21.03,-1.32
23.45,-26.88,-25.55,-26.88,-25.56,6.00,6.05,4.20,-20.88,-20.88,-1.33
23.69,-26.73,-25.40,-26.73,-25.40,6.00,6.07,4.32,-20.73,-20.73,-1.33
23.92,-26.58,-25.25,-26.58,-25.25,6.00,6.08,4.43,-20.58,-20.58,-1.33
24.16,-26.43,-25.10,-26.43,-25.10,6.00,6.09,4.55,-20.43,-20.43,-1.33
24.40,-26.28,-24.95,-26.28,-24.95,6.00,6.11,4.68,-20.28,-20.28,-1.33
24.65,-26.13,-24.80,-26.13,-24.80,6.00,6.12,4.80,-20.13,-20.13,-1.33
24.89,-25.98,-24.65,-25.98,-24.65,6.00,6.12,4.92,-19.98,-19.98,-1.33
25.14,-25.84,-24.51,-25.84,-24.50,6.00,6.13,5.05,-19.84,-19.84,-1.33
25.39,-25.69,-24.35,-25.69,-24.35,6.00,6.14,5.18,-19.69,-19.69,-1.34
25.65,-25.54,-24.20,-25.54,-24.20,6.00,6.15,5.31,-19.54,-19.54,-1.34
25.91,-25.39,-24.05,-25.39,-24.05,6.00,6.15,5.44,-19.39,-19.39,-1.34
26.16,-25.25,-23.91,-25.25,-23.91,6.00,6.16,5.57,-19.25,-19.25,-1.34
26.43,-25.11,-23.77,-25.11,-23.77,6.00,6.16,5.70,-19.11,-19.11,-1.34
26.69,-24.97,-23.63,-24.97,-23.63,6.00,6.16,5.82,-18.97,-18.97,-1.34
26.96,-24.82,-23.48,-24.82,-23.48,6.00,6.16,5.95,-18.82,-18.82,-1.35
27.23,-24.66,-23.32,-24.66,-23.31,6.00,6.17,6.08,-18.66,-18.66,-1.35
27.50,-24.48,-23.14,-24.48,-23.14,6.00,6.17,6.20,-18.48,-18.48,-1.35
27.77,-24.31,-22.96,-24.31,-22.96,6.00,6.17,6.32,-18.31,-18.31,-1.35
28.05,-24.14,-22.79,-24.15,-22.80,6.00,6.16,6.43,-18.14,-18.15,-1.35
28.33,-24.00,-22.65,-24.00,-22.65,6.00,6.16,6.54,-18.00,-18.00,-1.35
28.62,-23.85,-22.50,-23.85,-22.50,6.00,6.16,6.64,-17.85,-17.85,-1.35
28.90,-23.70,-22.36,-23.70,-22.36,6.00,6.15,6.74,-17.70,-17.70,-1.34
29.19,-23.55,-22.21,-23.55,-22.21,6.00,6.15,6.83,-17.55,-17.55,-1.34
29.48,-23.40,-22.06,-23.40,-22.06,6.00,6.14,6.92,-17.40,-17.40,-1.34
29.78,-23.25,-21.92,-23.25,-21.92,6.00,6.14,6.99,-17.25,-17.25,-1.33
30.08,-23.10,-21.77,-23.10,-21.76,6.00,6.13,7.06,-17.10,-17.10,-1.33
30.38,-22.93,-21.60,-22.94,-21.60,6.00,6.12,7.11,-16.93,-16.94,-1.34
30.68,-22.77,-21.43,-22.77,-21.44,6.00,6.12,7.16,-16.77,-16.77,-1.34
30.99,-22.61,-21.27,-22.61,-21.27,6.00,6.11,7.20,-16.61,-16.61,-1.34
31.30,-22.45,-21.11,-22.45,-21.11,6.00,6.10,7.23,-16.45,-16.45,-1.34
31.61,-22.29,-20.95,-22.29,-20.95,6.00,6.09,7.25,-16.29,-16.29,-1.34
31.93,-22.13,-20.79,-22.13,-20.79,6.00,6.08,7.26,-16.13,-16.13,-1.34
32.24,-21.97,-20.62,-21.97,-20.62,6.00,6.07,7.26,-15.97,-15.97,-1.35
32.57,-21.81,-20.46,-21.81,-20.45,6.00,6.06,7.25,-15.81,-15.81,-1.35
32.89,-21.65,-20.29,-21.66,-20.30,6.00,6.05,7.23,-15.65,-15.66,-1.36
33.22,-21.51,-20.14,-21.52,-20.15,6.00,6.04,7.20,-15.51,-15.52,-1.37
33.55,-21.39,-20.02,-21.39,-20.02,6.00,6.02,7.17,-15.39,-15.39,-1.37
33.89,-21.26,-19.88,-21.25,-19.87,6.00,6.01,7.13,-15.26,-15.25,-1.38
34.23,-21.09,-19.71,-21.08,-19.70,6.00,6.00,7.08,-15.09,-15.08,-1.38
34.57,-20.90,-19.52,-20.90,-19.52,6.00,5.99,7.03,-14.90,-14.90,-1.38
34.92,-20.71,-19.33,-20.72,-19.34,6.00,5.97,6.98,-14.71,-14.72,-1.39
35.27,-20.56,-19.18,-20.57,-19.18,6.00,5.96,6.92,-14.56,-14.57,-1.39
35.62,-20.43,-19.04,-20.43,-19.04,6.00,5.95,6.86,-14.43,-14.43,-1.39
35.97,-20.30,-18.91,-20.28,-18.89,6.00,5.94,6.79,-14.30,-14.28,-1.39
36.33,-20.12,-18.72,-20.12,-18.73,6.00,5.92,6.73,-14.12,-14.12,-1.39
36.70,-19.94,-18.55,-19.94,-18.55,6.00,5.91,6.66,-13.94,-13.94,-1.40
37.06,-19.76,-18.36,-19.76,-18.36,6.00,5.90,6.59,-13.76,-13.76,-1.40
37.43,-19.58,-18.18,-19.58,-18.18,6.00,5.89,6.53,-13.58,-13.58,-1.40
37.81,-19.41,-18.02,-19.41,-18.02,6.00,5.88,6.46,-13.41,-13.41,-1.39
38.19,-19.26,-17.87,-19.27,-17.87,6.00,5.86,6.40,-13.26,-13.27,-1.40
38.57,-19.13,-17.73,-19.13,-17.73,6.00,5.85,6.34,-13.13,-13.13,-1.40
38.95,-19.00,-17.61,-18.99,-17.59,6.00,5.84,6.28,-13.00,-12.99,-1.39
39.34,-18.84,-17.44,-18.84,-17.45,6.00,5.83,6.22,-12.84,-12.84,-1.39
39.74,-18.68,-17.28,-18.68,-17.29,6.00,5.82,6.16,-12.68,-12.68,-1.40
40.14,-18.52,-17.12,-18.52,-17.12,6.00,5.81,6.11,-12.52,-12.52,-1.40
40.54,-18.35,-16.95,-18.35,-16.95,6.00,5.80,6.06,-12.35,-12.35,-1.40
40.94,-18.19,-16.78,-18.20,-16.79,6.00,5.79,6.02,-12.19,-12.20,-1.41
41.35,-18.04,-16.63,-18.04,-16.62,6.00,5.79,5.98,-12.04,-12.04,-1.41
41.76,-17.89,-16.46,-17.89,-16.46,6.00,5.78,5.94,-11.89,-11.89,-1.43
42.18,-17.73,-16.30,-17.73,-16.30,6.00,5.77,5.91,-11.73,-11.73,-1.43
42.60,-17.56,-16.13,-17.56,-16.13,6.00,5.77,5.88,-11.56,-11.56,-1.43
43.03,-17.39,-15.95,-17.39,-15.95,6.00,5.76,5.86,-11.39,-11.39,-1.44
43.46,-17.21,-15.77,-17.21,-15.77,6.00,5.76,5.84,-11.21,-11.21,-1.44
43.90,-17.04,-15.59,-17.06,-15.60,6.00,5.75,5.83,-11.04,-11.06,-1.46
44.33,-16.90,-15.44,-16.91,-15.45,6.00,5.75,5.82,-10.90,-10.91,-1.46
44.78,-16.77,-15.31,-16.75,-15.28,6.00,5.75,5.81,-10.77,-10.75,-1.47
45.23,-16.58,-15.11,-16.56,-15.09,6.00,5.75,5.81,-10.58,-10.56,-1.47
45.68,-16.34,-14.87,-16.36,-14.88,6.00,5.75,5.81,-10.34,-10.36,-1.48
46.13,-16.14,-14.67,-16.17,-14.70,6.00,5.75,5.82,-10.14,-10.17,-1.47
46.60,-16.03,-14.55,-16.02,-14.55,6.00,5.76,5.83,-10.03,-10.02,-1.48
47.06,-15.92,-14.45,-15.91,-14.44,6.00,5.76,5.84,-9.92,-9.91,-1.47
47.53,-15.79,-14.32,-15.79,-14.32,6.00,5.76,5.86,-9.79,-9.79,-1.47
48.01,-15.66,-14.20,-15.64,-14.18,6.00,5.77,5.89,-9.66,-9.64,-1.47
48.49,-15.48,-14.02,-15.48,-14.02,6.00,5.78,5.91,-9.48,-9.48,-1.46
48.97,-15.30,-13.84,-15.33,-13.87,6.00,5.78,5.94,-9.30,-9.33,-1.46
49.46,-15.18,-13.72,-15.18,-13.73,6.00,5.79,5.98,-9.18,-9.18,-1.46
49.96,-15.06,-13.62,-15.05,-13.60,6.00,5.80,6.01,-9.06,-9.05,-1.44
50.46,-14.90,-13.46,-14.90,-13.46,6.00,5.82,6.05,-8.90,-8.90,-1.44
50.96,-14.73,-13.30,-14.73,-13.30,6.00,5.83,6.10,-8.73,-8.73,-1.43
51.47,-14.54,-13.11,-14.54,-13.11,6.00,5.84,6.14,-8.54,-8.54,-1.43
51.99,-14.35,-12.93,-14.35,-12.92,6.00,5.86,6.19,-8.35,-8.35,-1.43
52.51,-14.17,-12.75,-14.17,-12.74,6.00,5.87,6.23,-8.17,-8.17,-1.43
53.03,-13.99,-12.57,-14.02,-12.60,6.00,5.89,6.28,-7.99,-8.02,-1.42
53.56,-13.89,-12.47,-13.88,-12.46,6.00,5.90,6.33,-7.89,-7.88,-1.42
54.10,-13.77,-12.36,-13.74,-12.32,6.00,5.92,6.37,-7.77,-7.74,-1.41
54.64,-13.57,-12.16,-13.58,-12.16,6.00,5.94,6.42,-7.57,-7.58,-1.41
55.18,-13.38,-11.97,-13.39,-11.97,6.00,5.96,6.47,-7.38,-7.39,-1.41
55.74,-13.20,-11.78,-13.21,-11.79,6.00,5.98,6.51,-7.20,-7.21,-1.42
56.29,-13.04,-11.61,-13.05,-11.62,6.00,6.00,6.55,-7.04,-7.05,-1.43
56.86,-12.90,-11.47,-12.88,-11.45,6.00,6.02,6.59,-6.90,-6.88,-1.43
57.42,-12.72,-11.28,-12.72,-11.28,6.00,6.04,6.62,-6.72,-6.72,-1.44
58.00,-12.54,-11.09,-12.57,-11.12,6.00,6.06,6.65,-6.54,-6.57,-1.45
58.58,-12.44,-10.98,-12.43,-10.97,6.00,6.08,6.67,-6.44,-6.43,-1.46
59.16,-12.32,-10.84,-12.31,-10.83,6.00,6.10,6.69,-6.32,-6.31,-1.48
59.76,-12.17,-10.68,-12.18,-10.69,6.00,6.12,6.70,-6.17,-6.18,-1.49
60.35,-12.03,-10.51,-12.04,-10.52,6.00,6.13,6.70,-6.03,-6.04,-1.52
60.96,-11.89,-10.35,-11.87,-10.33,6.00,6.15,6.70,-5.89,-5.87,-1.54
61.57,-11.70,-10.14,-11.70,-10.13,6.00,6.17,6.69,-5.70,-5.70,-1.56
62.18,-11.51,-9.91,-11.52,-9.92,6.00,6.18,6.67,-5.51,-5.52,-1.60
62.80,-11.35,-9.71,-11.36,-9.72,6.00,6.19,6.65,-5.35,-5.36,-1.64
63.43,-11.23,-9.55,-11.23,-9.55,6.00,6.20,6.61,-5.23,-5.23,-1.68
64.07,-11.11,-9.39,-11.10,-9.38,6.00,6.20,6.57,-5.11,-5.10,-1.72
64.71,-10.97,-9.20,-10.98,-9.21,6.00,6.21,6.52,-4.97,-4.98,-1.77
65.35,-10.84,-9.03,-10.85,-9.05,6.00,6.21,6.47,-4.84,-4.85,-1.81
66.01,-10.73,-8.89,-10.72,-8.87,6.00,6.21,6.40,-4.73,-4.72,-1.84
66.67,-10.57,-8.69,-10.56,-8.68,6.00,6.20,6.34,-4.57,-4.56,-1.88
67.33,-10.41,-8.50,-10.41,-8.49,6.00,6.19,6.26,-4.41,-4.41,-1.91
68.01,-10.24,-8.29,-10.26,-8.31,6.00,6.18,6.18,-4.24,-4.26,-1.95
68.69,-10.14,-8.16,-10.15,-8.16,6.00,6.16,6.09,-4.14,-4.15,-1.98
69.37,-10.05,-8.04,-10.04,-8.03,6.00,6.14,6.00,-4.05,-4.04,-2.01
70.07,-9.96,-7.91,-9.94,-7.90,6.00,6.11,5.91,-3.96,-3.94,-2.05
70.77,-9.82,-7.74,-9.83,-7.76,6.00,6.08,5.81,-3.82,-3.83,-2.08
71.48,-9.71,-7.61,-9.71,-7.61,6.00,6.05,5.71,-3.71,-3.71,-2.10
72.19,-9.60,-7.47,-9.59,-7.46,6.00,6.01,5.60,-3.60,-3.59,-2.14
72.91,-9.47,-7.30,-9.49,-7.32,6.00,5.96,5.50,-3.47,-3.49,-2.17
73.64,-9.39,-7.19,-9.39,-7.18,6.00,5.92,5.39,-3.39,-3.38,-2.20
74.38,-9.29,-7.05,-9.29,-7.05,6.02,5.86,5.29,-3.28,-3.27,-2.24
75.12,-9.18,-6.90,-9.18,-6.90,6.03,5.81,5.18,-3.15,-3.16,-2.28
75.87,-9.06,-6.74,-9.05,-6.73,6.03,5.75,5.08,-3.03,-3.02,-2.32
76.63,-8.91,-6.55,-8.91,-6.55,6.02,5.69,4.97,-2.89,-2.89,-2.36
77.40,-8.75,-6.34,-8.75,-6.35,5.99,5.62,4.87,-2.76,-2.76,-2.41
78.17,-8.59,-6.14,-8.60,-6.15,5.93,5.55,4.76,-2.66,-2.67,-2.45
78.95,-8.46,-5.97,-8.46,-5.97,5.85,5.48,4.66,-2.61,-2.61,-2.49
79.74,-8.34,-5.81,-8.33,-5.79,5.76,5.40,4.56,-2.58,-2.57,-2.53
80.54,-8.20,-5.62,-8.21,-5.63,5.64,5.33,4.46,-2.56,-2.57,-2.58
81.35,-8.09,-5.47,-8.09,-5.47,5.52,5.25,4.37,-2.57,-2.57,-2.62
82.16,-8.01,-5.34,-7.99,-5.32,5.38,5.17,4.27,-2.63,-2.60,-2.67
82.98,-7.87,-5.16,-7.91,-5.20,5.24,5.08,4.18,-2.63,-2.67,-2.71
83.81,-7.85,-5.10,-7.85,-5.10,5.09,5.00,4.10,-2.76,-2.76,-2.75
84.65,-7.81,-5.03,-7.78,-4.99,4.96,4.91,4.01,-2.85,-2.82,-2.78
85.50,-7.71,-4.88,-7.72,-4.89,4.84,4.82,3.93,-2.87,-2.87,-2.83
86.35,-7.61,-4.74,-7.62,-4.75,4.74,4.74,3.85,-2.87,-2.88,-2.87
87.22,-7.54,-4.63,-7.53,-4.61,4.65,4.65,3.77,-2.89,-2.88,-2.91
88.09,-7.45,-4.49,-7.47,-4.51,4.56,4.56,3.69,-2.89,-2.90,-2.96
88.97,-7.44,-4.45,-7.45,-4.45,4.49,4.47,3.62,-2.95,-2.96,-3.00
89.86,-7.44,-4.40,-7.45,-4.41,4.42,4.39,3.55,-3.02,-3.03,-3.04
90.76,-7.48,-4.39,-7.45,-4.37,4.36,4.30,3.48,-3.12,-3.10,-3.09
91.66,-7.45,-4.33,-7.45,-4.33,4.29,4.21,3.42,-3.16,-3.16,-3.12
92.58,-7.41,-4.25,-7.44,-4.28,4.23,4.12,3.36,-3.18,-3.21,-3.16
93.51,-7.42,-4.21,-7.41,-4.20,4.17,4.04,3.30,-3.25,-3.24,-3.21
94.44,-7.38,-4.14,-7.35,-4.11,4.11,3.95,3.24,-3.27,-3.25,-3.25
95.39,-7.28,-4.00,-7.28,-4.00,4.03,3.87,3.19,-3.25,-3.25,-3.28
96.34,-7.19,-3.87,-7.22,-3.90,3.94,3.79,3.14,-3.25,-3.28,-3.32
97.30,-7.17,-3.81,-7.19,-3.83,3.85,3.70,3.09,-3.33,-3.35,-3.36
98.28,-7.21,-3.80,-7.20,-3.79,3.75,3.62,3.04,-3.46,-3.45,-3.41
99.26,-7.20,-3.75,-7.16,-3.72,3.66,3.54,3.00,-3.54,-3.51,-3.45
100.25,-7.10,-3.61,-7.07,-3.58,3.57,3.46,2.96,-3.53,-3.50,-3.49
101.25,-6.91,-3.38,-6.96,-3.43,3.47,3.39,2.92,-3.44,-3.48,-3.53
102.27,-6.85,-3.28,-6.91,-3.33,3.38,3.31,2.88,-3.47,-3.52,-3.57
103.29,-6.92,-3.30,-6.91,-3.29,3.29,3.24,2.84,-3.63,-3.62,-3.62
104.32,-6.97,-3.30,-6.90,-3.23,3.20,3.16,2.81,-3.77,-3.69,-3.67
105.37,-6.86,-3.15,-6.85,-3.13,3.11,3.09,2.77,-3.75,-3.74,-3.71
106.42,-6.69,-2.93,-6.78,-3.01,3.01,3.02,2.74,-3.68,-3.76,-3.76
107.48,-6.74,-2.93,-6.73,-2.92,2.92,2.95,2.71,-3.82,-3.81,-3.81
108.56,-6.75,-2.89,-6.74,-2.87,2.84,2.88,2.68,-3.91,-3.89,-3.86
109.64,-6.73,-2.82,-6.71,-2.80,2.77,2.82,2.65,-3.96,-3.94,-3.91
110.74,-6.66,-2.71,-6.61,-2.66,2.70,2.75,2.62,-3.96,-3.91,-3.95
111.85,-6.48,-2.49,-6.53,-2.54,2.63,2.69,2.59,-3.85,-3.90,-3.99
112.97,-6.46,-2.43,-6.54,-2.51,2.57,2.63,2.56,-3.89,-3.97,-4.03
114.10,-6.62,-2.55,-6.59,-2.53,2.51,2.57,2.54,-4.11,-4.09,-4.07
115.24,-6.71,-2.62,-6.63,-2.53,2.44,2.51,2.51,-4.27,-4.18,-4.09
116.39,-6.59,-2.46,-6.57,-2.44,2.37,2.45,2.48,-4.22,-4.20,-4.13
117.55,-6.39,-2.24,-6.46,-2.31,2.30,2.39,2.45,-4.09,-4.16,-4.15
118.73,-6.34,-2.16,-6.39,-2.21,2.23,2.34,2.43,-4.11,-4.15,-4.18
119.92,-6.39,-2.20,-6.35,-2.16,2.17,2.28,2.40,-4.22,-4.19,-4.19
121.12,-6.37,-2.16,-6.30,-2.09,2.10,2.23,2.37,-4.27,-4.20,-4.21
122.33,-6.21,-1.98,-6.24,-2.01,2.05,2.18,2.34,-4.17,-4.19,-4.23
123.55,-6.11,-1.87,-6.19,-1.95,2.01,2.13,2.31,-4.11,-4.18,-4.24
124.79,-6.22,-1.96,-6.19,-1.93,1.98,2.08,2.28,-4.24,-4.21,-4.26
126.03,-6.26,-1.99,-6.23,-1.96,1.94,2.03,2.25,-4.32,-4.29,-4.27
127.29,-6.25,-1.96,-6.26,-1.97,1.91,1.98,2.22,-4.35,-4.36,-4.29
128.57,-6.24,-1.94,-6.27,-1.96,1.87,1.94,2.19,-4.37,-4.39,-4.30
129.85,-6.24,-1.93,-6.23,-1.91,1.85,1.89,2.15,-4.39,-4.37,-4.32
131.15,-6.21,-1.88,-6.14,-1.81,1.84,1.85,2.12,-4.37,-4.30,-4.33
132.46,-6.02,-1.67,-6.07,-1.72,1.83,1.80,2.09,-4.19,-4.24,-4.35
133.79,-5.98,-1.62,-6.05,-1.69,1.80,1.76,2.05,-4.18,-4.25,-4.36
135.12,-6.13,-1.75,-6.12,-1.74,1.76,1.72,2.02,-4.37,-4.36,-4.38
136.48,-6.25,-1.86,-6.22,-1.82,1.72,1.68,1.98,-4.53,-4.49,-4.40
137.84,-6.29,-1.88,-6.22,-1.81,1.70,1.64,1.94,-4.59,-4.53,-4.42
139.22,-6.12,-1.69,-6.15,-1.72,1.68,1.60,1.91,-4.45,-4.47,-4.44
140.61,-6.01,-1.56,-6.06,-1.61,1.65,1.57,1.87,-4.36,-4.41,-4.45
142.02,-6.01,-1.54,-6.00,-1.52,1.60,1.53,1.83,-4.41,-4.40,-4.47
143.44,-6.01,-1.51,-6.00,-1.50,1.54,1.49,1.79,-4.47,-4.46,-4.50
144.87,-6.01,-1.48,-6.03,-1.50,1.46,1.46,1.76,-4.55,-4.57,-4.53
146.32,-6.01,-1.46,-6.01,-1.45,1.38,1.42,1.72,-4.63,-4.63,-4.56
147.78,-6.01,-1.42,-5.94,-1.35,1.31,1.39,1.68,-4.70,-4.62,-4.59
149.26,-5.83,-1.20,-5.86,-1.23,1.26,1.36,1.65,-4.57,-4.60,-4.63
150.75,-5.73,-1.06,-5.81,-1.14,1.21,1.33,1.61,-4.53,-4.61,-4.67
152.26,-5.84,-1.11,-5.82,-1.09,1.15,1.30,1.57,-4.69,-4.66,-4.73
153.78,-5.91,-1.13,-5.87,-1.09,1.09,1.27,1.54,-4.82,-4.78,-4.78
155.32,-5.91,-1.07,-5.92,-1.08,1.04,1.24,1.50,-4.87,-4.88,-4.84
156.88,-5.91,-1.02,-5.92,-1.02,0.99,1.21,1.47,-4.92,-4.93,-4.90
158.44,-5.91,-0.95,-5.91,-0.96,0.94,1.18,1.43,-4.97,-4.97,-4.96
160.03,-5.91,-0.90,-5.92,-0.91,0.88,1.15,1.40,-5.03,-5.04,-5.01
161.63,-5.91,-0.86,-5.91,-0.85,0.82,1.12,1.37,-5.09,-5.08,-5.05
163.24,-5.91,-0.81,-5.88,-0.78,0.76,1.10,1.34,-5.15,-5.12,-5.10
164.88,-5.81,-0.68,-5.84,-0.71,0.70,1.07,1.31,-5.11,-5.13,-5.13
166.53,-5.79,-0.63,-5.78,-0.62,0.67,1.05,1.28,-5.12,-5.11,-5.16
168.19,-5.78,-0.60,-5.77,-0.59,0.67,1.02,1.25,-5.11,-5.10,-5.18
169.87,-5.75,-0.56,-5.81,-0.62,0.69,1.00,1.22,-5.06,-5.12,-5.19
171.57,-5.90,-0.71,-5.85,-0.66,0.71,0.97,1.19,-5.19,-5.14,-5.19
173.29,-5.94,-0.75,-5.93,-0.74,0.74,0.95,1.16,-5.20,-5.18,-5.19
175.02,-5.95,-0.77,-6.03,-0.85,0.78,0.93,1.14,-5.18,-5.26,-5.18
176.77,-6.11,-0.95,-6.07,-0.90,0.81,0.91,1.11,-5.31,-5.26,-5.16
178.54,-6.13,-0.98,-6.05,-0.90,0.83,0.88,1.09,-5.31,-5.23,-5.15
180.32,-5.94,-0.82,-5.99,-0.86,0.83,0.86,1.06,-5.11,-5.16,-5.12
182.13,-5.84,-0.73,-5.88,-0.78,0.81,0.84,1.04,-5.03,-5.07,-5.11
183.95,-5.83,-0.75,-5.82,-0.73,0.80,0.82,1.02,-5.04,-5.02,-5.08
185.79,-5.82,-0.74,-5.81,-0.74,0.77,0.80,1.00,-5.05,-5.04,-5.08
187.65,-5.81,-0.74,-5.81,-0.74,0.76,0.79,0.98,-5.05,-5.05,-5.07
189.52,-5.79,-0.73,-5.78,-0.72,0.75,0.77,0.96,-5.04,-5.03,-5.06
191.42,-5.78,-0.72,-5.78,-0.72,0.74,0.75,0.94,-5.04,-5.04,-5.07
193.33,-5.76,-0.70,-5.82,-0.76,0.73,0.73,0.92,-5.03,-5.09,-5.06
195.27,-5.86,-0.80,-5.84,-0.78,0.71,0.72,0.90,-5.15,-5.13,-5.06
197.22,-5.90,-0.83,-5.82,-0.75,0.69,0.70,0.88,-5.22,-5.13,-5.07
199.19,-5.73,-0.66,-5.76,-0.68,0.65,0.68,0.87,-5.08,-5.11,-5.07
201.18,-5.62,-0.54,-5.67,-0.58,0.62,0.67,0.85,-5.00,-5.05,-5.08
203.19,-5.61,-0.52,-5.60,-0.51,0.58,0.66,0.83,-5.03,-5.02,-5.09
205.23,-5.61,-0.51,-5.60,-0.50,0.54,0.64,0.82,-5.07,-5.06,-5.10
207.28,-5.61,-0.50,-5.61,-0.50,0.50,0.63,0.80,-5.11,-5.10,-5.11
209.35,-5.61,-0.49,-5.61,-0.49,0.48,0.61,0.79,-5.13,-5.13,-5.12
211.44,-5.61,-0.47,-5.61,-0.48,0.46,0.60,0.78,-5.15,-5.15,-5.14
213.56,-5.62,-0.47,-5.62,-0.47,0.45,0.59,0.76,-5.17,-5.16,-5.15
215.69,-5.62,-0.45,-5.62,-0.46,0.45,0.58,0.75,-5.17,-5.17,-5.17
217.85,-5.62,-0.45,-5.63,-0.45,0.45,0.57,0.74,-5.17,-5.18,-5.17
220.03,-5.63,-0.44,-5.63,-0.44,0.44,0.56,0.73,-5.19,-5.19,-5.19
222.23,-5.63,-0.43,-5.63,-0.43,0.43,0.55,0.71,-5.20,-5.20,-5.20
224.45,-5.63,-0.42,-5.63,-0.42,0.42,0.54,0.70,-5.21,-5.21,-5.21
226.70,-5.63,-0.42,-5.63,-0.42,0.42,0.53,0.69,-5.21,-5.21,-5.21
228.96,-5.63,-0.41,-5.63,-0.41,0.41,0.52,0.68,-5.22,-5.22,-5.22
231.25,-5.62,-0.40,-5.62,-0.40,0.39,0.52,0.67,-5.23,-5.23,-5.22
233.57,-5.61,-0.39,-5.61,-0.39,0.38,0.51,0.65,-5.24,-5.24,-5.22
235.90,-5.60,-0.38,-5.60,-0.38,0.36,0.51,0.64,-5.24,-5.23,-5.22
238.26,-5.58,-0.37,-5.59,-0.38,0.36,0.50,0.63,-5.22,-5.23,-5.22
240.64,-5.56,-0.36,-5.55,-0.35,0.36,0.50,0.62,-5.20,-5.19,-5.20
243.05,-5.55,-0.35,-5.50,-0.30,0.37,0.50,0.61,-5.18,-5.13,-5.20
245.48,-5.44,-0.25,-5.52,-0.33,0.38,0.49,0.60,-5.06,-5.14,-5.19
247.93,-5.53,-0.35,-5.58,-0.40,0.39,0.49,0.58,-5.14,-5.19,-5.19
250.41,-5.75,-0.57,-5.64,-0.46,0.41,0.49,0.57,-5.34,-5.23,-5.18
252.92,-5.68,-0.51,-5.65,-0.48,0.42,0.50,0.56,-5.26,-5.23,-5.18
255.45,-5.58,-0.40,-5.64,-0.46,0.43,0.50,0.55,-5.15,-5.20,-5.18
258.00,-5.56,-0.38,-5.62,-0.44,0.45,0.50,0.53,-5.11,-5.17,-5.18
260.58,-5.70,-0.51,-5.65,-0.46,0.48,0.51,0.52,-5.22,-5.17,-5.19
263.19,-5.73,-0.54,-5.66,-0.47,0.49,0.51,0.51,-5.24,-5.17,-5.19
265.82,-5.63,-0.43,-5.68,-0.48,0.51,0.52,0.50,-5.12,-5.17,-5.20
268.48,-5.63,-0.43,-5.69,-0.49,0.52,0.53,0.48,-5.11,-5.17,-5.20
271.16,-5.79,-0.59,-5.75,-0.55,0.54,0.54,0.47,-5.25,-5.21,-5.20
273.87,-5.85,-0.64,-5.83,-0.62,0.56,0.55,0.46,-5.29,-5.27,-5.21
276.61,-5.86,-0.65,-5.85,-0.64,0.59,0.57,0.44,-5.27,-5.26,-5.21
279.38,-5.84,-0.63,-5.82,-0.61,0.62,0.58,0.43,-5.22,-5.20,-5.21
282.17,-5.77,-0.57,-5.82,-0.61,0.66,0.60,0.42,-5.11,-5.16,-5.21
284.99,-5.84,-0.64,-5.85,-0.65,0.70,0.62,0.40,-5.14,-5.15,-5.20
287.84,-5.94,-0.74,-5.92,-0.72,0.75,0.63,0.39,-5.19,-5.17,-5.20
290.72,-6.01,-0.82,-6.00,-0.81,0.81,0.66,0.38,-5.21,-5.19,-5.19
293.63,-6.06,-0.87,-6.06,-0.87,0.86,0.68,0.37,-5.20,-5.20,-5.19
296.57,-6.09,-0.91,-6.11,-0.93,0.93,0.70,0.35,-5.16,-5.18,-5.18
299.53,-6.17,-0.99,-6.16,-0.99,0.98,0.73,0.34,-5.19,-5.18,-5.18
302.53,-6.21,-1.04,-6.21,-1.04,1.02,0.75,0.33,-5.19,-5.20,-5.17
305.55,-6.26,-1.08,-6.26,-1.09,1.04,0.78,0.31,-5.22,-5.22,-5.18
308.61,-6.26,-1.08,-6.26,-1.08,1.04,0.81,0.30,-5.22,-5.22,-5.18
311.69,-6.26,-1.08,-6.22,-1.04,1.03,0.83,0.29,-5.23,-5.19,-5.18
314.81,-6.14,-0.95,-6.16,-0.97,1.00,0.86,0.28,-5.14,-5.16,-5.19
317.96,-6.08,-0.89,-6.13,-0.94,0.96,0.88,0.27,-5.12,-5.17,-5.19
321.14,-6.13,-0.92,-6.12,-0.91,0.92,0.90,0.25,-5.21,-5.20,-5.21
324.35,-6.15,-0.94,-6.10,-0.89,0.88,0.92,0.24,-5.27,-5.22,-5.21
327.59,-6.07,-0.85,-6.07,-0.85,0.85,0.94,0.23,-5.22,-5.22,-5.22
330.87,-5.97,-0.74,-6.03,-0.79,0.82,0.95,0.22,-5.15,-5.20,-5.23
334.18,-6.01,-0.77,-6.01,-0.77,0.81,0.96,0.21,-5.20,-5.21,-5.24
337.52,-6.06,-0.81,-6.03,-0.78,0.79,0.96,0.20,-5.27,-5.24,-5.25
340.90,-6.06,-0.81,-6.06,-0.80,0.78,0.96,0.19,-5.28,-5.28,-5.26
344.30,-6.06,-0.79,-6.07,-0.80,0.77,0.95,0.18,-5.29,-5.29,-5.27
347.75,-6.06,-0.77,-6.06,-0.78,0.76,0.93,0.17,-5.30,-5.30,-5.29
351.23,-6.06,-0.76,-6.06,-0.76,0.76,0.91,0.16,-5.31,-5.30,-5.30
354.74,-6.05,-0.74,-6.05,-0.74,0.75,0.88,0.15,-5.30,-5.30,-5.31
358.28,-6.05,-0.73,-6.05,-0.73,0.74,0.84,0.14,-5.31,-5.30,-5.32
361.87,-6.04,-0.71,-6.04,-0.71,0.72,0.80,0.13,-5.32,-5.32,-5.33
365.49,-6.04,-0.69,-6.04,-0.69,0.68,0.76,0.12,-5.36,-5.36,-5.35
369.14,-6.03,-0.67,-6.03,-0.66,0.63,0.71,0.11,-5.40,-5.40,-5.37
372.83,-6.02,-0.64,-6.03,-0.66,0.59,0.65,0.10,-5.43,-5.45,-5.38
376.56,-6.01,-0.62,-6.03,-0.64,0.57,0.59,0.10,-5.44,-5.46,-5.39
380.33,-6.01,-0.61,-5.93,-0.53,0.59,0.53,0.09,-5.42,-5.34,-5.40
384.13,-5.88,-0.47,-5.82,-0.41,0.62,0.47,0.08,-5.26,-5.20,-5.41
387.97,-5.65,-0.23,-5.84,-0.42,0.64,0.41,0.07,-5.01,-5.20,-5.42
391.85,-5.91,-0.48,-5.99,-0.56,0.63,0.34,0.06,-5.28,-5.36,-5.43
395.77,-6.33,-0.89,-6.17,-0.73,0.59,0.28,0.05,-5.74,-5.58,-5.44
399.73,-6.34,-0.89,-6.25,-0.80,0.51,0.21,0.04,-5.83,-5.74,-5.45
