frequency,raw,error,smoothed,error_smoothed,equalization,parametric_eq,fixed_band_eq,equalized_raw,equalized_smoothed,target
20.00,-4.65,-7.79,-4.65,-7.79,6.00,6.15,2.14,1.35,1.35,3.15
20.20,-4.57,-7.72,-4.57,-7.72,6.00,6.16,2.20,1.43,1.43,3.16
20.40,-4.50,-7.66,-4.49,-7.65,6.00,6.17,2.27,1.50,1.51,3.17
20.61,-4.42,-7.58,-4.41,-7.58,6.00,6.17,2.33,1.58,1.59,3.16
20.81,-4.34,-7.51,-4.34,-7.51,6.00,6.17,2.40,1.66,1.66,3.17
21.02,-4.26,-7.43,-4.26,-7.44,6.00,6.17,2.47,1.74,1.74,3.17
21.23,-4.19,-7.37,-4.18,-7.37,6.00,6.16,2.55,1.81,1.82,3.18
21.44,-4.12,-7.30,-4.11,-7.30,6.00,6.15,2.62,1.88,1.89,3.18
21.66,-4.04,-7.22,-4.04,-7.23,6.00,6.14,2.70,1.96,1.96,3.18
21.87,-3.96,-7.15,-3.96,-7.15,6.00,6.13,2.78,2.04,2.04,3.18
22.09,-3.88,-7.08,-3.88,-7.07,6.00,6.11,2.86,2.12,2.12,3.19
22.31,-3.77,-6.97,-3.78,-6.97,6.00,6.09,2.95,2.23,2.22,3.19
22.54,-3.68,-6.86,-3.67,-6.86,6.00,6.07,3.03,2.32,2.33,3.18
22.76,-3.58,-6.75,-3.57,-6.75,6.00,6.04,3.12,2.42,2.43,3.17
22.99,-3.47,-6.64,-3.48,-6.65,6.00,6.02,3.21,2.53,2.52,3.17
23.22,-3.41,-6.58,-3.40,-6.57,6.00,5.99,3.30,2.59,2.60,3.17
23.45,-3.34,-6.50,-3.34,-6.50,6.00,5.95,3.40,2.67,2.67,3.16
23.69,-3.28,-6.44,-3.27,-6.44,6.01,5.92,3.49,2.73,2.73,3.16
23.92,-3.21,-6.37,-3.21,-6.36,6.02,5.88,3.59,2.81,2.81,3.16
24.16,-3.14,-6.30,-3.13,-6.29,6.02,5.85,3.69,2.88,2.88,3.16
24.40,-3.05,-6.21,-3.06,-6.22,6.01,5.81,3.79,2.95,2.95,3.16
24.65,-2.98,-6.14,-2.98,-6.14,5.99,5.76,3.90,3.01,3.01,3.16
24.89,-2.89,-6.05,-2.89,-6.05,5.96,5.72,4.00,3.07,3.07,3.16
25.14,-2.81,-5.97,-2.81,-5.97,5.92,5.67,4.11,3.10,3.11,3.16
25.39,-2.72,-5.87,-2.73,-5.88,5.86,5.62,4.21,3.14,3.13,3.15
25.65,-2.65,-5.79,-2.64,-5.79,5.80,5.58,4.32,3.15,3.15,3.15
25.91,-2.56,-5.70,-2.56,-5.70,5.72,5.52,4.42,3.17,3.16,3.15
26.16,-2.47,-5.62,-2.48,-5.63,5.64,5.47,4.53,3.17,3.16,3.15
26.43,-2.41,-5.55,-2.40,-5.55,5.57,5.42,4.63,3.16,3.16,3.15
26.69,-2.34,-5.48,-2.33,-5.48,5.49,5.36,4.73,3.15,3.16,3.14
26.96,-2.26,-5.40,-2.27,-5.41,5.42,5.31,4.84,3.16,3.16,3.14
27.23,-2.21,-5.35,-2.20,-5.35,5.35,5.25,4.93,3.15,3.15,3.14
27.50,-2.15,-5.29,-2.15,-5.29,5.28,5.19,5.03,3.14,3.13,3.14
27.77,-2.10,-5.24,-2.09,-5.24,5.21,5.14,5.12,3.12,3.12,3.14
28.05,-2.04,-5.18,-2.02,-5.16,5.14,5.08,5.21,3.10,3.11,3.14
28.33,-1.94,-5.08,-1.94,-5.08,5.06,5.02,5.29,3.13,3.13,3.14
28.62,-1.84,-4.98,-1.84,-4.98,4.99,4.96,5.37,3.15,3.15,3.14
28.90,-1.74,-4.88,-1.74,-4.89,4.91,4.90,5.44,3.18,3.17,3.15
29.19,-1.67,-4.81,-1.67,-4.82,4.84,4.83,5.51,3.17,3.17,3.15
29.48,-1.61,-4.75,-1.60,-4.75,4.76,4.77,5.57,3.16,3.16,3.15
29.78,-1.55,-4.70,-1.54,-4.70,4.69,4.71,5.62,3.14,3.14,3.16
30.08,-1.48,-4.63,-1.48,-4.63,4.62,4.65,5.66,3.14,3.14,3.15
30.38,-1.41,-4.56,-1.41,-4.56,4.55,4.59,5.69,3.14,3.14,3.15
30.68,-1.34,-4.49,-1.33,-4.49,4.49,4.52,5.71,3.15,3.15,3.15
30.99,-1.26,-4.41,-1.26,-4.41,4.42,4.46,5.73,3.16,3.16,3.15
31.30,-1.20,-4.35,-1.20,-4.35,4.36,4.40,5.73,3.16,3.16,3.15
31.61,-1.14,-4.29,-1.14,-4.28,4.29,4.33,5.73,3.16,3.16,3.15
31.93,-1.08,-4.22,-1.08,-4.22,4.23,4.27,5.71,3.15,3.15,3.15
32.24,-1.03,-4.16,-1.03,-4.17,4.16,4.21,5.69,3.13,3.13,3.14
32.57,-0.97,-4.10,-0.97,-4.10,4.09,4.15,5.65,3.12,3.12,3.13
32.89,-0.92,-4.05,-0.91,-4.04,4.02,4.08,5.61,3.10,3.11,3.13
33.22,-0.84,-3.96,-0.83,-3.96,3.95,4.02,5.56,3.11,3.11,3.12
33.55,-0.76,-3.88,-0.75,-3.87,3.87,3.96,5.51,3.12,3.12,3.12
33.89,-0.67,-3.77,-0.67,-3.78,3.80,3.90,5.44,3.13,3.13,3.11
34.23,-0.60,-3.70,-0.60,-3.71,3.73,3.84,5.37,3.13,3.13,3.11
34.57,-0.55,-3.65,-0.54,-3.65,3.66,3.78,5.29,3.11,3.12,3.11
34.92,-0.49,-3.59,-0.49,-3.59,3.59,3.72,5.21,3.11,3.11,3.10
35.27,-0.44,-3.54,-0.43,-3.54,3.53,3.66,5.12,3.09,3.10,3.10
35.62,-0.38,-3.48,-0.38,-3.48,3.47,3.60,5.03,3.09,3.09,3.10
35.97,-0.32,-3.41,-0.32,-3.41,3.40,3.54,4.94,3.09,3.08,3.10
36.33,-0.26,-3.35,-0.25,-3.35,3.34,3.48,4.84,3.08,3.08,3.10
36.70,-0.19,-3.28,-0.19,-3.28,3.27,3.42,4.74,3.08,3.08,3.09
37.06,-0.12,-3.21,-0.11,-3.20,3.20,3.37,4.64,3.09,3.09,3.09
37.43,-0.04,-3.12,-0.04,-3.13,3.14,3.31,4.54,3.10,3.10,3.09
37.81,0.03,-3.06,0.03,-3.06,3.08,3.25,4.44,3.12,3.11,3.10
38.19,0.09,-3.00,0.09,-3.01,3.03,3.20,4.34,3.12,3.12,3.09
38.57,0.12,-2.97,0.13,-2.97,2.98,3.14,4.23,3.10,3.11,3.09
38.95,0.16,-2.93,0.16,-2.93,2.93,3.09,4.13,3.09,3.09,3.10
39.34,0.19,-2.90,0.19,-2.90,2.88,3.03,4.03,3.07,3.07,3.09
39.74,0.23,-2.86,0.24,-2.85,2.82,2.98,3.93,3.06,3.06,3.09
40.14,0.29,-2.79,0.30,-2.79,2.77,2.93,3.83,3.06,3.07,3.09
40.54,0.36,-2.72,0.37,-2.72,2.72,2.87,3.73,3.08,3.08,3.08
40.94,0.44,-2.64,0.43,-2.65,2.66,2.82,3.64,3.11,3.10,3.08
41.35,0.49,-2.58,0.49,-2.58,2.60,2.77,3.55,3.10,3.10,3.08
41.76,0.53,-2.53,0.54,-2.53,2.55,2.72,3.45,3.08,3.08,3.06
42.18,0.57,-2.49,0.57,-2.49,2.49,2.67,3.36,3.07,3.06,3.06
42.60,0.60,-2.45,0.61,-2.45,2.44,2.62,3.28,3.04,3.05,3.06
43.03,0.64,-2.41,0.65,-2.40,2.39,2.57,3.19,3.04,3.04,3.05
43.46,0.69,-2.35,0.69,-2.35,2.35,2.52,3.11,3.04,3.04,3.05
43.90,0.73,-2.30,0.73,-2.30,2.30,2.48,3.02,3.04,3.04,3.03
44.33,0.77,-2.25,0.78,-2.25,2.26,2.43,2.95,3.03,3.03,3.03
44.78,0.81,-2.21,0.81,-2.21,2.21,2.38,2.87,3.02,3.02,3.02
45.23,0.85,-2.16,0.85,-2.17,2.16,2.34,2.79,3.01,3.01,3.02
45.68,0.88,-2.13,0.89,-2.12,2.12,2.29,2.72,3.00,3.01,3.01
46.13,0.93,-2.08,0.94,-2.07,2.08,2.25,2.65,3.02,3.02,3.02
46.60,0.98,-2.03,0.98,-2.03,2.05,2.20,2.58,3.04,3.04,3.01
47.06,1.03,-1.98,1.02,-2.00,2.02,2.16,2.52,3.06,3.04,3.02
47.53,1.03,-1.99,1.04,-1.98,2.00,2.12,2.45,3.03,3.03,3.02
48.01,1.03,-1.99,1.03,-1.99,1.97,2.07,2.39,3.00,3.00,3.02
48.49,1.04,-1.98,1.04,-1.99,1.94,2.03,2.33,2.99,2.98,3.03
48.97,1.05,-1.98,1.08,-1.95,1.92,1.99,2.27,2.98,3.00,3.03
49.46,1.13,-1.90,1.14,-1.90,1.90,1.95,2.22,3.04,3.04,3.03
49.96,1.21,-1.83,1.19,-1.86,1.88,1.91,2.16,3.09,3.07,3.05
50.46,1.22,-1.82,1.22,-1.83,1.86,1.87,2.11,3.08,3.08,3.05
50.96,1.22,-1.84,1.23,-1.83,1.83,1.83,2.06,3.06,3.06,3.06
51.47,1.23,-1.83,1.23,-1.83,1.81,1.79,2.01,3.04,3.04,3.06
51.99,1.24,-1.82,1.26,-1.80,1.79,1.75,1.96,3.04,3.05,3.06
52.51,1.29,-1.77,1.29,-1.77,1.78,1.71,1.91,3.07,3.07,3.06
53.03,1.34,-1.72,1.31,-1.75,1.76,1.67,1.87,3.10,3.07,3.07
53.56,1.32,-1.74,1.33,-1.74,1.74,1.64,1.82,3.07,3.07,3.07
54.10,1.31,-1.76,1.35,-1.73,1.72,1.60,1.78,3.03,3.07,3.08
54.64,1.38,-1.69,1.37,-1.71,1.69,1.56,1.74,3.07,3.06,3.08
55.18,1.42,-1.65,1.40,-1.67,1.66,1.53,1.70,3.08,3.06,3.08
55.74,1.42,-1.64,1.44,-1.63,1.63,1.49,1.66,3.05,3.07,3.06
56.29,1.45,-1.61,1.47,-1.60,1.60,1.46,1.62,3.06,3.07,3.06
56.86,1.51,-1.55,1.50,-1.56,1.58,1.42,1.58,3.09,3.07,3.06
57.42,1.52,-1.53,1.52,-1.53,1.55,1.39,1.54,3.07,3.07,3.05
58.00,1.51,-1.52,1.52,-1.52,1.53,1.35,1.50,3.04,3.05,3.04
58.58,1.51,-1.51,1.52,-1.51,1.51,1.32,1.46,3.02,3.02,3.02
59.16,1.51,-1.50,1.51,-1.50,1.49,1.29,1.43,3.01,3.00,3.01
59.76,1.51,-1.48,1.51,-1.48,1.47,1.25,1.39,2.99,2.99,3.00
60.35,1.51,-1.46,1.51,-1.46,1.45,1.22,1.35,2.97,2.97,2.97
60.96,1.51,-1.44,1.51,-1.44,1.43,1.19,1.31,2.95,2.95,2.95
61.57,1.51,-1.41,1.51,-1.41,1.40,1.16,1.28,2.92,2.92,2.92
62.18,1.51,-1.37,1.51,-1.37,1.37,1.13,1.24,2.89,2.89,2.89
62.80,1.51,-1.34,1.51,-1.34,1.33,1.09,1.20,2.85,2.85,2.85
63.43,1.51,-1.29,1.51,-1.30,1.30,1.06,1.17,2.81,2.81,2.81
64.07,1.51,-1.26,1.51,-1.25,1.26,1.03,1.13,2.77,2.77,2.77
64.71,1.51,-1.21,1.51,-1.21,1.21,1.00,1.09,2.73,2.73,2.72
65.35,1.51,-1.17,1.51,-1.17,1.17,0.97,1.05,2.69,2.69,2.68
66.01,1.51,-1.13,1.51,-1.13,1.13,0.94,1.02,2.64,2.64,2.65
66.67,1.51,-1.09,1.51,-1.09,1.09,0.91,0.98,2.60,2.60,2.61
67.33,1.51,-1.06,1.51,-1.06,1.06,0.88,0.94,2.57,2.57,2.58
68.01,1.51,-1.02,1.51,-1.02,1.03,0.85,0.90,2.54,2.54,2.54
68.69,1.51,-0.99,1.52,-0.99,1.01,0.82,0.86,2.52,2.53,2.51
69.37,1.51,-0.96,1.51,-0.96,0.99,0.79,0.82,2.50,2.50,2.47
70.07,1.50,-0.94,1.49,-0.96,0.97,0.76,0.78,2.48,2.46,2.44
70.77,1.44,-0.97,1.45,-0.96,0.95,0.73,0.74,2.40,2.40,2.41
71.48,1.41,-0.97,1.42,-0.96,0.93,0.70,0.70,2.34,2.35,2.39
72.19,1.40,-0.95,1.41,-0.94,0.91,0.67,0.66,2.31,2.32,2.35
72.91,1.42,-0.90,1.41,-0.91,0.89,0.64,0.62,2.31,2.30,2.32
73.64,1.42,-0.86,1.43,-0.86,0.86,0.61,0.58,2.29,2.29,2.28
74.38,1.43,-0.82,1.44,-0.81,0.84,0.58,0.54,2.27,2.28,2.25
75.12,1.44,-0.77,1.43,-0.78,0.81,0.55,0.50,2.25,2.24,2.21
75.87,1.41,-0.75,1.40,-0.77,0.78,0.52,0.46,2.19,2.18,2.17
76.63,1.35,-0.78,1.37,-0.76,0.75,0.49,0.42,2.10,2.11,2.13
77.40,1.32,-0.76,1.34,-0.75,0.72,0.46,0.38,2.05,2.06,2.08
78.17,1.32,-0.72,1.33,-0.71,0.70,0.42,0.34,2.03,2.03,2.04
78.95,1.33,-0.66,1.33,-0.67,0.69,0.39,0.30,2.02,2.01,1.99
79.74,1.32,-0.63,1.31,-0.64,0.67,0.36,0.26,1.99,1.97,1.95
80.54,1.27,-0.63,1.28,-0.63,0.64,0.33,0.22,1.92,1.92,1.90
81.35,1.22,-0.64,1.24,-0.62,0.62,0.30,0.17,1.84,1.86,1.86
82.16,1.22,-0.60,1.22,-0.60,0.59,0.27,0.13,1.81,1.81,1.82
82.98,1.22,-0.56,1.22,-0.56,0.55,0.23,0.09,1.78,1.77,1.78
83.81,1.22,-0.51,1.22,-0.52,0.51,0.20,0.05,1.74,1.73,1.74
84.65,1.22,-0.48,1.22,-0.48,0.47,0.17,0.00,1.69,1.69,1.71
85.50,1.22,-0.44,1.24,-0.42,0.42,0.13,-0.04,1.64,1.66,1.66
86.35,1.26,-0.35,1.27,-0.35,0.36,0.10,-0.08,1.62,1.63,1.62
87.22,1.32,-0.25,1.29,-0.28,0.29,0.07,-0.12,1.61,1.58,1.57
88.09,1.32,-0.21,1.33,-0.21,0.21,0.03,-0.17,1.53,1.54,1.53
88.97,1.32,-0.17,1.35,-0.14,0.13,-0.00,-0.21,1.46,1.48,1.49
89.86,1.40,-0.04,1.38,-0.06,0.05,-0.04,-0.26,1.45,1.43,1.45
90.76,1.42,0.02,1.43,0.03,-0.03,-0.08,-0.30,1.39,1.40,1.40
91.66,1.49,0.13,1.48,0.12,-0.11,-0.12,-0.34,1.39,1.38,1.37
92.58,1.52,0.20,1.53,0.21,-0.19,-0.15,-0.39,1.34,1.34,1.33
93.51,1.57,0.29,1.58,0.29,-0.27,-0.19,-0.43,1.30,1.30,1.28
94.44,1.62,0.38,1.60,0.35,-0.36,-0.23,-0.48,1.26,1.24,1.24
95.39,1.61,0.41,1.63,0.42,-0.45,-0.27,-0.52,1.16,1.18,1.21
96.34,1.64,0.48,1.67,0.50,-0.53,-0.31,-0.57,1.11,1.14,1.17
97.30,1.73,0.61,1.73,0.60,-0.61,-0.36,-0.61,1.13,1.12,1.13
98.28,1.80,0.72,1.80,0.71,-0.68,-0.40,-0.66,1.12,1.12,1.08
99.26,1.85,0.81,1.84,0.80,-0.76,-0.44,-0.70,1.10,1.09,1.04
100.25,1.85,0.85,1.85,0.85,-0.83,-0.48,-0.75,1.03,1.02,1.00
101.25,1.83,0.87,1.84,0.88,-0.90,-0.53,-0.79,0.93,0.94,0.96
102.27,1.83,0.92,1.85,0.94,-0.97,-0.57,-0.84,0.87,0.88,0.91
103.29,1.87,1.01,1.87,1.00,-1.03,-0.62,-0.88,0.84,0.84,0.86
104.32,1.90,1.09,1.90,1.08,-1.09,-0.66,-0.93,0.82,0.81,0.82
105.37,1.91,1.14,1.92,1.15,-1.14,-0.71,-0.97,0.78,0.79,0.78
106.42,1.94,1.22,1.93,1.20,-1.18,-0.76,-1.01,0.76,0.74,0.73
107.48,1.91,1.24,1.92,1.24,-1.23,-0.80,-1.05,0.69,0.69,0.68
108.56,1.89,1.27,1.90,1.28,-1.26,-0.85,-1.09,0.63,0.64,0.63
109.64,1.87,1.30,1.88,1.29,-1.28,-0.90,-1.13,0.59,0.59,0.58
110.74,1.85,1.31,1.84,1.30,-1.30,-0.94,-1.16,0.56,0.54,0.54
111.85,1.79,1.29,1.79,1.29,-1.30,-0.99,-1.20,0.49,0.49,0.50
112.97,1.72,1.26,1.75,1.29,-1.31,-1.03,-1.23,0.42,0.45,0.46
114.10,1.72,1.30,1.72,1.29,-1.31,-1.08,-1.26,0.42,0.41,0.42
115.24,1.71,1.32,1.69,1.30,-1.30,-1.12,-1.29,0.41,0.38,0.40
116.39,1.65,1.30,1.67,1.31,-1.30,-1.16,-1.32,0.35,0.37,0.36
117.55,1.62,1.28,1.64,1.30,-1.30,-1.20,-1.34,0.33,0.34,0.34
118.73,1.63,1.32,1.61,1.29,-1.29,-1.24,-1.36,0.34,0.32,0.31
119.92,1.57,1.28,1.59,1.29,-1.28,-1.28,-1.38,0.29,0.31,0.29
121.12,1.55,1.28,1.55,1.28,-1.27,-1.31,-1.39,0.29,0.29,0.28
122.33,1.52,1.26,1.52,1.26,-1.25,-1.34,-1.40,0.27,0.27,0.26
123.55,1.48,1.24,1.49,1.24,-1.24,-1.37,-1.41,0.24,0.25,0.25
124.79,1.46,1.23,1.44,1.21,-1.23,-1.39,-1.41,0.24,0.21,0.23
126.03,1.38,1.17,1.41,1.20,-1.22,-1.41,-1.41,0.17,0.19,0.22
127.29,1.39,1.19,1.40,1.20,-1.21,-1.43,-1.41,0.19,0.19,0.20
128.57,1.40,1.22,1.39,1.21,-1.20,-1.44,-1.40,0.20,0.19,0.19
129.85,1.40,1.23,1.39,1.22,-1.20,-1.45,-1.40,0.20,0.19,0.17
131.15,1.37,1.21,1.37,1.21,-1.21,-1.46,-1.38,0.17,0.16,0.16
132.46,1.33,1.20,1.34,1.20,-1.21,-1.46,-1.37,0.12,0.13,0.14
133.79,1.32,1.20,1.33,1.20,-1.22,-1.46,-1.35,0.11,0.11,0.13
135.12,1.32,1.22,1.33,1.22,-1.22,-1.45,-1.33,0.10,0.11,0.10
136.48,1.33,1.24,1.33,1.24,-1.22,-1.44,-1.31,0.11,0.11,0.09
137.84,1.33,1.26,1.31,1.24,-1.23,-1.43,-1.28,0.10,0.09,0.07
139.22,1.28,1.23,1.29,1.23,-1.24,-1.41,-1.25,0.05,0.05,0.05
140.61,1.24,1.21,1.26,1.22,-1.25,-1.39,-1.22,-0.00,0.01,0.03
142.02,1.24,1.23,1.24,1.23,-1.25,-1.37,-1.19,-0.01,-0.01,0.02
143.44,1.24,1.26,1.24,1.25,-1.25,-1.34,-1.16,-0.01,-0.01,-0.01
144.87,1.24,1.28,1.24,1.28,-1.26,-1.32,-1.12,-0.01,-0.02,-0.04
146.32,1.21,1.28,1.20,1.27,-1.26,-1.29,-1.08,-0.04,-0.05,-0.07
147.78,1.15,1.26,1.16,1.26,-1.26,-1.26,-1.05,-0.10,-0.10,-0.10
149.26,1.08,1.22,1.10,1.24,-1.26,-1.22,-1.01,-0.17,-0.16,-0.14
150.75,1.04,1.23,1.04,1.22,-1.25,-1.19,-0.97,-0.21,-0.21,-0.18
152.26,0.98,1.22,0.97,1.21,-1.23,-1.15,-0.93,-0.25,-0.26,-0.24
153.78,0.89,1.18,0.90,1.20,-1.19,-1.12,-0.89,-0.30,-0.29,-0.29
155.32,0.80,1.16,0.81,1.17,-1.13,-1.08,-0.85,-0.33,-0.32,-0.35
156.88,0.72,1.13,0.71,1.12,-1.04,-1.04,-0.80,-0.32,-0.34,-0.41
158.44,0.56,1.03,0.56,1.03,-0.94,-1.01,-0.76,-0.37,-0.37,-0.47
160.03,0.39,0.91,0.38,0.90,-0.82,-0.97,-0.72,-0.43,-0.44,-0.52
161.63,0.15,0.72,0.15,0.71,-0.72,-0.93,-0.68,-0.56,-0.57,-0.56
163.24,-0.06,0.55,-0.06,0.55,-0.63,-0.90,-0.64,-0.68,-0.69,-0.61
164.88,-0.25,0.40,-0.20,0.44,-0.57,-0.86,-0.59,-0.81,-0.77,-0.64
166.53,-0.26,0.41,-0.26,0.41,-0.54,-0.82,-0.55,-0.79,-0.80,-0.67
168.19,-0.22,0.47,-0.23,0.46,-0.54,-0.79,-0.51,-0.76,-0.77,-0.69
169.87,-0.15,0.55,-0.13,0.57,-0.57,-0.75,-0.47,-0.72,-0.70,-0.70
171.57,-0.01,0.70,-0.02,0.69,-0.63,-0.72,-0.43,-0.63,-0.64,-0.70
173.29,0.09,0.80,0.08,0.78,-0.69,-0.69,-0.39,-0.60,-0.61,-0.70
175.02,0.14,0.83,0.13,0.82,-0.75,-0.65,-0.35,-0.60,-0.62,-0.69
176.77,0.13,0.81,0.14,0.82,-0.79,-0.62,-0.31,-0.65,-0.64,-0.67
178.54,0.13,0.79,0.15,0.80,-0.80,-0.59,-0.27,-0.67,-0.66,-0.66
180.32,0.14,0.78,0.14,0.78,-0.79,-0.56,-0.23,-0.65,-0.65,-0.64
182.13,0.14,0.76,0.13,0.75,-0.76,-0.53,-0.19,-0.62,-0.63,-0.62
183.95,0.10,0.70,0.11,0.71,-0.72,-0.49,-0.15,-0.61,-0.61,-0.59
185.79,0.07,0.66,0.08,0.67,-0.67,-0.47,-0.11,-0.59,-0.58,-0.59
187.65,0.04,0.63,0.04,0.62,-0.62,-0.44,-0.07,-0.57,-0.57,-0.58
189.52,0.01,0.59,-0.01,0.57,-0.57,-0.41,-0.03,-0.55,-0.57,-0.57
191.42,-0.08,0.50,-0.07,0.51,-0.52,-0.38,0.01,-0.59,-0.58,-0.58
193.33,-0.14,0.43,-0.11,0.46,-0.47,-0.35,0.04,-0.60,-0.58,-0.57
195.27,-0.15,0.42,-0.16,0.41,-0.43,-0.32,0.08,-0.57,-0.58,-0.57
197.22,-0.18,0.41,-0.20,0.37,-0.38,-0.30,0.12,-0.56,-0.59,-0.58
199.19,-0.27,0.32,-0.25,0.34,-0.34,-0.27,0.15,-0.61,-0.59,-0.58
201.18,-0.31,0.29,-0.28,0.31,-0.31,-0.24,0.19,-0.61,-0.59,-0.59
203.19,-0.31,0.30,-0.32,0.29,-0.28,-0.21,0.23,-0.58,-0.59,-0.60
205.23,-0.33,0.29,-0.36,0.26,-0.25,-0.19,0.26,-0.58,-0.60,-0.61
207.28,-0.42,0.21,-0.40,0.22,-0.22,-0.16,0.29,-0.64,-0.62,-0.62
209.35,-0.49,0.15,-0.46,0.17,-0.19,-0.13,0.33,-0.67,-0.65,-0.63
211.44,-0.50,0.15,-0.51,0.14,-0.15,-0.11,0.36,-0.65,-0.66,-0.65
213.56,-0.55,0.11,-0.55,0.11,-0.10,-0.08,0.39,-0.65,-0.65,-0.66
215.69,-0.60,0.08,-0.59,0.08,-0.05,-0.05,0.42,-0.64,-0.64,-0.68
217.85,-0.66,0.03,-0.66,0.03,0.01,-0.02,0.45,-0.65,-0.65,-0.69
220.03,-0.75,-0.04,-0.75,-0.05,0.06,0.01,0.48,-0.68,-0.69,-0.70
222.23,-0.85,-0.14,-0.85,-0.14,0.12,0.04,0.51,-0.73,-0.73,-0.71
224.45,-0.96,-0.24,-0.93,-0.21,0.17,0.07,0.54,-0.78,-0.76,-0.72
226.70,-1.00,-0.27,-0.99,-0.26,0.23,0.10,0.56,-0.77,-0.76,-0.72
228.96,-1.00,-0.26,-1.02,-0.29,0.28,0.13,0.59,-0.72,-0.74,-0.73
231.25,-1.06,-0.33,-1.04,-0.31,0.33,0.16,0.61,-0.72,-0.71,-0.73
233.57,-1.08,-0.34,-1.08,-0.35,0.38,0.20,0.63,-0.70,-0.70,-0.73
235.90,-1.12,-0.39,-1.14,-0.41,0.42,0.23,0.65,-0.69,-0.71,-0.73
238.26,-1.21,-0.48,-1.18,-0.46,0.47,0.27,0.67,-0.74,-0.71,-0.73
240.64,-1.24,-0.52,-1.24,-0.52,0.51,0.31,0.68,-0.72,-0.72,-0.71
243.05,-1.28,-0.57,-1.29,-0.58,0.56,0.35,0.70,-0.71,-0.73,-0.71
245.48,-1.34,-0.63,-1.32,-0.62,0.62,0.39,0.71,-0.72,-0.71,-0.70
247.93,-1.37,-0.67,-1.35,-0.66,0.66,0.43,0.72,-0.71,-0.69,-0.70
250.41,-1.37,-0.67,-1.39,-0.70,0.70,0.48,0.73,-0.67,-0.69,-0.69
252.92,-1.41,-0.72,-1.42,-0.73,0.72,0.52,0.73,-0.68,-0.70,-0.69
255.45,-1.49,-0.80,-1.46,-0.77,0.75,0.57,0.74,-0.73,-0.71,-0.69
258.00,-1.50,-0.80,-1.48,-0.79,0.78,0.62,0.74,-0.72,-0.70,-0.69
260.58,-1.49,-0.79,-1.49,-0.79,0.81,0.67,0.74,-0.68,-0.69,-0.70
263.19,-1.49,-0.78,-1.50,-0.80,0.83,0.72,0.74,-0.65,-0.67,-0.70
265.82,-1.55,-0.84,-1.55,-0.84,0.86,0.77,0.73,-0.69,-0.69,-0.71
268.48,-1.61,-0.90,-1.60,-0.89,0.89,0.82,0.73,-0.72,-0.71,-0.71
271.16,-1.67,-0.95,-1.66,-0.94,0.92,0.87,0.72,-0.75,-0.73,-0.71
273.87,-1.69,-0.97,-1.67,-0.96,0.95,0.93,0.72,-0.73,-0.72,-0.72
276.61,-1.69,-0.97,-1.69,-0.97,0.98,0.97,0.71,-0.71,-0.71,-0.72
279.38,-1.69,-0.96,-1.72,-1.00,1.00,1.02,0.70,-0.68,-0.72,-0.72
282.17,-1.78,-1.06,-1.76,-1.04,1.03,1.06,0.69,-0.75,-0.74,-0.72
284.99,-1.82,-1.11,-1.78,-1.06,1.05,1.10,0.67,-0.77,-0.73,-0.71
287.84,-1.77,-1.05,-1.77,-1.06,1.06,1.14,0.66,-0.70,-0.71,-0.71
290.72,-1.72,-1.01,-1.76,-1.05,1.08,1.16,0.65,-0.64,-0.68,-0.71
293.63,-1.76,-1.06,-1.76,-1.06,1.09,1.18,0.63,-0.67,-0.67,-0.70
296.57,-1.82,-1.13,-1.79,-1.10,1.10,1.19,0.62,-0.72,-0.69,-0.69
299.53,-1.82,-1.12,-1.81,-1.13,1.10,1.20,0.60,-0.71,-0.71,-0.69
302.53,-1.81,-1.12,-1.81,-1.12,1.10,1.20,0.59,-0.70,-0.71,-0.68
305.55,-1.80,-1.11,-1.80,-1.11,1.10,1.19,0.57,-0.70,-0.70,-0.69
308.61,-1.79,-1.10,-1.79,-1.10,1.10,1.17,0.55,-0.69,-0.69,-0.69
311.69,-1.78,-1.08,-1.78,-1.08,1.09,1.14,0.54,-0.68,-0.69,-0.69
314.81,-1.78,-1.07,-1.77,-1.07,1.08,1.11,0.52,-0.69,-0.69,-0.70
317.96,-1.77,-1.06,-1.77,-1.06,1.07,1.08,0.50,-0.69,-0.69,-0.71
321.14,-1.77,-1.05,-1.77,-1.05,1.06,1.04,0.49,-0.70,-0.70,-0.72
324.35,-1.77,-1.05,-1.77,-1.05,1.05,0.99,0.47,-0.71,-0.72,-0.72
327.59,-1.78,-1.05,-1.78,-1.04,1.04,0.95,0.46,-0.74,-0.74,-0.73
330.87,-1.78,-1.03,-1.78,-1.04,1.02,0.90,0.44,-0.75,-0.76,-0.74
334.18,-1.79,-1.03,-1.78,-1.02,1.00,0.86,0.42,-0.78,-0.77,-0.75
337.52,-1.77,-1.00,-1.75,-0.99,0.98,0.81,0.41,-0.79,-0.77,-0.76
340.90,-1.71,-0.94,-1.72,-0.95,0.95,0.76,0.39,-0.75,-0.77,-0.77
344.30,-1.69,-0.91,-1.69,-0.91,0.93,0.72,0.38,-0.76,-0.76,-0.78
347.75,-1.69,-0.89,-1.68,-0.88,0.90,0.67,0.36,-0.78,-0.77,-0.80
351.23,-1.68,-0.87,-1.68,-0.87,0.88,0.63,0.35,-0.80,-0.80,-0.81
354.74,-1.68,-0.85,-1.68,-0.85,0.85,0.59,0.33,-0.82,-0.82,-0.82
358.28,-1.68,-0.84,-1.67,-0.84,0.83,0.55,0.32,-0.84,-0.84,-0.83
361.87,-1.67,-0.82,-1.67,-0.82,0.82,0.51,0.31,-0.85,-0.85,-0.84
365.49,-1.67,-0.80,-1.66,-0.80,0.81,0.48,0.29,-0.86,-0.86,-0.86
369.14,-1.66,-0.78,-1.65,-0.78,0.79,0.44,0.28,-0.87,-0.86,-0.88
372.83,-1.65,-0.76,-1.65,-0.76,0.77,0.41,0.27,-0.88,-0.88,-0.89
376.56,-1.64,-0.74,-1.64,-0.75,0.73,0.38,0.26,-0.90,-0.91,-0.90
380.33,-1.64,-0.73,-1.63,-0.73,0.70,0.35,0.24,-0.94,-0.94,-0.91
384.13,-1.62,-0.70,-1.60,-0.68,0.65,0.33,0.23,-0.97,-0.95,-0.92
387.97,-1.55,-0.62,-1.54,-0.61,0.60,0.30,0.22,-0.94,-0.94,-0.93
391.85,-1.46,-0.51,-1.48,-0.54,0.55,0.28,0.21,-0.91,-0.94,-0.94
395.77,-1.43,-0.47,-1.43,-0.48,0.50,0.25,0.20,-0.93,-0.94,-0.95
399.73,-1.43,-0.46,-1.39,-0.43,0.45,0.23,0.19,-0.98,-0.95,-0.96
403.72,-1.36,-0.38,-1.37,-0.39,0.40,0.21,0.18,-0.95,-0.97,-0.97
407.76,-1.34,-0.34,-1.35,-0.35,0.37,0.19,0.17,-0.97,-0.98,-0.99
411.84,-1.34,-0.33,-1.33,-0.33,0.34,0.17,0.16,-1.00,-0.99,-1.00
415.96,-1.34,-0.32,-1.33,-0.32,0.32,0.15,0.15,-1.01,-1.01,-1.02
420.12,-1.34,-0.32,-1.33,-0.31,0.31,0.14,0.14,-1.03,-1.02,-1.02
424.32,-1.33,-0.30,-1.33,-0.30,0.30,0.12,0.13,-1.03,-1.03,-1.03
428.56,-1.32,-0.29,-1.32,-0.29,0.29,0.10,0.12,-1.03,-1.03,-1.03
432.85,-1.31,-0.29,-1.30,-0.28,0.28,0.09,0.11,-1.03,-1.03,-1.02
437.18,-1.28,-0.27,-1.28,-0.27,0.26,0.07,0.10,-1.01,-1.01,-1.01
441.55,-1.25,-0.26,-1.24,-0.25,0.25,0.06,0.09,-1.00,-0.99,-0.99
445.96,-1.20,-0.23,-1.20,-0.23,0.23,0.05,0.08,-0.96,-0.97,-0.97
450.42,-1.15,-0.21,-1.15,-0.21,0.21,0.03,0.07,-0.93,-0.93,-0.94
454.93,-1.09,-0.19,-1.09,-0.18,0.19,0.02,0.06,-0.89,-0.89,-0.90
459.48,-1.03,-0.17,-1.03,-0.16,0.17,0.01,0.06,-0.86,-0.86,-0.86
464.07,-0.97,-0.13,-0.97,-0.14,0.13,-0.01,0.05,-0.83,-0.84,-0.83
468.71,-0.92,-0.12,-0.91,-0.12,0.10,-0.02,0.04,-0.82,-0.81,-0.79
473.40,-0.85,-0.09,-0.84,-0.09,0.07,-0.03,0.03,-0.78,-0.77,-0.75
478.13,-0.77,-0.05,-0.76,-0.05,0.04,-0.04,0.02,-0.73,-0.72,-0.71
482.91,-0.67,0.02,-0.68,0.00,0.01,-0.05,0.01,-0.65,-0.67,-0.68
487.74,-0.62,0.04,-0.61,0.04,-0.00,-0.07,0.00,-0.62,-0.62,-0.65
492.62,-0.58,0.06,-0.57,0.06,-0.02,-0.08,-0.00,-0.59,-0.59,-0.63
497.55,-0.55,0.07,-0.57,0.05,-0.03,-0.09,-0.01,-0.57,-0.59,-0.61
502.52,-0.58,0.03,-0.57,0.03,-0.04,-0.10,-0.02,-0.61,-0.61,-0.60
