frequency,raw,error,smoothed,error_smoothed,equalization,parametric_eq,fixed_band_eq,equalized_raw,equalized_smoothed,target
20.00,12.09,10.23,12.07,10.21,-10.27,-11.49,-5.71,1.83,1.81,1.87
20.20,12.26,10.41,12.28,10.42,-10.45,-11.49,-5.85,1.81,1.82,1.86
20.40,12.44,10.60,12.46,10.62,-10.62,-11.49,-6.00,1.82,1.84,1.84
20.61,12.60,10.77,12.62,10.80,-10.77,-11.50,-6.15,1.83,1.85,1.83
20.81,12.79,10.98,12.78,10.97,-10.90,-11.50,-6.30,1.88,1.88,1.81
21.02,12.93,11.14,12.90,11.10,-11.02,-11.50,-6.46,1.92,1.88,1.80
21.23,12.95,11.17,12.96,11.18,-11.12,-11.51,-6.62,1.84,1.84,1.79
21.44,12.96,11.19,12.98,11.21,-11.20,-11.51,-6.79,1.77,1.78,1.78
21.66,12.98,11.23,12.98,11.22,-11.24,-11.52,-6.96,1.74,1.74,1.76
21.87,12.99,11.24,13.00,11.24,-11.27,-11.52,-7.14,1.72,1.72,1.76
22.09,13.01,11.27,13.01,11.27,-11.29,-11.52,-7.31,1.72,1.72,1.75
22.31,13.03,11.30,13.03,11.30,-11.31,-11.53,-7.50,1.72,1.72,1.74
22.54,13.05,11.33,13.05,11.33,-11.33,-11.53,-7.69,1.72,1.72,1.73
22.76,13.07,11.36,13.07,11.36,-11.36,-11.53,-7.89,1.72,1.72,1.72
22.99,13.09,11.38,13.10,11.39,-11.39,-11.54,-8.09,1.70,1.71,1.72
23.22,13.13,11.43,13.13,11.42,-11.43,-11.54,-8.29,1.71,1.70,1.71
23.45,13.16,11.46,13.17,11.46,-11.47,-11.55,-8.50,1.69,1.70,1.71
23.69,13.20,11.50,13.21,11.50,-11.52,-11.55,-8.72,1.69,1.69,1.71
23.92,13.24,11.54,13.24,11.53,-11.56,-11.56,-8.94,1.69,1.68,1.71
24.16,13.27,11.57,13.27,11.57,-11.58,-11.56,-9.17,1.69,1.69,1.71
24.40,13.29,11.59,13.31,11.60,-11.58,-11.56,-9.40,1.71,1.73,1.71
24.65,13.32,11.62,13.33,11.63,-11.55,-11.57,-9.64,1.78,1.78,1.71
24.89,13.34,11.64,13.32,11.61,-11.50,-11.57,-9.87,1.85,1.82,1.71
25.14,13.27,11.57,13.25,11.55,-11.44,-11.58,-10.12,1.83,1.81,1.71
25.39,13.12,11.42,13.11,11.41,-11.40,-11.58,-10.37,1.72,1.71,1.71
25.65,12.97,11.28,12.96,11.26,-11.38,-11.59,-10.63,1.59,1.58,1.70
25.91,12.83,11.13,12.88,11.19,-11.39,-11.59,-10.89,1.44,1.49,1.70
26.16,12.89,11.20,12.91,11.22,-11.39,-11.60,-11.15,1.49,1.52,1.69
26.43,13.06,11.37,13.06,11.38,-11.40,-11.60,-11.41,1.66,1.66,1.69
26.69,13.24,11.57,13.25,11.57,-11.42,-11.60,-11.68,1.82,1.82,1.68
26.96,13.42,11.76,13.36,11.69,-11.47,-11.61,-11.95,1.95,1.89,1.67
27.23,13.38,11.72,13.37,11.71,-11.56,-11.61,-12.21,1.83,1.82,1.67
27.50,13.29,11.64,13.29,11.63,-11.67,-11.62,-12.48,1.62,1.61,1.66
27.77,13.20,11.56,13.22,11.57,-11.79,-11.62,-12.74,1.41,1.43,1.65
28.05,13.19,11.55,13.27,11.63,-11.89,-11.63,-13.00,1.30,1.38,1.64
28.33,13.47,11.83,13.47,11.84,-11.95,-11.63,-13.25,1.52,1.52,1.64
28.62,13.73,12.09,13.74,12.11,-11.99,-11.64,-13.49,1.74,1.75,1.64
28.90,14.01,12.39,13.92,12.29,-12.02,-11.64,-13.72,2.00,1.91,1.63
29.19,13.96,12.33,13.93,12.29,-12.04,-11.65,-13.94,1.92,1.89,1.64
29.48,13.75,12.12,13.77,12.14,-12.06,-11.65,-14.13,1.70,1.72,1.64
29.78,13.56,11.92,13.57,11.94,-12.05,-11.66,-14.32,1.51,1.53,1.64
30.08,13.41,11.77,13.46,11.82,-12.01,-11.66,-14.47,1.40,1.45,1.64
30.38,13.45,11.82,13.45,11.81,-11.95,-11.67,-14.62,1.50,1.50,1.64
30.68,13.50,11.87,13.49,11.85,-11.90,-11.67,-14.72,1.61,1.59,1.64
30.99,13.55,11.92,13.54,11.90,-11.87,-11.68,-14.81,1.68,1.67,1.64
31.30,13.55,11.92,13.56,11.92,-11.88,-11.68,-14.86,1.67,1.67,1.64
31.61,13.55,11.92,13.56,11.92,-11.91,-11.69,-14.90,1.65,1.65,1.64
31.93,13.55,11.92,13.55,11.92,-11.90,-11.69,-14.89,1.65,1.65,1.64
32.24,13.55,11.93,13.56,11.93,-11.87,-11.70,-14.87,1.68,1.69,1.63
32.57,13.55,11.93,13.56,11.94,-11.82,-11.70,-14.82,1.73,1.74,1.63
32.89,13.55,11.93,13.52,11.90,-11.79,-11.71,-14.75,1.76,1.74,1.63
33.22,13.44,11.82,13.40,11.77,-11.79,-11.71,-14.65,1.65,1.61,1.63
33.55,13.27,11.65,13.25,11.63,-11.82,-11.72,-14.55,1.45,1.43,1.63
33.89,13.10,11.49,13.20,11.59,-11.87,-11.72,-14.42,1.24,1.34,1.62
34.23,13.29,11.68,13.36,11.74,-11.91,-11.73,-14.29,1.38,1.45,1.62
34.57,13.64,12.03,13.63,12.02,-11.96,-11.73,-14.14,1.69,1.68,1.62
34.92,13.99,12.37,13.87,12.25,-12.01,-11.74,-13.99,1.98,1.86,1.62
35.27,13.94,12.33,13.91,12.29,-12.05,-11.74,-13.83,1.89,1.85,1.62
35.62,13.75,12.14,13.79,12.18,-12.07,-11.75,-13.66,1.68,1.72,1.62
35.97,13.56,11.96,13.63,12.02,-12.05,-11.75,-13.50,1.51,1.58,1.61
36.33,13.55,11.95,13.56,11.95,-12.00,-11.76,-13.33,1.55,1.56,1.61
36.70,13.55,11.95,13.53,11.93,-11.95,-11.76,-13.17,1.61,1.59,1.61
37.06,13.53,11.93,13.48,11.88,-11.91,-11.77,-13.01,1.62,1.57,1.61
37.43,13.40,11.81,13.38,11.78,-11.92,-11.77,-12.85,1.49,1.46,1.60
37.81,13.27,11.68,13.34,11.74,-11.95,-11.78,-12.70,1.32,1.39,1.60
38.19,13.37,11.79,13.48,11.90,-12.00,-11.78,-12.55,1.37,1.48,1.59
38.57,13.72,12.15,13.72,12.14,-12.05,-11.79,-12.41,1.67,1.66,1.58
38.95,14.06,12.50,13.89,12.33,-12.09,-11.79,-12.27,1.97,1.81,1.57
39.34,13.91,12.35,13.90,12.34,-12.11,-11.79,-12.14,1.80,1.79,1.57
39.74,13.69,12.14,13.76,12.21,-12.12,-11.80,-12.02,1.57,1.64,1.56
40.14,13.56,12.01,13.60,12.05,-12.13,-11.80,-11.91,1.42,1.47,1.55
40.54,13.55,12.02,13.54,12.00,-12.13,-11.80,-11.80,1.42,1.41,1.54
40.94,13.55,12.02,13.53,12.00,-12.12,-11.81,-11.70,1.43,1.41,1.54
41.35,13.55,12.02,13.54,12.01,-12.11,-11.81,-11.61,1.44,1.43,1.54
41.76,13.55,12.02,13.57,12.04,-12.10,-11.81,-11.52,1.45,1.47,1.54
42.18,13.62,12.09,13.68,12.15,-12.10,-11.82,-11.44,1.53,1.59,1.54
42.60,13.80,12.26,13.79,12.26,-12.10,-11.82,-11.37,1.70,1.69,1.54
43.03,13.93,12.40,13.81,12.27,-12.11,-11.82,-11.31,1.83,1.71,1.54
43.46,13.72,12.19,13.73,12.19,-12.11,-11.82,-11.26,1.61,1.62,1.54
43.90,13.51,11.96,13.58,12.03,-12.12,-11.83,-11.21,1.39,1.46,1.55
44.33,13.45,11.91,13.45,11.90,-12.11,-11.83,-11.17,1.34,1.34,1.55
44.78,13.45,11.91,13.47,11.92,-12.08,-11.83,-11.14,1.37,1.38,1.55
45.23,13.54,12.00,13.60,12.05,-12.04,-11.83,-11.12,1.50,1.56,1.55
45.68,13.73,12.19,13.69,12.15,-12.00,-11.83,-11.10,1.74,1.70,1.55
46.13,13.79,12.25,13.68,12.14,-11.96,-11.83,-11.10,1.83,1.72,1.55
46.60,13.56,12.01,13.58,12.04,-11.95,-11.83,-11.10,1.61,1.63,1.55
47.06,13.35,11.81,13.44,11.89,-11.94,-11.83,-11.10,1.41,1.49,1.55
47.53,13.35,11.81,13.34,11.80,-11.94,-11.83,-11.12,1.42,1.40,1.55
48.01,13.35,11.82,13.33,11.79,-11.91,-11.83,-11.14,1.44,1.42,1.54
48.49,13.36,11.83,13.36,11.83,-11.87,-11.83,-11.16,1.49,1.49,1.54
48.97,13.37,11.85,13.41,11.88,-11.83,-11.83,-11.20,1.54,1.58,1.53
49.46,13.44,11.92,13.45,11.93,-11.82,-11.82,-11.23,1.63,1.64,1.53
49.96,13.51,11.99,13.45,11.92,-11.83,-11.82,-11.28,1.69,1.62,1.53
50.46,13.40,11.88,13.40,11.87,-11.85,-11.82,-11.33,1.55,1.55,1.53
50.96,13.26,11.73,13.30,11.77,-11.86,-11.81,-11.38,1.40,1.44,1.54
51.47,13.25,11.72,13.25,11.71,-11.85,-11.81,-11.44,1.41,1.40,1.54
51.99,13.25,11.72,13.33,11.79,-11.82,-11.81,-11.51,1.43,1.50,1.54
52.51,13.42,11.90,13.43,11.90,-11.80,-11.80,-11.57,1.62,1.62,1.53
53.03,13.58,12.06,13.43,11.91,-11.79,-11.80,-11.64,1.80,1.65,1.53
53.56,13.34,11.82,13.36,11.84,-11.78,-11.79,-11.71,1.56,1.58,1.53
54.10,13.16,11.63,13.23,11.71,-11.78,-11.78,-11.79,1.38,1.46,1.53
54.64,13.15,11.63,13.17,11.64,-11.76,-11.78,-11.86,1.39,1.41,1.53
55.18,13.20,11.68,13.24,11.72,-11.74,-11.77,-11.93,1.47,1.51,1.53
55.74,13.36,11.84,13.29,11.76,-11.71,-11.76,-12.00,1.66,1.58,1.53
56.29,13.33,11.81,13.26,11.74,-11.68,-11.75,-12.07,1.65,1.58,1.53
56.86,13.12,11.59,13.19,11.66,-11.66,-11.74,-12.13,1.46,1.53,1.53
57.42,13.08,11.56,13.12,11.59,-11.64,-11.73,-12.19,1.44,1.48,1.53
58.00,13.12,11.60,13.13,11.61,-11.62,-11.72,-12.25,1.50,1.51,1.53
58.58,13.20,11.68,13.17,11.64,-11.60,-11.71,-12.29,1.60,1.57,1.53
59.16,13.20,11.68,13.14,11.62,-11.58,-11.69,-12.33,1.63,1.56,1.53
59.76,13.03,11.50,13.05,11.53,-11.55,-11.68,-12.36,1.47,1.50,1.53
60.35,12.95,11.43,12.99,11.46,-11.53,-11.67,-12.38,1.43,1.46,1.53
60.96,12.95,11.42,13.02,11.48,-11.50,-11.65,-12.39,1.46,1.52,1.54
61.57,13.11,11.58,13.06,11.53,-11.47,-11.64,-12.39,1.64,1.59,1.54
62.18,13.16,11.63,13.06,11.52,-11.45,-11.62,-12.37,1.71,1.60,1.54
62.80,12.92,11.40,12.99,11.46,-11.44,-11.61,-12.35,1.48,1.55,1.53
63.43,12.85,11.33,12.88,11.36,-11.44,-11.59,-12.31,1.42,1.45,1.53
64.07,12.85,11.34,12.83,11.31,-11.43,-11.57,-12.26,1.42,1.40,1.52
64.71,12.87,11.36,12.92,11.41,-11.42,-11.55,-12.20,1.45,1.50,1.52
65.35,12.97,11.47,12.99,11.48,-11.42,-11.53,-12.13,1.56,1.57,1.51
66.01,13.12,11.62,12.98,11.48,-11.41,-11.51,-12.05,1.72,1.58,1.51
66.67,12.87,11.38,12.90,11.40,-11.39,-11.49,-11.96,1.48,1.51,1.50
67.33,12.75,11.26,12.84,11.34,-11.37,-11.46,-11.86,1.38,1.47,1.50
68.01,12.75,11.27,12.82,11.33,-11.34,-11.44,-11.76,1.42,1.48,1.49
68.69,12.93,11.45,12.83,11.35,-11.30,-11.42,-11.65,1.64,1.53,1.49
69.37,12.85,11.38,12.77,11.29,-11.25,-11.39,-11.53,1.60,1.52,1.48
70.07,12.57,11.10,12.65,11.18,-11.21,-11.37,-11.41,1.37,1.44,1.48
70.77,12.48,11.02,12.56,11.09,-11.18,-11.34,-11.29,1.31,1.38,1.47
71.48,12.56,11.10,12.53,11.07,-11.14,-11.31,-11.16,1.42,1.38,1.47
72.19,12.65,11.20,12.58,11.12,-11.11,-11.28,-11.03,1.55,1.47,1.46
72.91,12.52,11.07,12.62,11.16,-11.07,-11.25,-10.91,1.45,1.55,1.46
73.64,12.62,11.17,12.58,11.12,-11.05,-11.22,-10.78,1.57,1.53,1.46
74.38,12.56,11.11,12.49,11.04,-11.04,-11.19,-10.66,1.52,1.45,1.46
75.12,12.35,10.90,12.43,10.98,-11.04,-11.16,-10.54,1.32,1.39,1.46
75.87,12.35,10.91,12.37,10.92,-11.02,-11.13,-10.42,1.33,1.35,1.45
76.63,12.39,10.95,12.42,10.97,-10.99,-11.10,-10.30,1.41,1.43,1.45
77.40,12.48,11.04,12.45,11.01,-10.94,-11.06,-10.19,1.55,1.51,1.45
78.17,12.51,11.07,12.42,10.98,-10.89,-11.03,-10.09,1.62,1.54,1.45
78.95,12.26,10.82,12.36,10.91,-10.85,-10.99,-9.98,1.41,1.51,1.45
79.74,12.25,10.81,12.26,10.81,-10.81,-10.96,-9.89,1.44,1.44,1.45
80.54,12.20,10.76,12.17,10.72,-10.78,-10.92,-9.80,1.42,1.39,1.45
81.35,12.12,10.68,12.11,10.67,-10.74,-10.88,-9.71,1.38,1.37,1.45
82.16,12.06,10.62,12.09,10.65,-10.71,-10.85,-9.63,1.36,1.38,1.45
82.98,12.04,10.61,12.11,10.67,-10.68,-10.81,-9.56,1.37,1.43,1.44
83.81,12.21,10.78,12.13,10.69,-10.67,-10.77,-9.49,1.55,1.46,1.44
84.65,12.15,10.72,12.11,10.68,-10.65,-10.73,-9.43,1.50,1.46,1.44
85.50,12.02,10.60,12.10,10.67,-10.63,-10.69,-9.37,1.39,1.47,1.43
86.35,12.00,10.58,12.05,10.62,-10.60,-10.65,-9.32,1.40,1.45,1.43
87.22,12.09,10.68,12.01,10.59,-10.56,-10.61,-9.28,1.53,1.45,1.42
88.09,11.97,10.56,11.96,10.55,-10.52,-10.56,-9.24,1.45,1.44,1.42
88.97,11.83,10.43,11.87,10.46,-10.47,-10.52,-9.22,1.36,1.39,1.41
89.86,11.76,10.37,11.75,10.35,-10.42,-10.48,-9.19,1.34,1.33,1.40
90.76,11.69,10.30,11.72,10.33,-10.38,-10.44,-9.18,1.32,1.35,1.40
91.66,11.70,10.32,11.73,10.34,-10.34,-10.39,-9.17,1.36,1.39,1.39
92.58,11.77,10.40,11.71,10.34,-10.32,-10.35,-9.17,1.46,1.40,1.38
93.51,11.69,10.33,11.68,10.31,-10.30,-10.30,-9.17,1.40,1.38,1.37
94.44,11.57,10.22,11.61,10.26,-10.28,-10.26,-9.18,1.29,1.33,1.36
95.39,11.55,10.21,11.57,10.23,-10.26,-10.22,-9.19,1.30,1.32,1.35
96.34,11.57,10.24,11.60,10.26,-10.23,-10.17,-9.21,1.34,1.37,1.34
97.30,11.62,10.31,11.57,10.25,-10.19,-10.13,-9.24,1.43,1.38,1.32
98.28,11.56,10.26,11.50,10.19,-10.15,-10.08,-9.27,1.41,1.34,1.31
99.26,11.28,10.00,11.39,10.10,-10.11,-10.04,-9.31,1.17,1.28,1.29
100.25,11.29,10.03,11.28,10.01,-10.07,-9.99,-9.35,1.22,1.21,1.27
101.25,11.23,9.99,11.21,9.97,-10.02,-9.95,-9.39,1.21,1.19,1.25
102.27,11.18,9.96,11.21,9.98,-9.97,-9.90,-9.44,1.22,1.24,1.23
103.29,11.16,9.96,11.15,9.95,-9.91,-9.86,-9.49,1.25,1.24,1.21
104.32,11.11,9.93,11.09,9.90,-9.87,-9.81,-9.55,1.24,1.21,1.19
105.37,10.98,9.83,10.99,9.83,-9.83,-9.77,-9.61,1.15,1.16,1.16
106.42,10.88,9.75,10.89,9.75,-9.79,-9.72,-9.67,1.09,1.10,1.14
107.48,10.80,9.69,10.83,9.71,-9.74,-9.68,-9.73,1.07,1.09,1.12
108.56,10.77,9.68,10.79,9.70,-9.67,-9.63,-9.79,1.10,1.12,1.10
109.64,10.80,9.73,10.76,9.68,-9.62,-9.59,-9.85,1.19,1.14,1.08
110.74,10.68,9.62,10.67,9.61,-9.57,-9.54,-9.91,1.11,1.10,1.07
111.85,10.56,9.52,10.54,9.49,-9.54,-9.50,-9.96,1.03,1.00,1.05
112.97,10.38,9.35,10.46,9.42,-9.51,-9.45,-10.02,0.88,0.95,1.04
114.10,10.40,9.38,10.43,9.41,-9.47,-9.41,-10.07,0.93,0.96,1.03
115.24,10.52,9.51,10.45,9.43,-9.43,-9.37,-10.11,1.09,1.02,1.02
116.39,10.46,9.46,10.49,9.48,-9.38,-9.32,-10.15,1.08,1.11,1.01
117.55,10.44,9.44,10.44,9.43,-9.35,-9.28,-10.18,1.10,1.09,1.01
118.73,10.39,9.40,10.33,9.33,-9.32,-9.24,-10.20,1.08,1.01,1.00
119.92,10.16,9.17,10.24,9.25,-9.29,-9.19,-10.22,0.88,0.95,1.00
121.12,10.15,9.17,10.16,9.18,-9.25,-9.15,-10.22,0.90,0.91,0.99
122.33,10.16,9.18,10.13,9.14,-9.20,-9.11,-10.22,0.96,0.92,0.99
123.55,10.13,9.14,10.17,9.17,-9.15,-9.07,-10.21,0.98,1.01,1.00
124.79,10.14,9.15,10.15,9.16,-9.10,-9.02,-10.18,1.04,1.05,1.00
126.03,10.17,9.19,10.09,9.09,-9.06,-8.98,-10.14,1.11,1.02,0.99
127.29,9.98,8.99,10.03,9.04,-9.03,-8.94,-10.09,0.96,1.01,1.00
128.57,9.90,8.91,9.97,8.97,-8.98,-8.90,-10.04,0.92,0.99,1.00
129.85,9.97,8.98,9.91,8.91,-8.94,-8.86,-9.97,1.04,0.98,1.00
131.15,9.89,8.90,9.89,8.89,-8.88,-8.82,-9.89,1.01,1.00,1.00
132.46,9.81,8.82,9.83,8.84,-8.83,-8.78,-9.80,0.98,1.00,1.00
133.79,9.75,8.77,9.75,8.76,-8.78,-8.74,-9.71,0.97,0.96,0.99
135.12,9.69,8.71,9.71,8.73,-8.74,-8.70,-9.61,0.95,0.97,0.99
136.48,9.68,8.70,9.69,8.71,-8.71,-8.66,-9.50,0.98,0.98,0.99
137.84,9.69,8.72,9.66,8.68,-8.67,-8.61,-9.38,1.03,0.99,0.98
139.22,9.60,8.63,9.62,8.64,-8.63,-8.57,-9.27,0.98,0.99,0.98
140.61,9.55,8.59,9.56,8.60,-8.59,-8.53,-9.14,0.97,0.97,0.97
142.02,9.49,8.54,9.50,8.54,-8.55,-8.49,-9.02,0.95,0.95,0.96
143.44,9.46,8.52,9.46,8.51,-8.50,-8.45,-8.89,0.96,0.95,0.95
144.87,9.39,8.45,9.41,8.46,-8.46,-8.41,-8.75,0.94,0.95,0.95
146.32,9.36,8.43,9.34,8.41,-8.41,-8.37,-8.62,0.96,0.93,0.94
147.78,9.26,8.35,9.27,8.35,-8.36,-8.33,-8.49,0.90,0.91,0.92
149.26,9.18,8.28,9.21,8.31,-8.31,-8.29,-8.36,0.87,0.90,0.91
150.75,9.16,8.27,9.16,8.26,-8.27,-8.25,-8.23,0.90,0.89,0.90
152.26,9.13,8.25,9.12,8.23,-8.22,-8.20,-8.10,0.91,0.89,0.89
153.78,9.06,8.18,9.07,8.19,-8.18,-8.16,-7.98,0.88,0.89,0.89
155.32,9.00,8.13,9.01,8.13,-8.13,-8.12,-7.86,0.87,0.87,0.88
156.88,8.95,8.09,8.95,8.08,-8.08,-8.07,-7.73,0.87,0.87,0.87
158.44,8.88,8.02,8.90,8.04,-8.03,-8.03,-7.62,0.85,0.87,0.87
160.03,8.86,8.01,8.85,7.99,-7.98,-7.99,-7.51,0.89,0.87,0.86
161.63,8.78,7.94,8.77,7.93,-7.92,-7.94,-7.40,0.87,0.85,0.85
163.24,8.69,7.86,8.70,7.86,-7.86,-7.90,-7.29,0.83,0.84,0.84
164.88,8.58,7.76,8.61,7.78,-7.80,-7.85,-7.20,0.78,0.81,0.83
166.53,8.55,7.74,8.54,7.72,-7.74,-7.80,-7.10,0.82,0.80,0.82
168.19,8.47,7.67,8.48,7.67,-7.67,-7.76,-7.01,0.80,0.80,0.81
169.87,8.43,7.64,8.43,7.63,-7.61,-7.71,-6.92,0.82,0.81,0.80
171.57,8.34,7.56,8.35,7.57,-7.55,-7.66,-6.84,0.79,0.80,0.79
173.29,8.29,7.52,8.27,7.50,-7.50,-7.61,-6.76,0.80,0.78,0.78
175.02,8.19,7.43,8.20,7.43,-7.45,-7.56,-6.69,0.75,0.75,0.77
176.77,8.11,7.35,8.14,7.38,-7.40,-7.51,-6.63,0.72,0.74,0.77
178.54,8.10,7.35,8.09,7.34,-7.35,-7.46,-6.57,0.76,0.75,0.76
180.32,8.07,7.32,8.06,7.30,-7.30,-7.41,-6.51,0.78,0.76,0.76
182.13,8.02,7.27,8.02,7.27,-7.25,-7.35,-6.46,0.77,0.77,0.76
183.95,7.96,7.21,7.97,7.22,-7.20,-7.30,-6.41,0.76,0.77,0.76
185.79,7.92,7.18,7.92,7.16,-7.16,-7.24,-6.37,0.76,0.75,0.75
187.65,7.86,7.11,7.86,7.11,-7.12,-7.19,-6.32,0.75,0.75,0.76
189.52,7.80,7.05,7.81,7.06,-7.07,-7.13,-6.29,0.73,0.74,0.76
191.42,7.77,7.02,7.77,7.01,-7.02,-7.08,-6.26,0.75,0.74,0.76
193.33,7.71,6.96,7.73,6.97,-6.97,-7.02,-6.24,0.74,0.76,0.76
195.27,7.70,6.94,7.69,6.92,-6.92,-6.96,-6.21,0.79,0.77,0.77
197.22,7.64,6.88,7.64,6.87,-6.86,-6.90,-6.19,0.78,0.78,0.77
199.19,7.56,6.80,7.58,6.82,-6.80,-6.84,-6.18,0.76,0.78,0.77
201.18,7.52,6.76,7.51,6.75,-6.74,-6.78,-6.17,0.78,0.77,0.77
203.19,7.44,6.68,7.44,6.67,-6.67,-6.72,-6.16,0.77,0.77,0.77
205.23,7.36,6.60,7.37,6.60,-6.60,-6.66,-6.15,0.76,0.76,0.77
207.28,7.28,6.52,7.29,6.53,-6.54,-6.59,-6.15,0.75,0.75,0.77
209.35,7.22,6.47,7.22,6.46,-6.47,-6.53,-6.14,0.76,0.75,0.76
211.44,7.15,6.40,7.16,6.40,-6.41,-6.47,-6.14,0.75,0.75,0.76
213.56,7.08,6.33,7.09,6.34,-6.35,-6.40,-6.14,0.74,0.74,0.76
215.69,7.04,6.30,7.03,6.28,-6.29,-6.34,-6.14,0.75,0.74,0.75
217.85,6.95,6.21,6.98,6.24,-6.23,-6.27,-6.14,0.72,0.75,0.75
220.03,6.93,6.20,6.92,6.19,-6.17,-6.20,-6.15,0.76,0.75,0.74
222.23,6.88,6.15,6.86,6.12,-6.11,-6.14,-6.14,0.77,0.75,0.74
224.45,6.77,6.04,6.80,6.07,-6.04,-6.07,-6.14,0.73,0.76,0.74
226.70,6.72,5.99,6.72,5.99,-5.98,-6.00,-6.14,0.75,0.74,0.74
228.96,6.66,5.93,6.64,5.90,-5.91,-5.94,-6.14,0.75,0.73,0.74
231.25,6.55,5.81,6.57,5.82,-5.84,-5.87,-6.13,0.71,0.72,0.75
233.57,6.48,5.74,6.50,5.76,-5.77,-5.80,-6.12,0.71,0.73,0.75
235.90,6.45,5.70,6.45,5.70,-5.70,-5.73,-6.10,0.75,0.75,0.76
238.26,6.43,5.68,6.41,5.65,-5.64,-5.66,-6.09,0.79,0.77,0.76
240.64,6.35,5.58,6.36,5.59,-5.58,-5.59,-6.06,0.77,0.78,0.78
243.05,6.30,5.52,6.31,5.52,-5.52,-5.52,-6.04,0.78,0.79,0.79
245.48,6.25,5.46,6.26,5.46,-5.47,-5.46,-6.00,0.79,0.79,0.80
247.93,6.22,5.42,6.22,5.41,-5.41,-5.39,-5.97,0.81,0.81,0.81
250.41,6.17,5.36,6.17,5.35,-5.35,-5.32,-5.92,0.82,0.82,0.82
252.92,6.11,5.29,6.12,5.30,-5.29,-5.25,-5.88,0.82,0.83,0.83
255.45,6.07,5.24,6.07,5.23,-5.24,-5.18,-5.82,0.84,0.83,0.84
258.00,6.01,5.18,6.02,5.18,-5.18,-5.11,-5.76,0.84,0.84,0.84
260.58,5.95,5.12,5.96,5.12,-5.12,-5.04,-5.70,0.83,0.84,0.84
263.19,5.90,5.07,5.89,5.06,-5.07,-4.97,-5.63,0.84,0.83,0.84
265.82,5.82,5.00,5.83,5.00,-5.01,-4.90,-5.56,0.82,0.83,0.83
268.48,5.76,4.94,5.77,4.94,-4.94,-4.83,-5.48,0.82,0.82,0.83
271.16,5.71,4.90,5.70,4.89,-4.88,-4.76,-5.40,0.83,0.82,0.82
273.87,5.62,4.82,5.63,4.82,-4.81,-4.70,-5.32,0.81,0.82,0.81
276.61,5.57,4.77,5.56,4.75,-4.74,-4.63,-5.23,0.83,0.81,0.81
279.38,5.46,4.66,5.48,4.68,-4.67,-4.56,-5.14,0.79,0.81,0.81
282.17,5.40,4.61,5.39,4.59,-4.60,-4.49,-5.04,0.80,0.79,0.80
284.99,5.31,4.52,5.31,4.52,-4.53,-4.42,-4.95,0.79,0.79,0.80
287.84,5.21,4.42,5.25,4.46,-4.45,-4.36,-4.85,0.76,0.80,0.80
290.72,5.21,4.43,5.17,4.38,-4.38,-4.29,-4.76,0.83,0.79,0.79
293.63,5.10,4.32,5.10,4.31,-4.31,-4.22,-4.66,0.79,0.79,0.79
296.57,5.00,4.22,5.03,4.24,-4.25,-4.16,-4.56,0.75,0.78,0.79
299.53,4.96,4.17,4.96,4.17,-4.19,-4.09,-4.46,0.77,0.77,0.80
302.53,4.92,4.13,4.92,4.13,-4.13,-4.03,-4.36,0.79,0.78,0.80
305.55,4.88,4.10,4.88,4.08,-4.08,-3.96,-4.26,0.81,0.80,0.79
308.61,4.81,4.03,4.82,4.04,-4.02,-3.89,-4.16,0.79,0.80,0.79
311.69,4.76,3.98,4.76,3.98,-3.97,-3.83,-4.07,0.79,0.79,0.79
314.81,4.70,3.93,4.70,3.92,-3.92,-3.77,-3.97,0.78,0.78,0.78
317.96,4.63,3.86,4.64,3.86,-3.87,-3.70,-3.88,0.76,0.77,0.78
321.14,4.58,3.81,4.58,3.81,-3.81,-3.64,-3.79,0.77,0.76,0.78
324.35,4.51,3.75,4.52,3.75,-3.75,-3.58,-3.70,0.76,0.77,0.77
327.59,4.45,3.70,4.45,3.69,-3.69,-3.51,-3.61,0.76,0.76,0.76
330.87,4.39,3.64,4.39,3.63,-3.62,-3.45,-3.52,0.77,0.77,0.76
334.18,4.30,3.55,4.32,3.56,-3.55,-3.39,-3.44,0.75,0.77,0.76
337.52,4.25,3.50,4.23,3.48,-3.48,-3.33,-3.35,0.78,0.76,0.76
340.90,4.13,3.39,4.15,3.40,-3.40,-3.27,-3.27,0.73,0.75,0.75
344.30,4.06,3.32,4.07,3.32,-3.32,-3.20,-3.19,0.74,0.74,0.75
347.75,3.99,3.25,3.97,3.23,-3.25,-3.14,-3.12,0.75,0.72,0.75
351.23,3.88,3.15,3.90,3.16,-3.17,-3.08,-3.04,0.72,0.73,0.74
354.74,3.80,3.07,3.83,3.09,-3.09,-3.03,-2.97,0.71,0.74,0.74
358.28,3.78,3.05,3.76,3.03,-3.02,-2.97,-2.90,0.77,0.75,0.74
361.87,3.70,2.97,3.69,2.96,-2.94,-2.91,-2.83,0.76,0.75,0.74
365.49,3.61,2.88,3.62,2.88,-2.88,-2.85,-2.77,0.74,0.74,0.74
369.14,3.52,2.79,3.54,2.80,-2.81,-2.79,-2.71,0.71,0.73,0.74
372.83,3.47,2.74,3.47,2.73,-2.75,-2.73,-2.65,0.72,0.72,0.74
376.56,3.42,2.69,3.41,2.68,-2.69,-2.68,-2.59,0.73,0.72,0.74
380.33,3.35,2.63,3.37,2.64,-2.63,-2.62,-2.53,0.72,0.73,0.73
384.13,3.31,2.59,3.31,2.58,-2.58,-2.57,-2.47,0.74,0.73,0.73
387.97,3.25,2.54,3.25,2.54,-2.53,-2.51,-2.42,0.73,0.72,0.72
391.85,3.18,2.48,3.19,2.48,-2.48,-2.45,-2.37,0.70,0.71,0.71
395.77,3.13,2.44,3.12,2.43,-2.43,-2.40,-2.32,0.70,0.69,0.70
399.73,3.05,2.37,3.06,2.37,-2.38,-2.34,-2.27,0.67,0.68,0.69
403.72,2.99,2.32,3.01,2.33,-2.33,-2.29,-2.22,0.67,0.68,0.68
407.76,2.94,2.29,2.94,2.28,-2.27,-2.24,-2.18,0.68,0.67,0.66
411.84,2.89,2.25,2.87,2.22,-2.21,-2.18,-2.13,0.68,0.66,0.65
415.96,2.77,2.14,2.79,2.16,-2.15,-2.13,-2.09,0.62,0.64,0.64
420.12,2.70,2.08,2.71,2.08,-2.09,-2.08,-2.05,0.61,0.61,0.63
424.32,2.64,2.02,2.64,2.01,-2.03,-2.02,-2.00,0.61,0.61,0.63
428.56,2.58,1.96,2.59,1.96,-1.96,-1.97,-1.96,0.62,0.63,0.63
432.85,2.55,1.92,2.55,1.91,-1.90,-1.92,-1.92,0.66,0.65,0.64
437.18,2.50,1.85,2.51,1.85,-1.83,-1.87,-1.88,0.67,0.67,0.66
441.55,2.46,1.79,2.46,1.78,-1.77,-1.82,-1.85,0.69,0.68,0.68
445.96,2.42,1.72,2.41,1.70,-1.72,-1.76,-1.81,0.71,0.69,0.71
450.42,2.35,1.61,2.39,1.64,-1.66,-1.71,-1.77,0.69,0.72,0.75
