frequency,raw,error,smoothed,error_smoothed,equalization,parametric_eq,fixed_band_eq,equalized_raw,equalized_smoothed,target
20.00,1.64,0.05,1.65,0.05,-0.02,-0.50,-0.41,1.62,1.62,1.60
20.20,1.65,0.02,1.65,0.02,-0.01,-0.51,-0.42,1.65,1.65,1.64
20.40,1.67,-0.00,1.67,-0.01,0.00,-0.52,-0.43,1.68,1.67,1.68
20.61,1.68,-0.01,1.68,-0.02,0.01,-0.53,-0.44,1.69,1.69,1.69
20.81,1.70,-0.03,1.70,-0.04,0.01,-0.54,-0.45,1.71,1.71,1.74
21.02,1.71,-0.06,1.73,-0.04,0.00,-0.55,-0.47,1.72,1.73,1.77
21.23,1.77,-0.01,1.77,-0.02,-0.01,-0.56,-0.48,1.77,1.76,1.78
21.44,1.83,0.02,1.82,0.02,-0.02,-0.57,-0.49,1.80,1.80,1.80
21.66,1.87,0.06,1.88,0.07,-0.05,-0.58,-0.51,1.82,1.83,1.81
21.87,1.93,0.11,1.92,0.10,-0.09,-0.59,-0.52,1.84,1.84,1.81
22.09,1.96,0.14,1.96,0.14,-0.12,-0.60,-0.54,1.84,1.84,1.82
22.31,1.98,0.16,1.99,0.16,-0.16,-0.62,-0.55,1.83,1.83,1.82
22.54,2.00,0.18,2.01,0.19,-0.19,-0.63,-0.57,1.81,1.82,1.82
22.76,2.03,0.22,2.03,0.22,-0.23,-0.64,-0.58,1.81,1.80,1.81
22.99,2.05,0.25,2.06,0.25,-0.26,-0.65,-0.60,1.80,1.80,1.80
23.22,2.08,0.28,2.08,0.29,-0.28,-0.66,-0.62,1.80,1.80,1.80
23.45,2.11,0.32,2.11,0.32,-0.32,-0.68,-0.63,1.80,1.80,1.79
23.69,2.14,0.35,2.14,0.35,-0.35,-0.69,-0.65,1.80,1.80,1.79
23.92,2.17,0.38,2.17,0.38,-0.38,-0.70,-0.67,1.79,1.79,1.79
24.16,2.20,0.40,2.21,0.41,-0.42,-0.72,-0.69,1.79,1.79,1.80
24.40,2.25,0.45,2.24,0.45,-0.45,-0.73,-0.71,1.79,1.79,1.80
24.65,2.28,0.49,2.28,0.49,-0.49,-0.74,-0.72,1.79,1.79,1.79
24.89,2.32,0.53,2.32,0.53,-0.53,-0.76,-0.74,1.79,1.79,1.79
25.14,2.35,0.57,2.35,0.56,-0.56,-0.77,-0.76,1.79,1.79,1.79
25.39,2.39,0.60,2.38,0.60,-0.60,-0.79,-0.78,1.79,1.78,1.79
25.65,2.41,0.64,2.42,0.64,-0.64,-0.80,-0.80,1.78,1.78,1.78
25.91,2.44,0.68,2.44,0.67,-0.67,-0.82,-0.82,1.77,1.77,1.77
26.16,2.47,0.71,2.47,0.70,-0.70,-0.83,-0.84,1.77,1.77,1.77
26.43,2.49,0.73,2.50,0.73,-0.73,-0.85,-0.87,1.76,1.77,1.77
26.69,2.52,0.76,2.52,0.76,-0.76,-0.86,-0.89,1.76,1.76,1.76
26.96,2.55,0.80,2.55,0.79,-0.80,-0.88,-0.91,1.76,1.75,1.75
27.23,2.57,0.82,2.58,0.82,-0.83,-0.90,-0.93,1.75,1.75,1.75
27.50,2.60,0.85,2.61,0.86,-0.86,-0.91,-0.95,1.74,1.74,1.75
27.77,2.63,0.89,2.63,0.89,-0.89,-0.93,-0.97,1.74,1.74,1.74
28.05,2.66,0.92,2.66,0.92,-0.92,-0.95,-0.99,1.74,1.74,1.74
28.33,2.68,0.95,2.69,0.96,-0.95,-0.96,-1.01,1.74,1.74,1.73
28.62,2.71,0.98,2.72,0.99,-0.97,-0.98,-1.03,1.74,1.75,1.73
28.90,2.74,1.02,2.74,1.01,-0.99,-1.00,-1.05,1.75,1.75,1.73
29.19,2.76,1.04,2.76,1.03,-1.02,-1.02,-1.07,1.75,1.74,1.73
29.48,2.76,1.03,2.77,1.03,-1.05,-1.04,-1.09,1.72,1.72,1.74
29.78,2.77,1.05,2.78,1.05,-1.08,-1.05,-1.11,1.70,1.70,1.73
30.08,2.79,1.06,2.80,1.07,-1.11,-1.07,-1.13,1.69,1.69,1.73
30.38,2.84,1.13,2.85,1.13,-1.14,-1.09,-1.15,1.70,1.71,1.71
30.68,2.90,1.19,2.90,1.19,-1.17,-1.11,-1.16,1.74,1.73,1.71
30.99,2.95,1.25,2.94,1.23,-1.20,-1.13,-1.18,1.76,1.74,1.70
31.30,2.95,1.25,2.96,1.26,-1.23,-1.15,-1.20,1.73,1.73,1.70
31.61,2.95,1.26,2.96,1.27,-1.25,-1.17,-1.21,1.70,1.70,1.70
31.93,2.95,1.28,2.96,1.27,-1.28,-1.19,-1.23,1.67,1.67,1.68
32.24,2.96,1.30,2.96,1.29,-1.31,-1.22,-1.24,1.65,1.65,1.67
32.57,2.97,1.31,2.97,1.32,-1.34,-1.24,-1.26,1.63,1.63,1.66
32.89,2.99,1.34,3.00,1.35,-1.37,-1.26,-1.27,1.62,1.63,1.65
33.22,3.03,1.40,3.04,1.40,-1.41,-1.28,-1.29,1.63,1.63,1.63
33.55,3.09,1.45,3.09,1.46,-1.45,-1.30,-1.30,1.64,1.64,1.63
33.89,3.13,1.53,3.13,1.51,-1.49,-1.33,-1.32,1.65,1.64,1.61
34.23,3.15,1.55,3.15,1.55,-1.52,-1.35,-1.33,1.63,1.63,1.61
34.57,3.15,1.57,3.16,1.57,-1.56,-1.37,-1.34,1.60,1.60,1.59
34.92,3.15,1.58,3.16,1.58,-1.59,-1.40,-1.36,1.57,1.57,1.57
35.27,3.16,1.59,3.17,1.60,-1.62,-1.42,-1.37,1.55,1.55,1.57
35.62,3.18,1.63,3.18,1.63,-1.64,-1.45,-1.38,1.54,1.54,1.55
35.97,3.20,1.67,3.20,1.66,-1.67,-1.47,-1.40,1.54,1.54,1.54
36.33,3.22,1.69,3.22,1.69,-1.69,-1.50,-1.41,1.53,1.53,1.54
36.70,3.24,1.72,3.24,1.72,-1.72,-1.52,-1.43,1.52,1.52,1.52
37.06,3.26,1.75,3.27,1.75,-1.75,-1.55,-1.44,1.51,1.52,1.51
37.43,3.30,1.78,3.30,1.79,-1.78,-1.57,-1.46,1.51,1.52,1.52
37.81,3.33,1.83,3.33,1.82,-1.81,-1.60,-1.48,1.52,1.52,1.51
38.19,3.35,1.86,3.35,1.85,-1.84,-1.63,-1.49,1.51,1.51,1.49
38.57,3.35,1.85,3.36,1.86,-1.87,-1.65,-1.51,1.49,1.49,1.50
38.95,3.35,1.87,3.37,1.88,-1.89,-1.68,-1.53,1.46,1.47,1.49
39.34,3.38,1.90,3.39,1.91,-1.92,-1.71,-1.55,1.47,1.47,1.48
39.74,3.42,1.95,3.42,1.95,-1.94,-1.74,-1.57,1.49,1.48,1.47
40.14,3.45,1.99,3.45,1.98,-1.95,-1.77,-1.60,1.50,1.49,1.47
40.54,3.45,1.99,3.46,1.99,-1.97,-1.80,-1.62,1.48,1.48,1.46
40.94,3.45,1.99,3.46,2.00,-2.00,-1.82,-1.64,1.46,1.46,1.46
41.35,3.45,2.01,3.45,2.00,-2.02,-1.85,-1.67,1.43,1.43,1.45
41.76,3.45,2.02,3.46,2.02,-2.04,-1.88,-1.70,1.41,1.42,1.43
42.18,3.47,2.05,3.49,2.06,-2.07,-1.91,-1.72,1.41,1.42,1.43
42.60,3.52,2.11,3.52,2.10,-2.10,-1.94,-1.75,1.42,1.42,1.42
43.03,3.56,2.15,3.55,2.14,-2.14,-1.97,-1.78,1.43,1.41,1.41
43.46,3.56,2.18,3.56,2.18,-2.18,-2.00,-1.82,1.39,1.39,1.39
43.90,3.56,2.20,3.58,2.21,-2.22,-2.04,-1.85,1.34,1.36,1.36
44.33,3.59,2.25,3.60,2.26,-2.26,-2.07,-1.88,1.33,1.34,1.35
44.78,3.64,2.32,3.63,2.31,-2.30,-2.10,-1.92,1.34,1.33,1.32
45.23,3.66,2.36,3.66,2.35,-2.33,-2.13,-1.96,1.33,1.33,1.31
45.68,3.66,2.37,3.67,2.38,-2.35,-2.16,-2.00,1.31,1.31,1.29
46.13,3.66,2.39,3.67,2.39,-2.37,-2.20,-2.04,1.29,1.30,1.28
46.60,3.66,2.39,3.66,2.39,-2.38,-2.23,-2.08,1.28,1.28,1.27
47.06,3.66,2.40,3.66,2.40,-2.40,-2.26,-2.12,1.27,1.27,1.27
47.53,3.66,2.40,3.67,2.41,-2.41,-2.29,-2.17,1.25,1.25,1.26
48.01,3.66,2.41,3.66,2.41,-2.43,-2.33,-2.21,1.23,1.22,1.25
48.49,3.66,2.43,3.66,2.42,-2.46,-2.36,-2.26,1.20,1.19,1.24
48.97,3.65,2.44,3.69,2.47,-2.50,-2.39,-2.30,1.16,1.19,1.22
49.46,3.73,2.52,3.74,2.53,-2.53,-2.43,-2.35,1.20,1.20,1.21
49.96,3.82,2.63,3.80,2.59,-2.57,-2.46,-2.40,1.25,1.23,1.20
50.46,3.84,2.64,3.85,2.65,-2.61,-2.50,-2.45,1.24,1.24,1.21
50.96,3.86,2.66,3.87,2.67,-2.64,-2.53,-2.50,1.23,1.23,1.20
51.47,3.86,2.67,3.87,2.67,-2.66,-2.56,-2.55,1.20,1.20,1.19
51.99,3.86,2.68,3.87,2.68,-2.68,-2.60,-2.61,1.18,1.18,1.18
52.51,3.86,2.68,3.86,2.68,-2.69,-2.63,-2.66,1.17,1.17,1.18
53.03,3.86,2.68,3.86,2.68,-2.69,-2.67,-2.71,1.17,1.17,1.19
53.56,3.86,2.69,3.86,2.69,-2.69,-2.70,-2.76,1.17,1.17,1.18
54.10,3.86,2.70,3.86,2.69,-2.69,-2.74,-2.81,1.17,1.17,1.17
54.64,3.86,2.70,3.86,2.70,-2.70,-2.77,-2.87,1.17,1.17,1.17
55.18,3.86,2.71,3.86,2.71,-2.71,-2.81,-2.92,1.16,1.16,1.16
55.74,3.86,2.72,3.86,2.71,-2.72,-2.84,-2.96,1.15,1.14,1.14
56.29,3.86,2.72,3.86,2.73,-2.74,-2.87,-3.01,1.13,1.12,1.14
56.86,3.86,2.74,3.87,2.75,-2.76,-2.91,-3.06,1.10,1.11,1.12
57.42,3.88,2.77,3.89,2.78,-2.79,-2.94,-3.10,1.10,1.10,1.11
58.00,3.91,2.82,3.92,2.82,-2.81,-2.98,-3.15,1.10,1.10,1.10
58.58,3.94,2.86,3.94,2.86,-2.84,-3.01,-3.19,1.10,1.10,1.08
59.16,3.97,2.90,3.96,2.89,-2.88,-3.05,-3.23,1.10,1.08,1.07
59.76,3.96,2.92,3.97,2.92,-2.91,-3.08,-3.26,1.05,1.06,1.05
60.35,3.96,2.94,3.97,2.94,-2.95,-3.11,-3.30,1.02,1.02,1.02
60.96,3.96,2.97,3.96,2.97,-2.98,-3.15,-3.33,0.98,0.98,1.00
61.57,3.96,3.01,3.96,3.01,-3.01,-3.18,-3.36,0.95,0.95,0.95
62.18,3.96,3.05,3.96,3.04,-3.05,-3.21,-3.38,0.92,0.92,0.92
62.80,3.96,3.08,3.96,3.08,-3.08,-3.25,-3.41,0.88,0.88,0.88
63.43,3.96,3.12,3.96,3.12,-3.11,-3.28,-3.43,0.85,0.85,0.85
64.07,3.96,3.15,3.96,3.15,-3.15,-3.31,-3.44,0.81,0.81,0.81
64.71,3.96,3.19,3.96,3.19,-3.19,-3.34,-3.46,0.78,0.78,0.77
65.35,3.96,3.22,3.96,3.22,-3.22,-3.37,-3.47,0.74,0.74,0.74
66.01,3.96,3.26,3.96,3.26,-3.26,-3.40,-3.48,0.70,0.70,0.71
66.67,3.96,3.30,3.96,3.29,-3.30,-3.44,-3.49,0.67,0.67,0.67
67.33,3.96,3.33,3.96,3.33,-3.33,-3.47,-3.50,0.63,0.63,0.64
68.01,3.96,3.37,3.96,3.37,-3.37,-3.50,-3.50,0.60,0.60,0.60
68.69,3.96,3.41,3.96,3.41,-3.41,-3.53,-3.50,0.56,0.56,0.56
69.37,3.96,3.45,3.96,3.45,-3.45,-3.55,-3.50,0.51,0.51,0.51
70.07,3.96,3.49,3.96,3.49,-3.50,-3.58,-3.51,0.47,0.47,0.47
70.77,3.96,3.52,3.96,3.53,-3.54,-3.61,-3.51,0.43,0.43,0.44
71.48,3.96,3.57,3.96,3.57,-3.57,-3.64,-3.51,0.39,0.39,0.40
72.19,3.96,3.61,3.97,3.62,-3.60,-3.67,-3.51,0.36,0.36,0.35
72.91,3.96,3.66,3.97,3.67,-3.63,-3.69,-3.51,0.33,0.34,0.30
73.64,3.96,3.71,3.94,3.69,-3.66,-3.72,-3.51,0.30,0.28,0.25
74.38,3.91,3.71,3.90,3.69,-3.69,-3.75,-3.51,0.23,0.21,0.21
75.12,3.82,3.66,3.86,3.69,-3.72,-3.77,-3.51,0.11,0.14,0.16
75.87,3.82,3.70,3.83,3.71,-3.74,-3.80,-3.51,0.08,0.09,0.13
76.63,3.85,3.76,3.84,3.75,-3.77,-3.82,-3.52,0.08,0.07,0.09
77.40,3.86,3.81,3.86,3.81,-3.80,-3.85,-3.53,0.06,0.06,0.05
78.17,3.86,3.85,3.87,3.85,-3.83,-3.87,-3.53,0.03,0.04,0.01
78.95,3.86,3.88,3.87,3.88,-3.87,-3.89,-3.54,-0.00,-0.00,-0.02
79.74,3.86,3.91,3.86,3.91,-3.90,-3.91,-3.56,-0.04,-0.04,-0.04
80.54,3.86,3.94,3.86,3.94,-3.94,-3.94,-3.57,-0.08,-0.08,-0.08
81.35,3.86,3.97,3.86,3.97,-3.98,-3.96,-3.59,-0.12,-0.12,-0.11
82.16,3.86,4.00,3.86,4.00,-4.01,-3.98,-3.61,-0.14,-0.14,-0.14
82.98,3.86,4.02,3.86,4.03,-4.03,-4.00,-3.63,-0.17,-0.17,-0.16
83.81,3.86,4.07,3.87,4.06,-4.06,-4.02,-3.65,-0.20,-0.19,-0.20
84.65,3.86,4.10,3.87,4.10,-4.09,-4.04,-3.68,-0.22,-0.22,-0.23
85.50,3.86,4.12,3.87,4.13,-4.11,-4.06,-3.71,-0.25,-0.25,-0.26
86.35,3.85,4.15,3.82,4.12,-4.13,-4.08,-3.74,-0.28,-0.31,-0.29
87.22,3.79,4.12,3.79,4.12,-4.14,-4.10,-3.78,-0.34,-0.35,-0.33
88.09,3.71,4.08,3.79,4.15,-4.14,-4.11,-3.82,-0.42,-0.34,-0.36
88.97,3.81,4.20,3.78,4.17,-4.13,-4.13,-3.86,-0.32,-0.35,-0.39
89.86,3.82,4.25,3.74,4.16,-4.12,-4.15,-3.91,-0.30,-0.38,-0.42
90.76,3.64,4.09,3.67,4.13,-4.12,-4.17,-3.95,-0.48,-0.44,-0.46
91.66,3.53,4.02,3.58,4.07,-4.11,-4.18,-4.00,-0.58,-0.53,-0.48
92.58,3.54,4.07,3.53,4.05,-4.12,-4.20,-4.06,-0.57,-0.58,-0.52
93.51,3.56,4.11,3.55,4.09,-4.12,-4.22,-4.12,-0.56,-0.58,-0.55
94.44,3.56,4.14,3.57,4.14,-4.13,-4.23,-4.17,-0.57,-0.57,-0.58
95.39,3.56,4.17,3.57,4.17,-4.15,-4.25,-4.24,-0.58,-0.58,-0.60
96.34,3.56,4.21,3.56,4.20,-4.18,-4.27,-4.30,-0.61,-0.61,-0.64
97.30,3.55,4.23,3.55,4.22,-4.21,-4.28,-4.37,-0.66,-0.66,-0.67
98.28,3.54,4.24,3.54,4.24,-4.25,-4.30,-4.44,-0.70,-0.70,-0.70
99.26,3.53,4.25,3.55,4.27,-4.28,-4.32,-4.51,-0.75,-0.73,-0.72
100.25,3.56,4.31,3.56,4.31,-4.32,-4.33,-4.58,-0.75,-0.75,-0.75
101.25,3.59,4.37,3.58,4.36,-4.36,-4.35,-4.66,-0.76,-0.78,-0.78
102.27,3.58,4.39,3.59,4.40,-4.40,-4.36,-4.73,-0.82,-0.82,-0.81
103.29,3.59,4.45,3.59,4.44,-4.45,-4.38,-4.81,-0.86,-0.86,-0.86
104.32,3.59,4.47,3.61,4.49,-4.50,-4.40,-4.88,-0.91,-0.89,-0.87
105.37,3.63,4.55,3.65,4.56,-4.55,-4.41,-4.96,-0.92,-0.91,-0.91
106.42,3.70,4.65,3.67,4.62,-4.60,-4.43,-5.04,-0.90,-0.93,-0.94
107.48,3.68,4.67,3.68,4.67,-4.64,-4.45,-5.11,-0.96,-0.96,-0.98
108.56,3.65,4.68,3.66,4.69,-4.68,-4.46,-5.19,-1.02,-1.01,-1.02
109.64,3.63,4.70,3.63,4.69,-4.70,-4.48,-5.26,-1.07,-1.07,-1.06
110.74,3.61,4.70,3.63,4.73,-4.72,-4.50,-5.33,-1.11,-1.09,-1.09
111.85,3.62,4.74,3.62,4.75,-4.74,-4.52,-5.40,-1.11,-1.11,-1.12
112.97,3.63,4.80,3.59,4.75,-4.75,-4.54,-5.46,-1.11,-1.16,-1.17
114.10,3.53,4.72,3.55,4.74,-4.76,-4.55,-5.52,-1.22,-1.21,-1.19
115.24,3.48,4.71,3.51,4.74,-4.76,-4.57,-5.57,-1.28,-1.25,-1.22
116.39,3.49,4.75,3.49,4.74,-4.76,-4.59,-5.62,-1.27,-1.27,-1.25
117.55,3.50,4.78,3.50,4.78,-4.76,-4.61,-5.66,-1.26,-1.26,-1.28
118.73,3.49,4.80,3.48,4.78,-4.75,-4.63,-5.70,-1.26,-1.27,-1.31
119.92,3.44,4.76,3.44,4.76,-4.74,-4.65,-5.73,-1.30,-1.30,-1.31
121.12,3.37,4.72,3.39,4.73,-4.73,-4.67,-5.75,-1.35,-1.34,-1.34
122.33,3.33,4.69,3.35,4.70,-4.71,-4.69,-5.76,-1.37,-1.36,-1.36
123.55,3.32,4.69,3.32,4.69,-4.68,-4.72,-5.77,-1.35,-1.36,-1.36
124.79,3.29,4.68,3.28,4.67,-4.65,-4.74,-5.76,-1.36,-1.37,-1.39
126.03,3.23,4.64,3.24,4.64,-4.63,-4.76,-5.75,-1.40,-1.40,-1.40
127.29,3.18,4.60,3.19,4.61,-4.63,-4.78,-5.73,-1.44,-1.44,-1.42
128.57,3.15,4.60,3.16,4.60,-4.64,-4.80,-5.71,-1.48,-1.48,-1.44
129.85,3.15,4.61,3.16,4.62,-4.66,-4.82,-5.67,-1.51,-1.50,-1.46
131.15,3.20,4.67,3.20,4.67,-4.69,-4.84,-5.63,-1.49,-1.50,-1.47
132.46,3.24,4.73,3.26,4.74,-4.73,-4.87,-5.58,-1.49,-1.48,-1.48
133.79,3.32,4.81,3.32,4.81,-4.78,-4.89,-5.52,-1.46,-1.46,-1.48
135.12,3.37,4.89,3.36,4.86,-4.83,-4.91,-5.46,-1.45,-1.47,-1.52
136.48,3.37,4.89,3.38,4.90,-4.87,-4.93,-5.39,-1.50,-1.49,-1.52
137.84,3.37,4.91,3.38,4.93,-4.91,-4.95,-5.32,-1.54,-1.53,-1.54
139.22,3.38,4.95,3.38,4.94,-4.95,-4.97,-5.24,-1.56,-1.56,-1.57
140.61,3.38,4.97,3.38,4.96,-4.97,-4.99,-5.15,-1.58,-1.58,-1.59
142.02,3.38,4.97,3.39,4.98,-4.99,-5.01,-5.07,-1.60,-1.60,-1.58
143.44,3.38,4.99,3.38,4.99,-5.00,-5.02,-4.98,-1.62,-1.62,-1.60
144.87,3.38,5.01,3.39,5.01,-5.02,-5.04,-4.89,-1.63,-1.63,-1.63
146.32,3.38,5.04,3.39,5.04,-5.03,-5.06,-4.79,-1.65,-1.65,-1.66
147.78,3.38,5.07,3.37,5.06,-5.06,-5.07,-4.70,-1.67,-1.68,-1.68
149.26,3.35,5.07,3.34,5.07,-5.08,-5.08,-4.60,-1.73,-1.74,-1.72
150.75,3.29,5.07,3.32,5.09,-5.10,-5.09,-4.51,-1.81,-1.79,-1.77
152.26,3.28,5.10,3.29,5.11,-5.13,-5.10,-4.41,-1.84,-1.84,-1.82
153.78,3.28,5.16,3.26,5.14,-5.15,-5.11,-4.32,-1.86,-1.88,-1.87
155.32,3.21,5.15,3.23,5.16,-5.15,-5.11,-4.22,-1.94,-1.92,-1.93
156.88,3.18,5.17,3.17,5.16,-5.14,-5.11,-4.13,-1.96,-1.97,-1.99
158.44,3.07,5.13,3.09,5.14,-5.11,-5.11,-4.04,-2.03,-2.02,-2.06
160.03,2.98,5.10,2.99,5.11,-5.05,-5.11,-3.95,-2.07,-2.06,-2.12
161.63,2.87,5.05,2.86,5.03,-4.98,-5.10,-3.86,-2.11,-2.13,-2.17
163.24,2.71,4.95,2.70,4.93,-4.90,-5.09,-3.77,-2.19,-2.19,-2.23
164.88,2.52,4.79,2.54,4.81,-4.82,-5.07,-3.69,-2.29,-2.27,-2.26
166.53,2.38,4.68,2.38,4.68,-4.74,-5.06,-3.61,-2.36,-2.36,-2.30
168.19,2.27,4.60,2.27,4.60,-4.68,-5.04,-3.53,-2.41,-2.41,-2.33
169.87,2.17,4.53,2.22,4.57,-4.63,-5.01,-3.45,-2.46,-2.42,-2.36
171.57,2.22,4.60,2.21,4.58,-4.60,-4.99,-3.37,-2.38,-2.40,-2.37
173.29,2.24,4.63,2.22,4.61,-4.59,-4.95,-3.30,-2.35,-2.37,-2.38
175.02,2.23,4.62,2.24,4.63,-4.59,-4.92,-3.23,-2.36,-2.35,-2.39
176.77,2.23,4.63,2.24,4.63,-4.60,-4.88,-3.16,-2.36,-2.36,-2.39
178.54,2.23,4.63,2.24,4.63,-4.61,-4.84,-3.10,-2.37,-2.37,-2.40
180.32,2.23,4.62,2.22,4.61,-4.61,-4.79,-3.03,-2.38,-2.39,-2.39
182.13,2.20,4.58,2.19,4.57,-4.59,-4.74,-2.97,-2.39,-2.41,-2.38
183.95,2.13,4.52,2.18,4.56,-4.57,-4.68,-2.92,-2.43,-2.39,-2.38
185.79,2.14,4.53,2.16,4.55,-4.53,-4.62,-2.86,-2.39,-2.37,-2.39
187.65,2.17,4.58,2.12,4.51,-4.49,-4.56,-2.81,-2.32,-2.37,-2.40
189.52,2.05,4.46,2.05,4.46,-4.45,-4.49,-2.76,-2.40,-2.40,-2.40
191.42,1.93,4.35,1.97,4.38,-4.40,-4.42,-2.71,-2.47,-2.44,-2.42
193.33,1.87,4.30,1.88,4.31,-4.35,-4.35,-2.66,-2.47,-2.46,-2.43
195.27,1.84,4.28,1.83,4.27,-4.28,-4.27,-2.61,-2.44,-2.45,-2.44
197.22,1.78,4.25,1.78,4.24,-4.21,-4.19,-2.57,-2.43,-2.43,-2.46
199.19,1.69,4.18,1.70,4.18,-4.14,-4.10,-2.53,-2.45,-2.44,-2.48
201.18,1.60,4.10,1.59,4.08,-4.07,-4.02,-2.49,-2.47,-2.49,-2.49
203.19,1.46,3.97,1.46,3.97,-4.00,-3.93,-2.45,-2.54,-2.54,-2.50
205.23,1.33,3.87,1.36,3.89,-3.93,-3.83,-2.41,-2.59,-2.56,-2.53
207.28,1.27,3.81,1.29,3.83,-3.85,-3.74,-2.38,-2.57,-2.56,-2.53
209.35,1.24,3.81,1.22,3.78,-3.76,-3.64,-2.34,-2.52,-2.54,-2.56
211.44,1.15,3.74,1.14,3.71,-3.68,-3.54,-2.31,-2.52,-2.54,-2.58
213.56,1.00,3.59,1.01,3.60,-3.59,-3.44,-2.27,-2.58,-2.57,-2.59
215.69,0.88,3.48,0.88,3.48,-3.49,-3.33,-2.24,-2.61,-2.62,-2.60
217.85,0.73,3.34,0.76,3.38,-3.39,-3.22,-2.20,-2.66,-2.63,-2.61
220.03,0.67,3.30,0.68,3.30,-3.28,-3.12,-2.17,-2.61,-2.61,-2.62
222.23,0.59,3.23,0.56,3.19,-3.17,-3.00,-2.13,-2.57,-2.60,-2.63
224.45,0.46,3.08,0.44,3.06,-3.05,-2.89,-2.10,-2.59,-2.62,-2.62
226.70,0.25,2.87,0.30,2.92,-2.94,-2.78,-2.06,-2.68,-2.64,-2.61
228.96,0.16,2.78,0.18,2.79,-2.82,-2.66,-2.03,-2.66,-2.64,-2.61
231.25,0.11,2.71,0.09,2.69,-2.71,-2.55,-1.99,-2.59,-2.62,-2.60
233.57,0.02,2.61,0.01,2.60,-2.59,-2.43,-1.95,-2.56,-2.57,-2.58
235.90,-0.11,2.46,-0.09,2.48,-2.46,-2.31,-1.91,-2.56,-2.54,-2.57
238.26,-0.20,2.35,-0.20,2.34,-2.33,-2.20,-1.87,-2.52,-2.53,-2.55
240.64,-0.31,2.22,-0.31,2.20,-2.19,-2.08,-1.82,-2.50,-2.51,-2.52
243.05,-0.44,2.05,-0.42,2.07,-2.05,-1.95,-1.77,-2.49,-2.47,-2.49
245.48,-0.54,1.93,-0.53,1.93,-1.92,-1.83,-1.72,-2.45,-2.45,-2.46
247.93,-0.65,1.79,-0.67,1.76,-1.78,-1.71,-1.67,-2.43,-2.46,-2.44
250.41,-0.80,1.63,-0.81,1.61,-1.65,-1.59,-1.62,-2.45,-2.46,-2.42
252.92,-0.98,1.41,-0.91,1.47,-1.53,-1.46,-1.56,-2.50,-2.44,-2.39
255.45,-0.99,1.38,-1.00,1.37,-1.40,-1.34,-1.50,-2.39,-2.40,-2.36
258.00,-1.04,1.31,-1.07,1.28,-1.27,-1.22,-1.44,-2.31,-2.34,-2.34
260.58,-1.15,1.18,-1.13,1.19,-1.13,-1.09,-1.38,-2.28,-2.27,-2.33
263.19,-1.26,1.05,-1.25,1.06,-0.99,-0.97,-1.31,-2.25,-2.25,-2.30
265.82,-1.39,0.90,-1.41,0.88,-0.85,-0.84,-1.24,-2.23,-2.25,-2.29
268.48,-1.58,0.69,-1.58,0.68,-0.69,-0.71,-1.17,-2.26,-2.27,-2.26
271.16,-1.79,0.45,-1.77,0.47,-0.51,-0.59,-1.09,-2.30,-2.28,-2.23
273.87,-1.95,0.27,-1.93,0.29,-0.32,-0.46,-1.02,-2.26,-2.24,-2.22
276.61,-2.07,0.12,-2.06,0.13,-0.11,-0.33,-0.94,-2.18,-2.18,-2.19
279.38,-2.19,-0.02,-2.22,-0.06,0.09,-0.20,-0.86,-2.09,-2.13,-2.16
282.17,-2.41,-0.26,-2.42,-0.28,0.29,-0.07,-0.77,-2.11,-2.13,-2.15
284.99,-2.66,-0.55,-2.62,-0.51,0.49,0.05,-0.69,-2.17,-2.13,-2.11
287.84,-2.83,-0.74,-2.80,-0.72,0.69,0.18,-0.60,-2.14,-2.12,-2.08
290.72,-2.92,-0.87,-2.95,-0.90,0.89,0.31,-0.51,-2.03,-2.06,-2.05
293.63,-3.09,-1.07,-3.08,-1.06,1.09,0.44,-0.42,-1.99,-1.99,-2.02
296.57,-3.22,-1.24,-3.22,-1.24,1.28,0.57,-0.33,-1.93,-1.94,-1.98
299.53,-3.40,-1.43,-3.39,-1.43,1.45,0.70,-0.24,-1.95,-1.94,-1.96
302.53,-3.54,-1.60,-3.56,-1.63,1.59,0.83,-0.14,-1.95,-1.97,-1.93
305.55,-3.71,-1.81,-3.70,-1.79,1.72,0.97,-0.05,-1.99,-1.98,-1.90
308.61,-3.85,-1.97,-3.79,-1.91,1.84,1.10,0.05,-2.01,-1.95,-1.88
311.69,-3.79,-1.92,-3.82,-1.97,1.95,1.23,0.15,-1.84,-1.87,-1.86
314.81,-3.84,-2.01,-3.81,-1.98,2.05,1.36,0.25,-1.78,-1.76,-1.82
317.96,-3.82,-2.00,-3.85,-2.03,2.15,1.49,0.35,-1.67,-1.70,-1.82
321.14,-3.93,-2.13,-3.98,-2.18,2.22,1.62,0.45,-1.70,-1.76,-1.80
324.35,-4.15,-2.36,-4.12,-2.33,2.29,1.75,0.55,-1.85,-1.83,-1.79
327.59,-4.30,-2.53,-4.19,-2.42,2.35,1.87,0.66,-1.94,-1.84,-1.77
330.87,-4.23,-2.46,-4.26,-2.50,2.41,2.00,0.76,-1.81,-1.85,-1.76
334.18,-4.16,-2.40,-4.29,-2.54,2.49,2.13,0.87,-1.66,-1.80,-1.75
337.52,-4.44,-2.69,-4.31,-2.56,2.59,2.25,0.98,-1.84,-1.71,-1.74
340.90,-4.38,-2.65,-4.34,-2.61,2.70,2.38,1.09,-1.68,-1.64,-1.73
344.30,-4.34,-2.62,-4.40,-2.69,2.80,2.50,1.20,-1.53,-1.60,-1.72
347.75,-4.45,-2.74,-4.50,-2.79,2.90,2.62,1.31,-1.54,-1.60,-1.71
351.23,-4.75,-3.04,-4.73,-3.03,3.02,2.74,1.42,-1.73,-1.72,-1.70
354.74,-5.01,-3.30,-4.98,-3.28,3.14,2.85,1.54,-1.86,-1.84,-1.70
358.28,-5.16,-3.46,-5.09,-3.39,3.27,2.97,1.65,-1.88,-1.82,-1.69
361.87,-5.14,-3.44,-5.09,-3.40,3.39,3.08,1.77,-1.75,-1.70,-1.69
365.49,-4.96,-3.27,-5.10,-3.41,3.49,3.18,1.88,-1.47,-1.61,-1.68
369.14,-5.17,-3.48,-5.19,-3.50,3.57,3.29,2.00,-1.60,-1.62,-1.69
372.83,-5.39,-3.70,-5.33,-3.65,3.63,3.38,2.12,-1.76,-1.70,-1.69
376.56,-5.49,-3.80,-5.40,-3.71,3.66,3.48,2.24,-1.82,-1.73,-1.69
380.33,-5.38,-3.71,-5.37,-3.69,3.68,3.57,2.37,-1.70,-1.69,-1.67
384.13,-5.20,-3.52,-5.36,-3.69,3.69,3.65,2.49,-1.51,-1.68,-1.68
387.97,-5.41,-3.73,-5.37,-3.70,3.68,3.73,2.61,-1.72,-1.69,-1.68
391.85,-5.53,-3.84,-5.39,-3.71,3.67,3.80,2.74,-1.85,-1.72,-1.68
395.77,-5.34,-3.66,-5.38,-3.71,3.65,3.87,2.86,-1.68,-1.73,-1.67
399.73,-5.25,-3.57,-5.30,-3.62,3.64,3.93,2.98,-1.60,-1.66,-1.67
403.72,-5.26,-3.57,-5.23,-3.55,3.65,3.99,3.11,-1.60,-1.57,-1.68
407.76,-5.26,-3.57,-5.23,-3.55,3.68,4.04,3.23,-1.58,-1.55,-1.68
411.84,-5.26,-3.58,-5.33,-3.65,3.70,4.08,3.36,-1.55,-1.63,-1.67
415.96,-5.40,-3.71,-5.44,-3.76,3.72,4.12,3.48,-1.67,-1.72,-1.69
420.12,-5.67,-3.98,-5.50,-3.82,3.74,4.14,3.60,-1.92,-1.76,-1.69
424.32,-5.52,-3.84,-5.55,-3.86,3.76,4.17,3.72,-1.76,-1.79,-1.68
428.56,-5.39,-3.71,-5.52,-3.85,3.77,4.18,3.84,-1.62,-1.75,-1.68
432.85,-5.54,-3.88,-5.41,-3.75,3.76,4.19,3.96,-1.78,-1.65,-1.66
437.18,-5.36,-3.72,-5.33,-3.70,3.73,4.20,4.07,-1.62,-1.60,-1.64
441.55,-5.16,-3.56,-5.26,-3.65,3.69,4.20,4.17,-1.47,-1.57,-1.60
445.96,-5.19,-3.62,-5.19,-3.62,3.64,4.19,4.28,-1.55,-1.55,-1.57
450.42,-5.18,-3.64,-5.11,-3.58,3.60,4.18,4.37,-1.58,-1.51,-1.54
454.93,-5.12,-3.64,-5.04,-3.55,3.56,4.16,4.47,-1.55,-1.47,-1.48
459.48,-4.83,-3.39,-4.99,-3.55,3.54,4.14,4.55,-1.28,-1.44,-1.44
464.07,-4.94,-3.55,-4.95,-3.57,3.54,4.12,4.63,-1.39,-1.40,-1.38
468.71,-5.05,-3.71,-4.89,-3.56,3.56,4.09,4.70,-1.49,-1.33,-1.33
473.40,-4.84,-3.55,-4.85,-3.57,3.58,4.06,4.76,-1.26,-1.27,-1.28
478.13,-4.68,-3.44,-4.79,-3.55,3.60,4.02,4.81,-1.07,-1.18,-1.23
482.91,-4.78,-3.58,-4.78,-3.59,3.63,3.99,4.86,-1.14,-1.15,-1.19
487.74,-4.90,-3.75,-4.84,-3.69,3.66,3.95,4.89,-1.23,-1.18,-1.14
