frequency,raw,error,smoothed,error_smoothed,equalization,parametric_eq,fixed_band_eq,equalized_raw,equalized_smoothed,target
20.00,-6.55,-6.00,-6.55,-6.01,6.01,5.40,0.06,-0.53,-0.54,-0.54
20.20,-6.34,-5.80,-6.34,-5.80,5.80,5.37,0.06,-0.54,-0.53,-0.53
20.40,-6.13,-5.60,-6.12,-5.60,5.59,5.31,0.07,-0.53,-0.53,-0.52
20.61,-5.91,-5.39,-5.91,-5.39,5.38,5.20,0.07,-0.53,-0.53,-0.53
20.81,-5.70,-5.18,-5.70,-5.18,5.17,5.06,0.07,-0.52,-0.53,-0.52
21.02,-5.49,-4.97,-5.49,-4.97,4.96,4.89,0.08,-0.52,-0.52,-0.52
21.23,-5.28,-4.77,-5.27,-4.77,4.76,4.69,0.08,-0.52,-0.52,-0.51
21.44,-5.06,-4.55,-5.06,-4.55,4.55,4.49,0.09,-0.50,-0.51,-0.51
21.66,-4.85,-4.34,-4.84,-4.34,4.34,4.27,0.09,-0.51,-0.50,-0.51
21.87,-4.62,-4.12,-4.63,-4.13,4.14,4.04,0.10,-0.48,-0.49,-0.51
22.09,-4.43,-3.93,-4.43,-3.93,3.94,3.82,0.10,-0.49,-0.49,-0.50
22.31,-4.23,-3.74,-4.23,-3.73,3.74,3.59,0.11,-0.50,-0.50,-0.50
22.54,-4.05,-3.54,-4.05,-3.54,3.54,3.37,0.11,-0.52,-0.51,-0.51
22.76,-3.86,-3.34,-3.86,-3.35,3.34,3.16,0.12,-0.52,-0.52,-0.52
22.99,-3.67,-3.15,-3.66,-3.15,3.14,2.96,0.12,-0.53,-0.53,-0.52
23.22,-3.47,-2.95,-3.47,-2.95,2.94,2.76,0.13,-0.53,-0.53,-0.52
23.45,-3.27,-2.74,-3.27,-2.74,2.74,2.57,0.13,-0.53,-0.53,-0.53
23.69,-3.07,-2.54,-3.06,-2.53,2.54,2.40,0.14,-0.53,-0.52,-0.53
23.92,-2.86,-2.33,-2.87,-2.34,2.35,2.23,0.14,-0.51,-0.52,-0.53
24.16,-2.68,-2.15,-2.68,-2.15,2.16,2.07,0.15,-0.52,-0.52,-0.53
24.40,-2.51,-1.97,-2.50,-1.97,1.97,1.92,0.15,-0.54,-0.53,-0.53
24.65,-2.33,-1.80,-2.33,-1.80,1.79,1.78,0.16,-0.54,-0.54,-0.53
24.89,-2.14,-1.61,-2.15,-1.62,1.61,1.64,0.16,-0.53,-0.54,-0.53
25.14,-1.99,-1.45,-1.99,-1.45,1.44,1.52,0.17,-0.54,-0.54,-0.53
25.39,-1.83,-1.28,-1.83,-1.29,1.29,1.40,0.17,-0.53,-0.53,-0.54
25.65,-1.68,-1.14,-1.67,-1.13,1.15,1.29,0.18,-0.53,-0.52,-0.54
25.91,-1.52,-0.98,-1.53,-0.98,1.01,1.18,0.18,-0.51,-0.52,-0.54
26.16,-1.39,-0.84,-1.40,-0.85,0.88,1.08,0.19,-0.51,-0.52,-0.54
26.43,-1.29,-0.74,-1.29,-0.74,0.74,0.99,0.19,-0.55,-0.55,-0.54
26.69,-1.19,-0.64,-1.19,-0.64,0.61,0.90,0.20,-0.58,-0.58,-0.55
26.96,-1.09,-0.54,-1.07,-0.53,0.48,0.82,0.20,-0.61,-0.60,-0.55
27.23,-0.93,-0.38,-0.93,-0.38,0.34,0.74,0.20,-0.59,-0.59,-0.55
27.50,-0.77,-0.22,-0.77,-0.22,0.21,0.66,0.20,-0.55,-0.55,-0.55
27.77,-0.61,-0.06,-0.61,-0.06,0.09,0.59,0.21,-0.52,-0.52,-0.55
28.05,-0.46,0.09,-0.48,0.07,-0.03,0.52,0.21,-0.49,-0.51,-0.55
28.33,-0.38,0.17,-0.37,0.18,-0.15,0.46,0.21,-0.52,-0.52,-0.55
28.62,-0.29,0.26,-0.28,0.27,-0.25,0.39,0.21,-0.54,-0.53,-0.55
28.90,-0.20,0.34,-0.20,0.34,-0.34,0.34,0.20,-0.54,-0.54,-0.54
29.19,-0.13,0.41,-0.13,0.42,-0.42,0.28,0.20,-0.55,-0.55,-0.54
29.48,-0.06,0.49,-0.06,0.48,-0.49,0.22,0.20,-0.55,-0.55,-0.54
29.78,0.01,0.55,0.01,0.55,-0.56,0.17,0.19,-0.55,-0.55,-0.53
30.08,0.08,0.62,0.09,0.62,-0.64,0.12,0.19,-0.56,-0.55,-0.54
30.38,0.17,0.71,0.17,0.71,-0.72,0.08,0.18,-0.55,-0.55,-0.54
30.68,0.26,0.80,0.26,0.80,-0.80,0.03,0.17,-0.54,-0.55,-0.54
30.99,0.35,0.89,0.35,0.89,-0.90,-0.01,0.16,-0.55,-0.55,-0.54
31.30,0.44,0.98,0.45,0.99,-0.99,-0.06,0.15,-0.55,-0.54,-0.54
31.61,0.54,1.08,0.54,1.08,-1.09,-0.10,0.13,-0.54,-0.54,-0.54
31.93,0.64,1.18,0.63,1.18,-1.18,-0.14,0.12,-0.54,-0.54,-0.54
32.24,0.71,1.27,0.72,1.27,-1.26,-0.18,0.10,-0.55,-0.54,-0.55
32.57,0.79,1.35,0.79,1.35,-1.33,-0.21,0.09,-0.54,-0.54,-0.56
32.89,0.86,1.42,0.85,1.41,-1.39,-0.25,0.07,-0.53,-0.54,-0.56
33.22,0.89,1.46,0.89,1.46,-1.43,-0.29,0.05,-0.54,-0.54,-0.57
33.55,0.91,1.48,0.92,1.49,-1.47,-0.32,0.03,-0.56,-0.55,-0.57
33.89,0.93,1.51,0.93,1.51,-1.51,-0.35,0.01,-0.58,-0.58,-0.58
34.23,0.94,1.53,0.94,1.52,-1.55,-0.39,-0.02,-0.61,-0.61,-0.58
34.57,0.95,1.54,0.95,1.53,-1.59,-0.42,-0.04,-0.64,-0.64,-0.58
34.92,0.96,1.55,0.98,1.57,-1.63,-0.45,-0.07,-0.66,-0.65,-0.59
35.27,1.03,1.62,1.05,1.64,-1.66,-0.48,-0.09,-0.62,-0.61,-0.59
35.62,1.12,1.71,1.12,1.71,-1.67,-0.51,-0.12,-0.55,-0.55,-0.59
35.97,1.20,1.79,1.17,1.76,-1.68,-0.54,-0.15,-0.48,-0.51,-0.59
36.33,1.16,1.76,1.16,1.76,-1.67,-0.57,-0.18,-0.51,-0.51,-0.59
36.70,1.10,1.70,1.12,1.72,-1.66,-0.60,-0.21,-0.56,-0.55,-0.60
37.06,1.05,1.65,1.04,1.64,-1.65,-0.62,-0.24,-0.60,-0.61,-0.60
37.43,0.99,1.59,0.98,1.58,-1.65,-0.65,-0.27,-0.66,-0.67,-0.60
37.81,0.93,1.53,0.95,1.55,-1.65,-0.68,-0.31,-0.72,-0.70,-0.59
38.19,0.95,1.55,0.98,1.57,-1.66,-0.71,-0.34,-0.71,-0.68,-0.60
38.57,1.05,1.65,1.04,1.64,-1.68,-0.73,-0.37,-0.63,-0.63,-0.60
38.95,1.15,1.75,1.13,1.73,-1.70,-0.76,-0.41,-0.55,-0.57,-0.59
39.34,1.19,1.79,1.20,1.80,-1.72,-0.78,-0.45,-0.53,-0.52,-0.60
39.74,1.23,1.83,1.23,1.83,-1.73,-0.81,-0.48,-0.50,-0.51,-0.60
40.14,1.22,1.82,1.21,1.81,-1.73,-0.83,-0.52,-0.51,-0.53,-0.60
40.54,1.15,1.76,1.16,1.76,-1.72,-0.86,-0.56,-0.57,-0.57,-0.61
40.94,1.07,1.68,1.08,1.69,-1.71,-0.88,-0.60,-0.64,-0.63,-0.61
41.35,1.01,1.62,1.00,1.62,-1.69,-0.91,-0.64,-0.68,-0.70,-0.61
41.76,0.95,1.58,0.97,1.59,-1.68,-0.93,-0.68,-0.73,-0.72,-0.63
42.18,0.96,1.59,1.00,1.63,-1.68,-0.95,-0.72,-0.72,-0.69,-0.63
42.60,1.07,1.71,1.06,1.69,-1.70,-0.98,-0.76,-0.63,-0.64,-0.63
43.03,1.16,1.80,1.13,1.77,-1.73,-1.00,-0.80,-0.57,-0.60,-0.64
43.46,1.16,1.81,1.17,1.81,-1.77,-1.02,-0.84,-0.60,-0.60,-0.64
43.90,1.16,1.82,1.18,1.83,-1.80,-1.05,-0.88,-0.64,-0.63,-0.66
44.33,1.17,1.83,1.17,1.84,-1.83,-1.07,-0.93,-0.66,-0.65,-0.66
44.78,1.18,1.85,1.18,1.85,-1.84,-1.09,-0.97,-0.66,-0.66,-0.67
45.23,1.17,1.84,1.17,1.84,-1.83,-1.11,-1.02,-0.66,-0.66,-0.67
45.68,1.15,1.83,1.15,1.83,-1.82,-1.14,-1.06,-0.67,-0.67,-0.68
46.13,1.12,1.79,1.12,1.80,-1.80,-1.16,-1.11,-0.68,-0.68,-0.67
46.60,1.09,1.77,1.09,1.77,-1.78,-1.18,-1.16,-0.69,-0.69,-0.68
47.06,1.06,1.74,1.07,1.74,-1.76,-1.20,-1.21,-0.70,-0.69,-0.67
47.53,1.06,1.73,1.06,1.73,-1.75,-1.22,-1.25,-0.69,-0.69,-0.67
48.01,1.06,1.73,1.06,1.73,-1.73,-1.25,-1.30,-0.67,-0.67,-0.67
48.49,1.06,1.73,1.06,1.73,-1.72,-1.27,-1.35,-0.66,-0.66,-0.66
48.97,1.06,1.72,1.06,1.72,-1.71,-1.29,-1.40,-0.65,-0.65,-0.66
49.46,1.06,1.72,1.06,1.72,-1.71,-1.31,-1.45,-0.65,-0.65,-0.66
49.96,1.06,1.71,1.06,1.71,-1.70,-1.33,-1.50,-0.64,-0.64,-0.64
50.46,1.06,1.70,1.06,1.70,-1.70,-1.35,-1.55,-0.64,-0.64,-0.64
50.96,1.06,1.69,1.06,1.69,-1.70,-1.37,-1.60,-0.64,-0.64,-0.63
51.47,1.06,1.69,1.06,1.69,-1.70,-1.39,-1.65,-0.64,-0.64,-0.63
51.99,1.06,1.69,1.06,1.68,-1.70,-1.41,-1.71,-0.64,-0.65,-0.63
52.51,1.06,1.69,1.06,1.69,-1.70,-1.43,-1.76,-0.64,-0.64,-0.63
53.03,1.06,1.69,1.08,1.71,-1.69,-1.45,-1.80,-0.63,-0.61,-0.62
53.56,1.10,1.73,1.10,1.72,-1.68,-1.47,-1.85,-0.58,-0.59,-0.62
54.10,1.12,1.74,1.09,1.71,-1.67,-1.50,-1.90,-0.55,-0.58,-0.61
54.64,1.05,1.67,1.06,1.67,-1.66,-1.52,-1.95,-0.60,-0.60,-0.61
55.18,0.99,1.61,1.01,1.63,-1.64,-1.54,-2.00,-0.65,-0.63,-0.61
55.74,0.97,1.60,0.97,1.59,-1.62,-1.55,-2.04,-0.65,-0.65,-0.63
56.29,0.96,1.59,0.96,1.59,-1.61,-1.57,-2.08,-0.65,-0.65,-0.63
56.86,0.96,1.59,0.96,1.59,-1.60,-1.59,-2.12,-0.64,-0.64,-0.63
57.42,0.96,1.60,0.96,1.60,-1.61,-1.61,-2.16,-0.64,-0.64,-0.64
58.00,0.96,1.61,0.96,1.61,-1.61,-1.63,-2.20,-0.65,-0.65,-0.65
58.58,0.96,1.63,0.96,1.63,-1.62,-1.65,-2.24,-0.66,-0.66,-0.67
59.16,0.96,1.64,0.96,1.64,-1.63,-1.67,-2.27,-0.67,-0.67,-0.68
59.76,0.96,1.65,0.97,1.67,-1.64,-1.69,-2.30,-0.68,-0.67,-0.69
60.35,0.96,1.68,0.96,1.68,-1.64,-1.71,-2.32,-0.68,-0.68,-0.72
60.96,0.96,1.70,0.93,1.67,-1.65,-1.73,-2.35,-0.69,-0.73,-0.74
61.57,0.87,1.64,0.88,1.65,-1.67,-1.75,-2.37,-0.79,-0.78,-0.77
62.18,0.81,1.61,0.84,1.64,-1.68,-1.76,-2.39,-0.87,-0.84,-0.80
62.80,0.83,1.67,0.83,1.67,-1.70,-1.78,-2.40,-0.87,-0.88,-0.84
63.43,0.85,1.74,0.84,1.72,-1.73,-1.80,-2.42,-0.88,-0.89,-0.88
64.07,0.86,1.78,0.86,1.78,-1.77,-1.82,-2.43,-0.91,-0.91,-0.92
64.71,0.86,1.83,0.86,1.83,-1.82,-1.84,-2.43,-0.95,-0.95,-0.97
65.35,0.86,1.87,0.86,1.87,-1.87,-1.85,-2.44,-1.01,-1.01,-1.01
66.01,0.86,1.91,0.86,1.90,-1.92,-1.87,-2.44,-1.06,-1.06,-1.04
66.67,0.86,1.95,0.88,1.96,-1.96,-1.89,-2.44,-1.10,-1.08,-1.08
67.33,0.88,2.00,0.90,2.01,-1.99,-1.91,-2.44,-1.11,-1.09,-1.11
68.01,0.93,2.09,0.90,2.05,-2.01,-1.92,-2.43,-1.08,-1.11,-1.15
68.69,0.88,2.07,0.88,2.06,-2.04,-1.94,-2.43,-1.15,-1.16,-1.18
69.37,0.82,2.04,0.83,2.05,-2.05,-1.95,-2.42,-1.23,-1.22,-1.22
70.07,0.76,2.01,0.78,2.03,-2.06,-1.97,-2.41,-1.30,-1.28,-1.25
70.77,0.76,2.04,0.76,2.04,-2.06,-1.99,-2.40,-1.30,-1.31,-1.28
71.48,0.76,2.06,0.77,2.07,-2.06,-2.00,-2.39,-1.30,-1.30,-1.30
72.19,0.76,2.10,0.76,2.10,-2.06,-2.02,-2.38,-1.30,-1.30,-1.34
72.91,0.76,2.13,0.73,2.10,-2.07,-2.03,-2.37,-1.31,-1.34,-1.37
73.64,0.66,2.07,0.67,2.08,-2.09,-2.05,-2.35,-1.42,-1.41,-1.41
74.38,0.61,2.05,0.63,2.08,-2.11,-2.06,-2.34,-1.50,-1.48,-1.44
75.12,0.61,2.09,0.62,2.10,-2.14,-2.08,-2.33,-1.53,-1.52,-1.48
75.87,0.65,2.18,0.64,2.16,-2.17,-2.09,-2.32,-1.52,-1.53,-1.52
76.63,0.66,2.22,0.66,2.22,-2.20,-2.11,-2.31,-1.54,-1.55,-1.56
77.40,0.66,2.27,0.67,2.27,-2.25,-2.12,-2.30,-1.59,-1.58,-1.61
78.17,0.66,2.31,0.66,2.31,-2.31,-2.13,-2.29,-1.64,-1.64,-1.65
78.95,0.66,2.36,0.66,2.35,-2.37,-2.15,-2.28,-1.71,-1.71,-1.70
79.74,0.66,2.40,0.66,2.40,-2.42,-2.16,-2.27,-1.76,-1.76,-1.74
80.54,0.66,2.45,0.67,2.45,-2.46,-2.17,-2.27,-1.80,-1.79,-1.79
81.35,0.68,2.51,0.70,2.53,-2.50,-2.19,-2.26,-1.82,-1.79,-1.83
82.16,0.73,2.60,0.71,2.58,-2.53,-2.20,-2.26,-1.79,-1.82,-1.87
82.98,0.72,2.63,0.68,2.59,-2.55,-2.21,-2.26,-1.83,-1.87,-1.91
83.81,0.59,2.54,0.63,2.58,-2.58,-2.22,-2.26,-1.99,-1.95,-1.95
84.65,0.56,2.55,0.58,2.56,-2.60,-2.23,-2.26,-2.04,-2.02,-1.98
85.50,0.56,2.59,0.55,2.58,-2.62,-2.24,-2.27,-2.06,-2.07,-2.03
86.35,0.56,2.63,0.56,2.63,-2.65,-2.26,-2.27,-2.09,-2.09,-2.07
87.22,0.56,2.68,0.56,2.68,-2.68,-2.27,-2.28,-2.12,-2.12,-2.12
88.09,0.56,2.72,0.56,2.72,-2.72,-2.28,-2.29,-2.16,-2.16,-2.16
88.97,0.56,2.76,0.56,2.76,-2.76,-2.29,-2.30,-2.20,-2.20,-2.20
89.86,0.56,2.80,0.57,2.81,-2.81,-2.29,-2.32,-2.25,-2.25,-2.24
90.76,0.57,2.86,0.57,2.86,-2.85,-2.30,-2.33,-2.28,-2.28,-2.29
91.66,0.57,2.90,0.57,2.90,-2.88,-2.31,-2.35,-2.30,-2.30,-2.32
92.58,0.57,2.93,0.56,2.93,-2.89,-2.32,-2.37,-2.32,-2.33,-2.36
93.51,0.53,2.94,0.53,2.94,-2.91,-2.33,-2.39,-2.38,-2.38,-2.41
94.44,0.48,2.93,0.48,2.92,-2.93,-2.34,-2.41,-2.45,-2.45,-2.45
95.39,0.42,2.91,0.42,2.91,-2.95,-2.34,-2.43,-2.52,-2.52,-2.48
96.34,0.36,2.88,0.38,2.90,-2.95,-2.35,-2.46,-2.59,-2.57,-2.52
97.30,0.36,2.92,0.36,2.92,-2.95,-2.36,-2.49,-2.59,-2.59,-2.56
98.28,0.35,2.96,0.36,2.97,-2.94,-2.36,-2.51,-2.59,-2.58,-2.61
99.26,0.35,3.00,0.36,3.01,-2.94,-2.37,-2.54,-2.58,-2.57,-2.65
100.25,0.35,3.04,0.29,2.98,-2.94,-2.37,-2.57,-2.59,-2.65,-2.69
101.25,0.21,2.94,0.20,2.92,-2.94,-2.38,-2.60,-2.73,-2.75,-2.73
102.27,0.02,2.80,0.10,2.88,-2.94,-2.38,-2.64,-2.92,-2.84,-2.78
103.29,0.04,2.87,0.04,2.87,-2.93,-2.39,-2.67,-2.88,-2.88,-2.83
104.32,0.05,2.93,0.03,2.90,-2.90,-2.39,-2.70,-2.85,-2.88,-2.87
105.37,0.03,2.95,0.03,2.94,-2.88,-2.39,-2.73,-2.84,-2.85,-2.91
106.42,-0.05,2.92,-0.05,2.92,-2.85,-2.40,-2.76,-2.90,-2.90,-2.96
107.48,-0.14,2.87,-0.18,2.83,-2.83,-2.40,-2.79,-2.96,-3.01,-3.01
108.56,-0.32,2.74,-0.30,2.77,-2.80,-2.40,-2.82,-3.12,-3.10,-3.06
109.64,-0.45,2.66,-0.35,2.76,-2.78,-2.40,-2.85,-3.23,-3.13,-3.11
110.74,-0.36,2.79,-0.42,2.73,-2.75,-2.40,-2.88,-3.11,-3.17,-3.15
111.85,-0.39,2.80,-0.49,2.70,-2.71,-2.40,-2.91,-3.10,-3.21,-3.19
112.97,-0.66,2.57,-0.53,2.69,-2.68,-2.40,-2.93,-3.34,-3.22,-3.23
114.10,-0.64,2.63,-0.60,2.67,-2.66,-2.40,-2.95,-3.30,-3.26,-3.27
115.24,-0.54,2.76,-0.63,2.66,-2.65,-2.40,-2.97,-3.19,-3.29,-3.29
116.39,-0.66,2.68,-0.67,2.66,-2.64,-2.40,-2.99,-3.30,-3.31,-3.33
117.55,-0.77,2.58,-0.74,2.61,-2.62,-2.40,-3.00,-3.39,-3.36,-3.35
118.73,-0.87,2.51,-0.79,2.58,-2.60,-2.39,-3.01,-3.47,-3.40,-3.38
119.92,-0.77,2.63,-0.82,2.58,-2.58,-2.39,-3.01,-3.35,-3.40,-3.39
121.12,-0.79,2.62,-0.85,2.56,-2.55,-2.39,-3.01,-3.34,-3.40,-3.41
122.33,-0.95,2.48,-0.88,2.55,-2.52,-2.38,-3.01,-3.47,-3.40,-3.43
123.55,-0.97,2.48,-0.95,2.49,-2.49,-2.38,-3.00,-3.45,-3.44,-3.44
124.79,-0.96,2.50,-1.01,2.45,-2.45,-2.37,-2.98,-3.41,-3.46,-3.46
126.03,-1.07,2.41,-1.05,2.42,-2.42,-2.36,-2.97,-3.49,-3.47,-3.47
127.29,-1.13,2.36,-1.12,2.37,-2.38,-2.36,-2.95,-3.51,-3.50,-3.49
128.57,-1.19,2.32,-1.19,2.31,-2.33,-2.35,-2.92,-3.52,-3.52,-3.50
129.85,-1.24,2.28,-1.23,2.29,-2.29,-2.34,-2.89,-3.53,-3.52,-3.52
131.15,-1.26,2.27,-1.26,2.27,-2.25,-2.33,-2.85,-3.51,-3.51,-3.53
132.46,-1.32,2.23,-1.32,2.23,-2.22,-2.32,-2.81,-3.54,-3.54,-3.55
133.79,-1.36,2.21,-1.40,2.16,-2.18,-2.31,-2.77,-3.54,-3.59,-3.56
135.12,-1.51,2.08,-1.46,2.13,-2.15,-2.30,-2.72,-3.65,-3.60,-3.59
136.48,-1.53,2.07,-1.49,2.11,-2.11,-2.29,-2.67,-3.64,-3.60,-3.60
137.84,-1.46,2.16,-1.53,2.09,-2.07,-2.28,-2.62,-3.53,-3.60,-3.62
139.22,-1.56,2.08,-1.56,2.07,-2.03,-2.27,-2.56,-3.59,-3.59,-3.64
140.61,-1.66,2.00,-1.64,2.02,-2.00,-2.25,-2.50,-3.66,-3.64,-3.66
142.02,-1.73,1.95,-1.73,1.94,-1.98,-2.24,-2.44,-3.70,-3.71,-3.67
143.44,-1.80,1.90,-1.79,1.91,-1.95,-2.23,-2.38,-3.75,-3.74,-3.70
144.87,-1.83,1.90,-1.82,1.91,-1.93,-2.21,-2.31,-3.76,-3.75,-3.73
146.32,-1.83,1.93,-1.83,1.93,-1.92,-2.19,-2.24,-3.75,-3.75,-3.76
147.78,-1.84,1.95,-1.86,1.93,-1.91,-2.18,-2.17,-3.75,-3.77,-3.79
149.26,-1.90,1.93,-1.90,1.92,-1.91,-2.16,-2.11,-3.81,-3.82,-3.83
150.75,-1.98,1.89,-1.96,1.92,-1.92,-2.14,-2.04,-3.90,-3.88,-3.87
152.26,-2.02,1.91,-2.01,1.92,-1.94,-2.12,-1.96,-3.95,-3.95,-3.93
153.78,-2.03,1.95,-2.05,1.93,-1.94,-2.10,-1.89,-3.97,-3.99,-3.98
155.32,-2.10,1.95,-2.08,1.96,-1.95,-2.08,-1.82,-4.04,-4.03,-4.04
156.88,-2.13,1.97,-2.14,1.96,-1.95,-2.06,-1.75,-4.07,-4.08,-4.10
158.44,-2.20,1.96,-2.21,1.95,-1.94,-2.04,-1.68,-4.13,-4.14,-4.16
160.03,-2.29,1.92,-2.27,1.94,-1.92,-2.01,-1.61,-4.21,-4.19,-4.21
161.63,-2.35,1.90,-2.34,1.91,-1.91,-1.99,-1.54,-4.25,-4.25,-4.25
163.24,-2.40,1.90,-2.41,1.89,-1.89,-1.96,-1.47,-4.29,-4.30,-4.30
164.88,-2.48,1.85,-2.48,1.86,-1.87,-1.94,-1.40,-4.35,-4.34,-4.33
166.53,-2.55,1.81,-2.55,1.81,-1.84,-1.91,-1.33,-4.39,-4.39,-4.36
168.19,-2.62,1.76,-2.61,1.77,-1.80,-1.88,-1.26,-4.42,-4.41,-4.38
169.87,-2.66,1.73,-2.62,1.77,-1.76,-1.86,-1.19,-4.42,-4.38,-4.39
171.57,-2.62,1.78,-2.62,1.77,-1.71,-1.83,-1.13,-4.33,-4.33,-4.39
173.29,-2.61,1.78,-2.68,1.71,-1.66,-1.79,-1.06,-4.26,-4.33,-4.39
175.02,-2.76,1.62,-2.76,1.62,-1.60,-1.76,-1.00,-4.36,-4.36,-4.38
176.77,-2.94,1.43,-2.86,1.51,-1.54,-1.73,-0.93,-4.48,-4.40,-4.36
178.54,-2.91,1.44,-2.92,1.43,-1.48,-1.70,-0.87,-4.39,-4.40,-4.35
180.32,-2.91,1.42,-2.94,1.39,-1.42,-1.66,-0.80,-4.33,-4.36,-4.33
182.13,-2.95,1.36,-2.96,1.35,-1.35,-1.63,-0.74,-4.30,-4.31,-4.31
183.95,-3.01,1.28,-2.98,1.31,-1.28,-1.59,-0.68,-4.29,-4.26,-4.28
185.79,-3.05,1.23,-3.01,1.27,-1.22,-1.55,-0.62,-4.27,-4.24,-4.28
187.65,-2.98,1.29,-3.07,1.20,-1.18,-1.51,-0.56,-4.15,-4.25,-4.27
189.52,-3.16,1.11,-3.14,1.13,-1.14,-1.47,-0.50,-4.29,-4.27,-4.26
191.42,-3.27,1.00,-3.20,1.06,-1.09,-1.43,-0.44,-4.36,-4.29,-4.27
193.33,-3.23,1.03,-3.26,1.00,-1.05,-1.39,-0.38,-4.28,-4.31,-4.26
195.27,-3.25,1.01,-3.28,0.99,-1.01,-1.34,-0.32,-4.26,-4.29,-4.26
197.22,-3.30,0.97,-3.28,0.99,-0.97,-1.30,-0.26,-4.27,-4.25,-4.27
199.19,-3.34,0.93,-3.30,0.97,-0.93,-1.25,-0.21,-4.27,-4.23,-4.27
201.18,-3.30,0.99,-3.35,0.93,-0.89,-1.20,-0.15,-4.19,-4.25,-4.28
203.19,-3.40,0.90,-3.42,0.87,-0.86,-1.15,-0.10,-4.25,-4.28,-4.29
205.23,-3.56,0.75,-3.49,0.81,-0.82,-1.10,-0.04,-4.38,-4.31,-4.30
207.28,-3.56,0.75,-3.56,0.75,-0.79,-1.05,0.01,-4.34,-4.35,-4.31
209.35,-3.59,0.73,-3.61,0.71,-0.75,-1.00,0.07,-4.34,-4.36,-4.32
211.44,-3.64,0.70,-3.65,0.68,-0.71,-0.94,0.12,-4.35,-4.36,-4.34
213.56,-3.73,0.62,-3.67,0.68,-0.67,-0.88,0.17,-4.39,-4.34,-4.35
215.69,-3.72,0.65,-3.71,0.66,-0.63,-0.83,0.22,-4.34,-4.33,-4.37
217.85,-3.68,0.70,-3.77,0.60,-0.58,-0.77,0.27,-4.26,-4.36,-4.38
220.03,-3.88,0.52,-3.84,0.55,-0.53,-0.71,0.32,-4.41,-4.37,-4.39
222.23,-3.99,0.41,-3.93,0.47,-0.47,-0.64,0.37,-4.46,-4.40,-4.40
224.45,-3.97,0.44,-4.03,0.38,-0.40,-0.58,0.42,-4.37,-4.43,-4.41
226.70,-4.09,0.33,-4.09,0.32,-0.32,-0.51,0.47,-4.41,-4.41,-4.41
228.96,-4.21,0.21,-4.17,0.25,-0.23,-0.44,0.51,-4.44,-4.40,-4.42
231.25,-4.26,0.16,-4.27,0.16,-0.15,-0.37,0.56,-4.41,-4.41,-4.42
233.57,-4.33,0.10,-4.36,0.06,-0.07,-0.30,0.60,-4.40,-4.44,-4.42
235.90,-4.45,-0.03,-4.44,-0.02,-0.00,-0.23,0.65,-4.45,-4.45,-4.42
238.26,-4.56,-0.14,-4.49,-0.07,0.06,-0.15,0.69,-4.50,-4.43,-4.42
240.64,-4.50,-0.10,-4.53,-0.12,0.11,-0.08,0.73,-4.39,-4.42,-4.40
243.05,-4.49,-0.09,-4.57,-0.17,0.16,0.00,0.77,-4.33,-4.41,-4.40
245.48,-4.66,-0.27,-4.59,-0.19,0.20,0.08,0.81,-4.46,-4.39,-4.39
247.93,-4.66,-0.27,-4.61,-0.23,0.23,0.17,0.85,-4.42,-4.38,-4.39
250.41,-4.58,-0.20,-4.64,-0.26,0.27,0.25,0.89,-4.31,-4.37,-4.38
252.92,-4.65,-0.27,-4.68,-0.30,0.32,0.34,0.93,-4.33,-4.36,-4.38
255.45,-4.79,-0.41,-4.75,-0.37,0.38,0.43,0.96,-4.41,-4.37,-4.38
258.00,-4.87,-0.48,-4.82,-0.44,0.44,0.52,1.00,-4.43,-4.38,-4.38
260.58,-4.84,-0.45,-4.88,-0.49,0.51,0.61,1.03,-4.33,-4.37,-4.39
263.19,-4.93,-0.53,-4.97,-0.58,0.58,0.71,1.07,-4.35,-4.39,-4.39
265.82,-5.09,-0.69,-5.08,-0.69,0.67,0.81,1.10,-4.42,-4.42,-4.40
268.48,-5.27,-0.87,-5.19,-0.79,0.77,0.91,1.14,-4.50,-4.42,-4.40
271.16,-5.26,-0.85,-5.26,-0.86,0.87,1.01,1.17,-4.39,-4.40,-4.40
273.87,-5.28,-0.87,-5.34,-0.94,0.97,1.12,1.20,-4.31,-4.38,-4.41
276.61,-5.45,-1.04,-5.45,-1.04,1.07,1.23,1.23,-4.38,-4.38,-4.41
279.38,-5.64,-1.22,-5.60,-1.19,1.18,1.34,1.27,-4.46,-4.42,-4.41
282.17,-5.75,-1.34,-5.73,-1.33,1.28,1.45,1.30,-4.47,-4.45,-4.41
284.99,-5.81,-1.41,-5.82,-1.41,1.39,1.57,1.33,-4.42,-4.42,-4.40
287.84,-5.88,-1.48,-5.88,-1.48,1.50,1.69,1.36,-4.38,-4.38,-4.40
290.72,-5.96,-1.56,-5.97,-1.58,1.61,1.81,1.40,-4.35,-4.36,-4.40
293.63,-6.08,-1.69,-6.09,-1.70,1.71,1.94,1.43,-4.37,-4.38,-4.39
296.57,-6.22,-1.84,-6.20,-1.82,1.80,2.06,1.47,-4.42,-4.40,-4.38
299.53,-6.32,-1.94,-6.31,-1.93,1.88,2.19,1.50,-4.44,-4.43,-4.38
302.53,-6.37,-1.99,-6.38,-2.01,1.96,2.33,1.54,-4.41,-4.42,-4.37
305.55,-6.46,-2.08,-6.44,-2.06,2.05,2.46,1.58,-4.40,-4.39,-4.38
308.61,-6.50,-2.12,-6.50,-2.12,2.16,2.60,1.62,-4.34,-4.34,-4.38
311.69,-6.58,-2.20,-6.59,-2.21,2.27,2.74,1.66,-4.31,-4.33,-4.38
314.81,-6.71,-2.31,-6.72,-2.33,2.38,2.88,1.70,-4.33,-4.34,-4.39
317.96,-6.89,-2.49,-6.88,-2.48,2.51,3.03,1.74,-4.38,-4.37,-4.40
321.14,-7.07,-2.66,-7.06,-2.65,2.65,3.18,1.79,-4.42,-4.41,-4.41
324.35,-7.22,-2.81,-7.24,-2.83,2.79,3.33,1.83,-4.43,-4.45,-4.41
327.59,-7.41,-2.99,-7.40,-2.98,2.94,3.48,1.88,-4.47,-4.46,-4.42
330.87,-7.56,-3.13,-7.54,-3.11,3.08,3.63,1.93,-4.47,-4.46,-4.43
334.18,-7.67,-3.22,-7.68,-3.24,3.22,3.79,1.98,-4.44,-4.46,-4.44
337.52,-7.79,-3.33,-7.80,-3.35,3.36,3.95,2.04,-4.43,-4.44,-4.45
340.90,-7.94,-3.48,-7.92,-3.46,3.48,4.11,2.09,-4.46,-4.44,-4.46
344.30,-8.04,-3.57,-8.05,-3.57,3.59,4.26,2.15,-4.45,-4.45,-4.47
347.75,-8.18,-3.69,-8.18,-3.70,3.69,4.42,2.21,-4.48,-4.49,-4.49
351.23,-8.31,-3.81,-8.32,-3.82,3.80,4.58,2.27,-4.51,-4.52,-4.50
354.74,-8.48,-3.97,-8.45,-3.93,3.90,4.74,2.33,-4.58,-4.55,-4.51
358.28,-8.56,-4.04,-8.56,-4.03,4.00,4.89,2.40,-4.55,-4.55,-4.52
361.87,-8.64,-4.10,-8.66,-4.12,4.12,5.05,2.46,-4.52,-4.54,-4.53
365.49,-8.77,-4.21,-8.76,-4.21,4.25,5.20,2.53,-4.52,-4.51,-4.55
369.14,-8.90,-4.33,-8.90,-4.33,4.39,5.34,2.60,-4.51,-4.51,-4.57
372.83,-9.07,-4.49,-9.09,-4.52,4.55,5.48,2.67,-4.52,-4.54,-4.58
376.56,-9.31,-4.72,-9.30,-4.71,4.74,5.61,2.75,-4.57,-4.56,-4.59
380.33,-9.56,-4.96,-9.52,-4.92,4.95,5.74,2.82,-4.61,-4.57,-4.60
384.13,-9.73,-5.12,-9.75,-5.14,5.17,5.86,2.90,-4.56,-4.58,-4.61
387.97,-9.96,-5.34,-9.98,-5.36,5.38,5.96,2.98,-4.58,-4.60,-4.62
391.85,-10.22,-5.59,-10.21,-5.58,5.57,6.06,3.06,-4.65,-4.64,-4.63
395.77,-10.47,-5.83,-10.45,-5.81,5.73,6.14,3.14,-4.74,-4.72,-4.64
399.73,-10.67,-6.01,-10.66,-6.00,5.86,6.21,3.22,-4.81,-4.80,-4.65
403.72,-10.83,-6.16,-10.86,-6.19,5.95,6.26,3.30,-4.88,-4.91,-4.66
407.76,-11.05,-6.36,-11.05,-6.37,6.01,6.29,3.38,-5.04,-5.05,-4.68
411.84,-11.27,-6.57,-11.24,-6.55,6.04,6.31,3.46,-5.23,-5.20,-4.69
415.96,-11.42,-6.71,-11.42,-6.71,6.04,6.31,3.54,-5.37,-5.38,-4.71
420.12,-11.56,-6.85,-11.58,-6.87,6.03,6.29,3.62,-5.53,-5.55,-4.71
424.32,-11.73,-7.01,-11.72,-7.01,6.01,6.25,3.70,-5.71,-5.71,-4.72
428.56,-11.88,-7.16,-11.87,-7.16,6.00,6.20,3.78,-5.88,-5.87,-4.72
432.85,-12.00,-7.29,-12.01,-7.30,6.00,6.12,3.85,-6.00,-6.01,-4.71
437.18,-12.15,-7.45,-12.13,-7.43,6.00,6.03,3.92,-6.15,-6.13,-4.70
441.55,-12.24,-7.56,-12.24,-7.56,6.00,5.92,3.99,-6.24,-6.24,-4.68
445.96,-12.32,-7.66,-12.34,-7.68,6.02,5.79,4.05,-6.30,-6.32,-4.66
