frequency,raw,error,smoothed,error_smoothed,equalization,parametric_eq,fixed_band_eq,equalized_raw,equalized_smoothed,target
20.00,0.55,3.60,0.53,3.58,-3.56,-5.09,-2.34,-3.01,-3.02,-3.05
20.20,0.58,3.63,0.60,3.65,-3.65,-5.09,-2.40,-3.07,-3.05,-3.05
20.40,0.67,3.72,0.68,3.72,-3.74,-5.10,-2.47,-3.07,-3.06,-3.04
20.61,0.76,3.80,0.76,3.80,-3.82,-5.10,-2.54,-3.07,-3.07,-3.04
20.81,0.86,3.90,0.86,3.90,-3.91,-5.11,-2.62,-3.05,-3.05,-3.04
21.02,0.95,3.99,0.95,3.99,-3.99,-5.11,-2.69,-3.04,-3.04,-3.04
21.23,1.04,4.08,1.04,4.08,-4.07,-5.11,-2.77,-3.03,-3.03,-3.04
21.44,1.12,4.16,1.11,4.15,-4.14,-5.12,-2.85,-3.02,-3.03,-3.04
21.66,1.17,4.21,1.18,4.22,-4.22,-5.12,-2.93,-3.05,-3.04,-3.04
21.87,1.25,4.29,1.25,4.29,-4.29,-5.13,-3.02,-3.04,-3.04,-3.04
22.09,1.33,4.36,1.32,4.36,-4.36,-5.13,-3.10,-3.03,-3.04,-3.03
22.31,1.39,4.42,1.40,4.43,-4.42,-5.14,-3.19,-3.03,-3.03,-3.03
22.54,1.46,4.49,1.46,4.49,-4.48,-5.14,-3.28,-3.02,-3.02,-3.03
22.76,1.52,4.55,1.51,4.54,-4.54,-5.15,-3.38,-3.02,-3.03,-3.03
22.99,1.56,4.59,1.57,4.59,-4.59,-5.16,-3.47,-3.03,-3.03,-3.03
23.22,1.61,4.64,1.61,4.64,-4.64,-5.16,-3.57,-3.03,-3.03,-3.03
23.45,1.66,4.69,1.66,4.68,-4.68,-5.17,-3.67,-3.02,-3.03,-3.03
23.69,1.70,4.72,1.70,4.72,-4.73,-5.18,-3.77,-3.03,-3.03,-3.02
23.92,1.74,4.76,1.74,4.76,-4.76,-5.18,-3.87,-3.02,-3.03,-3.02
24.16,1.77,4.79,1.78,4.80,-4.80,-5.19,-3.98,-3.03,-3.02,-3.02
24.40,1.82,4.84,1.82,4.84,-4.83,-5.20,-4.09,-3.01,-3.02,-3.02
24.65,1.86,4.88,1.85,4.87,-4.87,-5.21,-4.20,-3.01,-3.01,-3.02
24.89,1.87,4.89,1.88,4.90,-4.90,-5.21,-4.31,-3.02,-3.01,-3.02
25.14,1.91,4.93,1.91,4.92,-4.92,-5.22,-4.42,-3.01,-3.02,-3.02
25.39,1.93,4.94,1.93,4.95,-4.95,-5.23,-4.53,-3.02,-3.02,-3.01
25.65,1.96,4.97,1.96,4.97,-4.97,-5.24,-4.64,-3.01,-3.01,-3.01
25.91,1.99,5.00,1.99,5.00,-5.00,-5.25,-4.76,-3.01,-3.01,-3.01
26.16,2.01,5.02,2.01,5.02,-5.02,-5.26,-4.87,-3.01,-3.01,-3.01
26.43,2.05,5.06,2.04,5.05,-5.05,-5.27,-4.98,-3.00,-3.01,-3.01
26.69,2.06,5.07,2.07,5.07,-5.08,-5.28,-5.09,-3.02,-3.01,-3.01
26.96,2.10,5.11,2.10,5.10,-5.11,-5.30,-5.20,-3.01,-3.01,-3.01
27.23,2.12,5.12,2.12,5.13,-5.13,-5.31,-5.31,-3.01,-3.01,-3.00
27.50,2.16,5.16,2.16,5.16,-5.16,-5.32,-5.41,-3.00,-3.00,-3.00
27.77,2.19,5.19,2.19,5.19,-5.19,-5.34,-5.51,-3.00,-3.00,-3.00
28.05,2.22,5.22,2.22,5.22,-5.22,-5.35,-5.61,-3.00,-3.00,-3.00
28.33,2.24,5.24,2.25,5.24,-5.24,-5.37,-5.70,-3.00,-3.00,-3.00
28.62,2.28,5.28,2.27,5.27,-5.27,-5.38,-5.79,-2.99,-2.99,-3.00
28.90,2.29,5.29,2.30,5.29,-5.29,-5.40,-5.88,-3.00,-2.99,-3.00
29.19,2.32,5.32,2.31,5.31,-5.31,-5.42,-5.95,-2.99,-3.00,-3.00
29.48,2.33,5.32,2.33,5.32,-5.32,-5.43,-6.02,-2.99,-3.00,-2.99
29.78,2.33,5.32,2.35,5.34,-5.34,-5.45,-6.08,-3.01,-2.99,-2.99
30.08,2.38,5.37,2.36,5.35,-5.35,-5.47,-6.14,-2.97,-2.99,-2.99
30.38,2.38,5.37,2.38,5.37,-5.37,-5.49,-6.18,-2.99,-2.99,-2.99
30.68,2.38,5.37,2.39,5.38,-5.38,-5.51,-6.22,-3.00,-2.99,-2.99
30.99,2.40,5.39,2.40,5.39,-5.39,-5.53,-6.25,-2.99,-2.99,-2.99
31.30,2.43,5.42,2.42,5.40,-5.40,-5.55,-6.27,-2.97,-2.99,-2.99
31.61,2.43,5.41,2.43,5.42,-5.42,-5.57,-6.28,-2.99,-2.98,-2.98
31.93,2.43,5.41,2.45,5.43,-5.43,-5.59,-6.29,-3.00,-2.98,-2.98
32.24,2.47,5.45,2.45,5.43,-5.44,-5.61,-6.28,-2.97,-2.99,-2.98
32.57,2.47,5.45,2.47,5.45,-5.45,-5.63,-6.27,-2.98,-2.98,-2.98
32.89,2.47,5.45,2.49,5.47,-5.46,-5.65,-6.25,-2.99,-2.98,-2.98
33.22,2.51,5.49,2.50,5.48,-5.48,-5.66,-6.22,-2.97,-2.98,-2.98
33.55,2.52,5.50,2.51,5.49,-5.49,-5.68,-6.18,-2.97,-2.98,-2.98
33.89,2.52,5.49,2.53,5.50,-5.51,-5.70,-6.14,-2.99,-2.98,-2.97
34.23,2.52,5.49,2.54,5.51,-5.52,-5.71,-6.10,-3.00,-2.98,-2.97
34.57,2.57,5.54,2.55,5.52,-5.52,-5.72,-6.04,-2.95,-2.97,-2.97
34.92,2.57,5.54,2.57,5.54,-5.53,-5.73,-5.99,-2.96,-2.95,-2.97
35.27,2.57,5.54,2.57,5.54,-5.52,-5.74,-5.93,-2.95,-2.95,-2.97
35.62,2.57,5.54,2.55,5.52,-5.52,-5.74,-5.87,-2.95,-2.96,-2.97
35.97,2.52,5.49,2.54,5.50,-5.51,-5.74,-5.80,-2.99,-2.97,-2.97
36.33,2.52,5.48,2.52,5.49,-5.49,-5.74,-5.73,-2.97,-2.97,-2.96
36.70,2.52,5.48,2.51,5.47,-5.48,-5.73,-5.67,-2.96,-2.97,-2.96
37.06,2.50,5.46,2.50,5.46,-5.46,-5.73,-5.60,-2.96,-2.96,-2.96
37.43,2.47,5.43,2.48,5.44,-5.44,-5.71,-5.53,-2.97,-2.96,-2.96
37.81,2.47,5.43,2.47,5.43,-5.43,-5.70,-5.46,-2.96,-2.96,-2.96
38.19,2.47,5.43,2.47,5.43,-5.43,-5.68,-5.39,-2.96,-2.96,-2.96
38.57,2.47,5.43,2.47,5.42,-5.43,-5.66,-5.32,-2.96,-2.96,-2.96
38.95,2.47,5.43,2.47,5.42,-5.44,-5.64,-5.26,-2.97,-2.97,-2.96
39.34,2.47,5.42,2.48,5.43,-5.44,-5.62,-5.19,-2.97,-2.96,-2.95
39.74,2.49,5.44,2.49,5.45,-5.45,-5.59,-5.13,-2.96,-2.95,-2.95
40.14,2.52,5.47,2.51,5.46,-5.45,-5.56,-5.07,-2.93,-2.94,-2.95
40.54,2.52,5.47,2.53,5.47,-5.45,-5.53,-5.02,-2.93,-2.93,-2.95
40.94,2.52,5.47,2.52,5.47,-5.45,-5.50,-4.96,-2.93,-2.93,-2.95
41.35,2.52,5.47,2.51,5.45,-5.44,-5.47,-4.91,-2.92,-2.94,-2.95
41.76,2.47,5.42,2.49,5.43,-5.43,-5.44,-4.86,-2.96,-2.95,-2.95
42.18,2.47,5.41,2.46,5.41,-5.42,-5.41,-4.82,-2.95,-2.95,-2.94
42.60,2.44,5.38,2.45,5.39,-5.40,-5.38,-4.78,-2.96,-2.95,-2.94
43.03,2.43,5.37,2.43,5.37,-5.38,-5.35,-4.74,-2.95,-2.94,-2.94
43.46,2.43,5.37,2.41,5.35,-5.35,-5.32,-4.70,-2.92,-2.94,-2.94
43.90,2.38,5.32,2.40,5.34,-5.33,-5.29,-4.67,-2.95,-2.93,-2.94
44.33,2.38,5.32,2.38,5.32,-5.32,-5.27,-4.65,-2.94,-2.94,-2.94
44.78,2.38,5.32,2.36,5.29,-5.30,-5.24,-4.62,-2.92,-2.94,-2.94
45.23,2.33,5.26,2.35,5.28,-5.28,-5.21,-4.60,-2.95,-2.93,-2.93
45.68,2.33,5.26,2.33,5.26,-5.27,-5.18,-4.58,-2.94,-2.94,-2.93
46.13,2.33,5.26,2.31,5.24,-5.25,-5.16,-4.57,-2.92,-2.94,-2.93
46.60,2.29,5.22,2.31,5.24,-5.23,-5.13,-4.56,-2.94,-2.93,-2.93
47.06,2.29,5.22,2.29,5.22,-5.22,-5.11,-4.55,-2.93,-2.93,-2.93
47.53,2.29,5.22,2.27,5.20,-5.20,-5.08,-4.55,-2.91,-2.92,-2.93
48.01,2.24,5.17,2.26,5.18,-5.18,-5.06,-4.55,-2.94,-2.92,-2.93
48.49,2.24,5.16,2.23,5.16,-5.16,-5.04,-4.55,-2.92,-2.92,-2.92
48.97,2.20,5.12,2.20,5.13,-5.13,-5.02,-4.55,-2.93,-2.93,-2.92
49.46,2.19,5.11,2.19,5.11,-5.11,-4.99,-4.56,-2.92,-2.92,-2.92
49.96,2.15,5.07,2.16,5.08,-5.08,-4.97,-4.57,-2.93,-2.92,-2.92
50.46,2.15,5.07,2.14,5.06,-5.05,-4.95,-4.58,-2.90,-2.92,-2.92
50.96,2.10,5.02,2.11,5.03,-5.03,-4.93,-4.60,-2.93,-2.92,-2.92
51.47,2.09,5.01,2.08,5.00,-5.00,-4.91,-4.61,-2.91,-2.92,-2.92
51.99,2.05,4.97,2.06,4.97,-4.97,-4.89,-4.63,-2.92,-2.92,-2.92
52.51,2.04,4.95,2.03,4.95,-4.95,-4.88,-4.65,-2.91,-2.91,-2.91
53.03,2.01,4.92,2.01,4.92,-4.92,-4.86,-4.67,-2.91,-2.91,-2.91
53.56,1.98,4.89,1.98,4.90,-4.89,-4.84,-4.69,-2.91,-2.91,-2.91
54.10,1.96,4.87,1.96,4.87,-4.87,-4.82,-4.71,-2.91,-2.91,-2.91
54.64,1.93,4.84,1.93,4.84,-4.84,-4.80,-4.73,-2.91,-2.91,-2.91
55.18,1.91,4.82,1.91,4.82,-4.81,-4.78,-4.75,-2.91,-2.90,-2.91
55.74,1.88,4.79,1.88,4.79,-4.79,-4.77,-4.77,-2.91,-2.90,-2.91
56.29,1.87,4.77,1.86,4.76,-4.76,-4.75,-4.79,-2.89,-2.90,-2.90
56.86,1.82,4.72,1.83,4.73,-4.73,-4.73,-4.81,-2.91,-2.90,-2.90
57.42,1.81,4.71,1.80,4.70,-4.71,-4.71,-4.83,-2.90,-2.90,-2.90
58.00,1.77,4.67,1.78,4.68,-4.68,-4.69,-4.84,-2.91,-2.90,-2.90
58.58,1.75,4.65,1.75,4.65,-4.65,-4.68,-4.85,-2.90,-2.90,-2.90
59.16,1.73,4.63,1.72,4.62,-4.62,-4.66,-4.86,-2.89,-2.89,-2.90
59.76,1.69,4.59,1.70,4.59,-4.59,-4.64,-4.87,-2.90,-2.89,-2.90
60.35,1.68,4.57,1.67,4.56,-4.57,-4.62,-4.87,-2.89,-2.89,-2.89
60.96,1.63,4.52,1.64,4.53,-4.54,-4.60,-4.87,-2.91,-2.90,-2.89
61.57,1.63,4.52,1.62,4.51,-4.52,-4.58,-4.86,-2.89,-2.90,-2.89
62.18,1.59,4.48,1.60,4.49,-4.50,-4.56,-4.85,-2.91,-2.89,-2.89
62.80,1.59,4.48,1.58,4.47,-4.47,-4.54,-4.84,-2.88,-2.89,-2.89
63.43,1.57,4.46,1.57,4.46,-4.45,-4.52,-4.82,-2.88,-2.88,-2.89
64.07,1.54,4.43,1.55,4.44,-4.43,-4.50,-4.80,-2.89,-2.88,-2.89
64.71,1.54,4.42,1.52,4.41,-4.41,-4.48,-4.78,-2.87,-2.88,-2.88
65.35,1.49,4.37,1.50,4.38,-4.38,-4.46,-4.75,-2.89,-2.88,-2.88
66.01,1.47,4.35,1.47,4.35,-4.35,-4.44,-4.72,-2.88,-2.88,-2.88
66.67,1.45,4.33,1.44,4.32,-4.33,-4.41,-4.69,-2.88,-2.88,-2.88
67.33,1.41,4.29,1.42,4.30,-4.30,-4.39,-4.65,-2.89,-2.88,-2.88
68.01,1.40,4.28,1.39,4.27,-4.27,-4.36,-4.61,-2.87,-2.88,-2.88
68.69,1.35,4.23,1.36,4.24,-4.24,-4.34,-4.57,-2.89,-2.88,-2.88
69.37,1.34,4.21,1.34,4.21,-4.21,-4.31,-4.53,-2.87,-2.87,-2.88
70.07,1.31,4.18,1.31,4.18,-4.18,-4.29,-4.48,-2.87,-2.87,-2.87
70.77,1.28,4.15,1.28,4.15,-4.15,-4.26,-4.43,-2.87,-2.87,-2.87
71.48,1.26,4.13,1.25,4.12,-4.12,-4.23,-4.39,-2.86,-2.87,-2.87
72.19,1.21,4.08,1.22,4.09,-4.10,-4.20,-4.34,-2.89,-2.88,-2.87
72.91,1.21,4.08,1.20,4.07,-4.07,-4.17,-4.29,-2.86,-2.87,-2.87
73.64,1.17,4.04,1.18,4.05,-4.05,-4.14,-4.24,-2.88,-2.87,-2.87
74.38,1.17,4.04,1.16,4.03,-4.03,-4.11,-4.19,-2.86,-2.86,-2.87
75.12,1.15,4.01,1.15,4.01,-4.01,-4.08,-4.14,-2.86,-2.86,-2.86
75.87,1.12,3.98,1.13,3.99,-3.99,-4.05,-4.10,-2.87,-2.86,-2.86
76.63,1.12,3.98,1.10,3.96,-3.97,-4.02,-4.05,-2.85,-2.87,-2.86
77.40,1.07,3.93,1.09,3.95,-3.95,-3.99,-4.01,-2.88,-2.86,-2.86
78.17,1.07,3.93,1.07,3.93,-3.93,-3.96,-3.96,-2.86,-2.86,-2.86
78.95,1.07,3.93,1.06,3.91,-3.91,-3.93,-3.92,-2.84,-2.85,-2.86
79.74,1.03,3.89,1.04,3.90,-3.89,-3.90,-3.88,-2.86,-2.85,-2.86
80.54,1.03,3.88,1.02,3.87,-3.87,-3.87,-3.85,-2.84,-2.85,-2.85
81.35,0.98,3.83,0.99,3.85,-3.85,-3.85,-3.81,-2.87,-2.85,-2.85
82.16,0.98,3.83,0.97,3.83,-3.83,-3.82,-3.78,-2.85,-2.85,-2.85
82.98,0.96,3.81,0.95,3.80,-3.81,-3.80,-3.75,-2.85,-2.86,-2.85
83.81,0.93,3.78,0.94,3.79,-3.80,-3.78,-3.72,-2.87,-2.86,-2.85
84.65,0.93,3.78,0.93,3.78,-3.79,-3.77,-3.70,-2.86,-2.86,-2.85
85.50,0.93,3.78,0.93,3.77,-3.78,-3.76,-3.67,-2.85,-2.85,-2.85
86.35,0.93,3.77,0.93,3.77,-3.77,-3.75,-3.65,-2.84,-2.84,-2.84
87.22,0.93,3.77,0.93,3.78,-3.76,-3.74,-3.64,-2.83,-2.83,-2.84
88.09,0.93,3.77,0.93,3.77,-3.76,-3.73,-3.62,-2.83,-2.83,-2.84
88.97,0.93,3.77,0.92,3.76,-3.75,-3.73,-3.61,-2.82,-2.84,-2.84
89.86,0.89,3.73,0.90,3.74,-3.75,-3.73,-3.60,-2.86,-2.84,-2.84
90.76,0.89,3.73,0.89,3.73,-3.74,-3.73,-3.60,-2.85,-2.85,-2.84
91.66,0.89,3.73,0.89,3.72,-3.73,-3.74,-3.59,-2.84,-2.85,-2.84
92.58,0.89,3.73,0.89,3.73,-3.73,-3.74,-3.59,-2.84,-2.84,-2.84
93.51,0.89,3.72,0.89,3.72,-3.72,-3.75,-3.59,-2.83,-2.83,-2.83
94.44,0.89,3.72,0.89,3.72,-3.72,-3.76,-3.60,-2.83,-2.83,-2.83
95.39,0.89,3.72,0.89,3.72,-3.72,-3.77,-3.60,-2.83,-2.83,-2.83
96.34,0.89,3.72,0.89,3.72,-3.72,-3.77,-3.61,-2.83,-2.83,-2.83
97.30,0.89,3.72,0.89,3.72,-3.72,-3.78,-3.62,-2.83,-2.83,-2.83
98.28,0.89,3.72,0.89,3.71,-3.72,-3.79,-3.64,-2.83,-2.83,-2.83
99.26,0.89,3.72,0.89,3.72,-3.73,-3.80,-3.65,-2.84,-2.83,-2.83
100.25,0.89,3.71,0.90,3.72,-3.73,-3.81,-3.67,-2.84,-2.83,-2.82
101.25,0.92,3.74,0.91,3.74,-3.73,-3.81,-3.69,-2.81,-2.82,-2.82
102.27,0.93,3.75,0.93,3.75,-3.74,-3.82,-3.71,-2.81,-2.81,-2.82
103.29,0.93,3.75,0.93,3.75,-3.74,-3.82,-3.73,-2.81,-2.81,-2.82
104.32,0.93,3.75,0.93,3.75,-3.75,-3.83,-3.75,-2.82,-2.81,-2.82
105.37,0.93,3.75,0.93,3.75,-3.75,-3.83,-3.78,-2.82,-2.82,-2.82
106.42,0.93,3.75,0.93,3.75,-3.75,-3.83,-3.80,-2.82,-2.82,-2.82
107.48,0.93,3.74,0.93,3.74,-3.75,-3.83,-3.82,-2.82,-2.82,-2.81
108.56,0.93,3.74,0.93,3.74,-3.75,-3.83,-3.85,-2.82,-2.82,-2.81
109.64,0.93,3.74,0.93,3.74,-3.75,-3.83,-3.87,-2.82,-2.82,-2.81
110.74,0.93,3.74,0.93,3.74,-3.75,-3.83,-3.90,-2.82,-2.82,-2.81
111.85,0.93,3.74,0.94,3.75,-3.75,-3.83,-3.92,-2.82,-2.81,-2.81
112.97,0.96,3.77,0.95,3.76,-3.75,-3.83,-3.94,-2.79,-2.80,-2.81
114.10,0.96,3.77,0.96,3.76,-3.75,-3.82,-3.96,-2.79,-2.79,-2.81
115.24,0.96,3.76,0.95,3.76,-3.75,-3.82,-3.98,-2.79,-2.80,-2.80
116.39,0.93,3.73,0.94,3.74,-3.75,-3.81,-3.99,-2.82,-2.81,-2.80
117.55,0.93,3.73,0.93,3.73,-3.74,-3.80,-4.00,-2.81,-2.81,-2.80
118.73,0.93,3.73,0.93,3.73,-3.74,-3.80,-4.01,-2.81,-2.81,-2.80
119.92,0.93,3.73,0.93,3.73,-3.72,-3.79,-4.02,-2.79,-2.80,-2.80
121.12,0.93,3.73,0.92,3.72,-3.71,-3.78,-4.03,-2.78,-2.79,-2.80
122.33,0.90,3.70,0.91,3.71,-3.70,-3.77,-4.03,-2.80,-2.79,-2.80
123.55,0.89,3.69,0.89,3.69,-3.68,-3.76,-4.02,-2.79,-2.79,-2.80
124.79,0.89,3.68,0.87,3.67,-3.67,-3.75,-4.02,-2.78,-2.80,-2.79
126.03,0.85,3.64,0.86,3.65,-3.66,-3.74,-4.01,-2.81,-2.80,-2.79
127.29,0.84,3.63,0.85,3.64,-3.64,-3.73,-4.00,-2.80,-2.80,-2.79
128.57,0.84,3.63,0.84,3.63,-3.63,-3.72,-3.98,-2.79,-2.79,-2.79
129.85,0.84,3.63,0.84,3.63,-3.62,-3.71,-3.96,-2.78,-2.78,-2.79
131.15,0.84,3.63,0.83,3.62,-3.62,-3.70,-3.94,-2.78,-2.78,-2.79
132.46,0.82,3.61,0.82,3.61,-3.61,-3.69,-3.91,-2.79,-2.79,-2.79
133.79,0.82,3.60,0.82,3.61,-3.61,-3.67,-3.88,-2.79,-2.79,-2.78
135.12,0.82,3.60,0.82,3.61,-3.61,-3.66,-3.85,-2.79,-2.79,-2.78
136.48,0.84,3.62,0.83,3.61,-3.61,-3.65,-3.82,-2.77,-2.78,-2.78
137.84,0.84,3.62,0.84,3.62,-3.61,-3.63,-3.78,-2.77,-2.77,-2.78
139.22,0.84,3.62,0.84,3.62,-3.61,-3.62,-3.74,-2.77,-2.77,-2.78
140.61,0.84,3.62,0.84,3.62,-3.62,-3.60,-3.70,-2.78,-2.78,-2.78
142.02,0.84,3.62,0.84,3.62,-3.62,-3.59,-3.66,-2.78,-2.78,-2.78
143.44,0.84,3.61,0.84,3.61,-3.62,-3.57,-3.62,-2.78,-2.78,-2.77
144.87,0.84,3.61,0.84,3.61,-3.61,-3.56,-3.58,-2.77,-2.77,-2.77
146.32,0.84,3.61,0.84,3.61,-3.61,-3.54,-3.54,-2.77,-2.77,-2.77
147.78,0.84,3.61,0.84,3.61,-3.61,-3.52,-3.50,-2.77,-2.77,-2.77
149.26,0.84,3.61,0.84,3.61,-3.61,-3.51,-3.45,-2.77,-2.77,-2.77
150.75,0.84,3.61,0.84,3.61,-3.61,-3.49,-3.41,-2.77,-2.77,-2.77
152.26,0.84,3.61,0.84,3.61,-3.61,-3.47,-3.37,-2.77,-2.77,-2.77
153.78,0.84,3.60,0.84,3.60,-3.61,-3.46,-3.33,-2.77,-2.77,-2.76
155.32,0.84,3.60,0.84,3.61,-3.60,-3.44,-3.29,-2.76,-2.76,-2.76
156.88,0.84,3.60,0.84,3.60,-3.59,-3.42,-3.25,-2.75,-2.75,-2.76
158.44,0.84,3.60,0.83,3.59,-3.58,-3.40,-3.22,-2.74,-2.75,-2.76
160.03,0.82,3.58,0.82,3.58,-3.58,-3.39,-3.18,-2.76,-2.76,-2.76
161.63,0.79,3.55,0.80,3.56,-3.57,-3.37,-3.15,-2.78,-2.77,-2.76
163.24,0.79,3.55,0.79,3.55,-3.56,-3.35,-3.12,-2.77,-2.77,-2.76
164.88,0.79,3.55,0.79,3.54,-3.55,-3.33,-3.09,-2.76,-2.77,-2.76
166.53,0.79,3.54,0.79,3.54,-3.55,-3.31,-3.06,-2.76,-2.76,-2.75
168.19,0.79,3.54,0.79,3.54,-3.54,-3.29,-3.03,-2.75,-2.75,-2.75
169.87,0.79,3.54,0.79,3.54,-3.53,-3.27,-3.01,-2.74,-2.74,-2.75
171.57,0.79,3.54,0.79,3.54,-3.53,-3.25,-2.99,-2.74,-2.74,-2.75
173.29,0.78,3.53,0.77,3.52,-3.52,-3.24,-2.97,-2.74,-2.75,-2.75
175.02,0.75,3.50,0.76,3.51,-3.51,-3.22,-2.95,-2.76,-2.75,-2.75
176.77,0.75,3.50,0.76,3.50,-3.50,-3.20,-2.94,-2.75,-2.75,-2.75
178.54,0.75,3.49,0.74,3.49,-3.49,-3.18,-2.93,-2.74,-2.74,-2.74
180.32,0.75,3.49,0.73,3.48,-3.47,-3.16,-2.92,-2.72,-2.74,-2.74
182.13,0.70,3.44,0.72,3.46,-3.46,-3.14,-2.91,-2.76,-2.74,-2.74
183.95,0.70,3.44,0.70,3.44,-3.44,-3.12,-2.90,-2.74,-2.74,-2.74
185.79,0.70,3.44,0.68,3.42,-3.42,-3.10,-2.90,-2.72,-2.75,-2.74
187.65,0.65,3.39,0.67,3.41,-3.41,-3.08,-2.90,-2.76,-2.74,-2.74
189.52,0.65,3.39,0.65,3.39,-3.39,-3.06,-2.90,-2.74,-2.74,-2.74
191.42,0.65,3.38,0.63,3.37,-3.37,-3.04,-2.90,-2.72,-2.74,-2.73
193.33,0.61,3.34,0.63,3.36,-3.35,-3.01,-2.90,-2.74,-2.73,-2.73
195.27,0.61,3.34,0.60,3.34,-3.33,-2.99,-2.91,-2.72,-2.73,-2.73
197.22,0.59,3.32,0.59,3.32,-3.32,-2.97,-2.92,-2.73,-2.73,-2.73
199.19,0.56,3.29,0.57,3.30,-3.30,-2.95,-2.93,-2.74,-2.73,-2.73
201.18,0.56,3.29,0.55,3.27,-3.27,-2.93,-2.94,-2.71,-2.73,-2.73
203.19,0.52,3.25,0.53,3.26,-3.26,-2.91,-2.95,-2.74,-2.72,-2.73
205.23,0.51,3.23,0.51,3.24,-3.24,-2.89,-2.96,-2.73,-2.72,-2.72
207.28,0.51,3.23,0.49,3.22,-3.22,-2.87,-2.97,-2.71,-2.73,-2.72
209.35,0.47,3.19,0.48,3.20,-3.21,-2.85,-2.99,-2.74,-2.73,-2.72
211.44,0.47,3.19,0.47,3.19,-3.20,-2.83,-3.00,-2.73,-2.73,-2.72
213.56,0.47,3.19,0.47,3.19,-3.19,-2.81,-3.02,-2.72,-2.73,-2.72
215.69,0.47,3.19,0.47,3.19,-3.19,-2.79,-3.03,-2.72,-2.72,-2.72
217.85,0.47,3.19,0.47,3.19,-3.18,-2.76,-3.05,-2.71,-2.71,-2.72
220.03,0.47,3.19,0.47,3.19,-3.17,-2.74,-3.06,-2.70,-2.70,-2.72
222.23,0.47,3.18,0.46,3.17,-3.17,-2.72,-3.08,-2.70,-2.71,-2.71
224.45,0.44,3.15,0.44,3.16,-3.16,-2.70,-3.09,-2.72,-2.72,-2.71
226.70,0.42,3.13,0.43,3.14,-3.15,-2.68,-3.10,-2.73,-2.72,-2.71
228.96,0.42,3.13,0.42,3.13,-3.14,-2.66,-3.11,-2.72,-2.72,-2.71
231.25,0.42,3.13,0.42,3.13,-3.12,-2.64,-3.12,-2.70,-2.71,-2.71
233.57,0.42,3.13,0.41,3.12,-3.11,-2.62,-3.13,-2.69,-2.70,-2.71
235.90,0.38,3.09,0.39,3.10,-3.09,-2.60,-3.13,-2.71,-2.70,-2.71
238.26,0.37,3.07,0.37,3.07,-3.07,-2.58,-3.13,-2.70,-2.70,-2.70
240.64,0.34,3.04,0.34,3.05,-3.05,-2.56,-3.13,-2.71,-2.71,-2.70
243.05,0.33,3.03,0.33,3.03,-3.03,-2.54,-3.13,-2.70,-2.70,-2.70
245.48,0.30,3.00,0.30,3.00,-3.00,-2.52,-3.12,-2.70,-2.70,-2.70
247.93,0.28,2.98,0.28,2.98,-2.98,-2.50,-3.11,-2.70,-2.70,-2.70
250.41,0.24,2.94,0.25,2.95,-2.95,-2.48,-3.10,-2.71,-2.70,-2.70
252.92,0.23,2.93,0.22,2.92,-2.92,-2.46,-3.09,-2.69,-2.69,-2.70
255.45,0.19,2.88,0.19,2.89,-2.88,-2.44,-3.07,-2.69,-2.69,-2.69
258.00,0.16,2.85,0.16,2.85,-2.85,-2.42,-3.05,-2.69,-2.69,-2.69
260.58,0.12,2.81,0.12,2.81,-2.81,-2.40,-3.02,-2.69,-2.69,-2.69
263.19,0.08,2.77,0.08,2.77,-2.77,-2.38,-3.00,-2.69,-2.69,-2.69
265.82,0.05,2.74,0.04,2.73,-2.73,-2.36,-2.97,-2.68,-2.69,-2.69
268.48,-0.01,2.68,-0.00,2.68,-2.69,-2.34,-2.94,-2.70,-2.69,-2.69
271.16,-0.04,2.65,-0.04,2.64,-2.65,-2.32,-2.90,-2.69,-2.69,-2.69
273.87,-0.09,2.59,-0.08,2.60,-2.61,-2.30,-2.87,-2.70,-2.70,-2.69
276.61,-0.10,2.58,-0.11,2.58,-2.58,-2.28,-2.83,-2.68,-2.69,-2.68
279.38,-0.14,2.54,-0.13,2.55,-2.55,-2.26,-2.79,-2.69,-2.68,-2.68
282.17,-0.14,2.54,-0.15,2.53,-2.52,-2.24,-2.75,-2.66,-2.68,-2.68
284.99,-0.19,2.49,-0.18,2.50,-2.50,-2.23,-2.71,-2.69,-2.68,-2.68
287.84,-0.20,2.48,-0.20,2.47,-2.47,-2.21,-2.66,-2.67,-2.67,-2.68
290.72,-0.23,2.45,-0.23,2.45,-2.44,-2.19,-2.62,-2.67,-2.68,-2.68
293.63,-0.26,2.42,-0.26,2.42,-2.42,-2.17,-2.58,-2.68,-2.68,-2.68
296.57,-0.28,2.39,-0.28,2.39,-2.39,-2.15,-2.53,-2.67,-2.68,-2.67
299.53,-0.32,2.35,-0.31,2.36,-2.36,-2.14,-2.49,-2.68,-2.68,-2.67
302.53,-0.33,2.34,-0.34,2.33,-2.33,-2.12,-2.44,-2.66,-2.67,-2.67
305.55,-0.37,2.30,-0.36,2.31,-2.31,-2.10,-2.40,-2.68,-2.67,-2.67
308.61,-0.39,2.28,-0.39,2.28,-2.27,-2.09,-2.35,-2.66,-2.67,-2.67
311.69,-0.42,2.25,-0.42,2.24,-2.24,-2.07,-2.31,-2.66,-2.67,-2.67
314.81,-0.46,2.21,-0.45,2.21,-2.21,-2.05,-2.27,-2.67,-2.66,-2.67
317.96,-0.49,2.17,-0.49,2.17,-2.17,-2.04,-2.22,-2.66,-2.66,-2.66
321.14,-0.52,2.14,-0.53,2.14,-2.13,-2.02,-2.18,-2.65,-2.66,-2.66
324.35,-0.57,2.09,-0.57,2.10,-2.10,-2.01,-2.14,-2.67,-2.66,-2.66
327.59,-0.61,2.05,-0.61,2.05,-2.05,-1.99,-2.10,-2.66,-2.66,-2.66
330.87,-0.65,2.01,-0.65,2.01,-2.01,-1.98,-2.06,-2.66,-2.66,-2.66
334.18,-0.69,1.97,-0.69,1.97,-1.97,-1.96,-2.03,-2.66,-2.66,-2.66
337.52,-0.72,1.94,-0.73,1.93,-1.93,-1.95,-1.99,-2.65,-2.66,-2.66
340.90,-0.78,1.87,-0.77,1.88,-1.88,-1.94,-1.96,-2.66,-2.65,-2.65
344.30,-0.82,1.83,-0.82,1.84,-1.84,-1.92,-1.92,-2.66,-2.65,-2.65
347.75,-0.86,1.79,-0.87,1.79,-1.79,-1.91,-1.89,-2.65,-2.65,-2.65
351.23,-0.91,1.74,-0.91,1.74,-1.74,-1.90,-1.86,-2.65,-2.64,-2.65
354.74,-0.96,1.69,-0.95,1.69,-1.68,-1.88,-1.83,-2.64,-2.64,-2.65
358.28,-1.00,1.65,-1.01,1.64,-1.63,-1.87,-1.81,-2.63,-2.64,-2.65
361.87,-1.06,1.59,-1.06,1.58,-1.58,-1.86,-1.78,-2.64,-2.65,-2.65
365.49,-1.13,1.52,-1.12,1.52,-1.53,-1.85,-1.76,-2.66,-2.65,-2.65
369.14,-1.17,1.47,-1.17,1.47,-1.49,-1.84,-1.73,-2.66,-2.66,-2.64
372.83,-1.21,1.43,-1.20,1.44,-1.45,-1.83,-1.71,-2.66,-2.65,-2.64
376.56,-1.23,1.41,-1.24,1.40,-1.41,-1.82,-1.69,-2.64,-2.64,-2.64
380.33,-1.26,1.38,-1.27,1.37,-1.37,-1.81,-1.67,-2.63,-2.64,-2.64
384.13,-1.31,1.33,-1.29,1.34,-1.34,-1.80,-1.65,-2.65,-2.63,-2.64
387.97,-1.32,1.32,-1.33,1.31,-1.30,-1.79,-1.63,-2.62,-2.63,-2.64
391.85,-1.35,1.29,-1.36,1.28,-1.27,-1.78,-1.62,-2.62,-2.63,-2.64
395.77,-1.40,1.23,-1.39,1.25,-1.24,-1.77,-1.60,-2.64,-2.63,-2.63
399.73,-1.41,1.22,-1.42,1.21,-1.22,-1.76,-1.59,-2.63,-2.64,-2.63
403.72,-1.45,1.18,-1.45,1.18,-1.19,-1.76,-1.58,-2.64,-2.64,-2.63
407.76,-1.48,1.15,-1.47,1.16,-1.16,-1.75,-1.57,-2.64,-2.63,-2.63
411.84,-1.49,1.14,-1.49,1.14,-1.14,-1.74,-1.56,-2.63,-2.63,-2.63
415.96,-1.49,1.14,-1.51,1.12,-1.12,-1.74,-1.55,-2.61,-2.63,-2.63
420.12,-1.54,1.09,-1.52,1.10,-1.10,-1.73,-1.54,-2.64,-2.62,-2.63
424.32,-1.54,1.08,-1.54,1.09,-1.09,-1.73,-1.53,-2.63,-2.62,-2.62
428.56,-1.54,1.08,-1.55,1.07,-1.08,-1.72,-1.53,-2.62,-2.63,-2.62
432.85,-1.56,1.06,-1.55,1.07,-1.07,-1.72,-1.52,-2.63,-2.62,-2.62
437.18,-1.56,1.06,-1.56,1.06,-1.06,-1.72,-1.52,-2.62,-2.62,-2.62
441.55,-1.56,1.06,-1.56,1.06,-1.06,-1.71,-1.51,-2.62,-2.62,-2.62
445.96,-1.56,1.06,-1.56,1.06,-1.06,-1.71,-1.51,-2.62,-2.62,-2.62
450.42,-1.55,1.07,-1.55,1.06,-1.06,-1.71,-1.51,-2.61,-2.61,-2.62
454.93,-1.54,1.07,-1.55,1.07,-1.07,-1.71,-1.51,-2.61,-2.62,-2.61
459.48,-1.54,1.07,-1.53,1.08,-1.08,-1.71,-1.50,-2.62,-2.61,-2.61
