frequency,raw,error,smoothed,error_smoothed,equalization,parametric_eq,fixed_band_eq,equalized_raw,equalized_smoothed,target
20.00,-2.69,-4.77,-2.69,-4.77,4.80,4.70,1.74,2.11,2.11,2.08
20.20,-2.65,-4.77,-2.65,-4.77,4.78,4.69,1.79,2.13,2.13,2.12
20.40,-2.61,-4.77,-2.61,-4.77,4.76,4.69,1.84,2.15,2.15,2.16
20.61,-2.57,-4.75,-2.57,-4.76,4.74,4.68,1.89,2.17,2.17,2.18
20.81,-2.53,-4.75,-2.53,-4.75,4.72,4.67,1.95,2.19,2.19,2.22
21.02,-2.48,-4.74,-2.48,-4.73,4.70,4.65,2.01,2.22,2.22,2.26
21.23,-2.43,-4.70,-2.43,-4.70,4.67,4.64,2.06,2.25,2.25,2.27
21.44,-2.37,-4.66,-2.37,-4.66,4.65,4.62,2.12,2.28,2.28,2.29
21.66,-2.31,-4.61,-2.31,-4.60,4.62,4.61,2.18,2.31,2.31,2.30
21.87,-2.25,-4.55,-2.26,-4.56,4.59,4.59,2.25,2.34,2.33,2.30
22.09,-2.22,-4.53,-2.22,-4.53,4.56,4.57,2.31,2.34,2.34,2.31
22.31,-2.21,-4.52,-2.21,-4.51,4.53,4.55,2.38,2.32,2.32,2.31
22.54,-2.20,-4.51,-2.20,-4.51,4.50,4.53,2.44,2.30,2.30,2.31
22.76,-2.20,-4.50,-2.20,-4.50,4.47,4.50,2.51,2.27,2.28,2.30
22.99,-2.19,-4.48,-2.18,-4.47,4.45,4.48,2.58,2.26,2.27,2.29
23.22,-2.15,-4.44,-2.15,-4.44,4.42,4.45,2.66,2.27,2.27,2.29
23.45,-2.11,-4.39,-2.11,-4.39,4.39,4.43,2.73,2.28,2.28,2.28
23.69,-2.07,-4.35,-2.06,-4.34,4.35,4.40,2.80,2.28,2.29,2.28
23.92,-2.02,-4.29,-2.03,-4.30,4.32,4.38,2.88,2.30,2.29,2.28
24.16,-1.99,-4.27,-1.99,-4.27,4.28,4.35,2.96,2.29,2.29,2.29
24.40,-1.97,-4.25,-1.96,-4.24,4.25,4.32,3.04,2.28,2.28,2.28
24.65,-1.94,-4.21,-1.94,-4.22,4.21,4.29,3.12,2.27,2.27,2.27
24.89,-1.91,-4.18,-1.91,-4.19,4.18,4.27,3.20,2.27,2.27,2.27
25.14,-1.89,-4.16,-1.88,-4.16,4.15,4.24,3.28,2.26,2.27,2.27
25.39,-1.86,-4.13,-1.86,-4.13,4.12,4.21,3.36,2.26,2.26,2.27
25.65,-1.83,-4.09,-1.83,-4.09,4.09,4.18,3.44,2.26,2.26,2.26
25.91,-1.81,-4.06,-1.81,-4.06,4.06,4.15,3.52,2.25,2.25,2.25
26.16,-1.78,-4.03,-1.78,-4.03,4.03,4.12,3.61,2.25,2.25,2.25
26.43,-1.76,-4.01,-1.75,-4.00,4.01,4.09,3.69,2.25,2.25,2.25
26.69,-1.73,-3.98,-1.73,-3.97,3.99,4.06,3.77,2.26,2.26,2.25
26.96,-1.70,-3.94,-1.71,-3.95,3.97,4.04,3.84,2.27,2.26,2.24
27.23,-1.70,-3.94,-1.70,-3.94,3.95,4.01,3.92,2.25,2.25,2.24
27.50,-1.70,-3.94,-1.70,-3.93,3.93,3.98,3.99,2.23,2.23,2.24
27.77,-1.70,-3.93,-1.70,-3.93,3.91,3.95,4.07,2.21,2.21,2.23
28.05,-1.69,-3.92,-1.69,-3.91,3.89,3.93,4.13,2.20,2.21,2.23
28.33,-1.67,-3.88,-1.67,-3.88,3.88,3.90,4.20,2.21,2.21,2.22
28.62,-1.64,-3.85,-1.64,-3.85,3.87,3.87,4.26,2.23,2.23,2.21
28.90,-1.61,-3.82,-1.62,-3.83,3.85,3.85,4.32,2.24,2.24,2.21
29.19,-1.60,-3.81,-1.60,-3.82,3.83,3.82,4.37,2.23,2.23,2.21
29.48,-1.60,-3.82,-1.60,-3.82,3.81,3.80,4.42,2.21,2.21,2.22
29.78,-1.60,-3.81,-1.60,-3.81,3.79,3.77,4.46,2.19,2.20,2.21
30.08,-1.59,-3.81,-1.58,-3.80,3.77,3.75,4.49,2.19,2.19,2.22
30.38,-1.56,-3.76,-1.56,-3.76,3.76,3.73,4.52,2.20,2.20,2.20
30.68,-1.53,-3.73,-1.53,-3.73,3.74,3.71,4.55,2.21,2.21,2.20
30.99,-1.50,-3.69,-1.51,-3.70,3.72,3.69,4.57,2.22,2.21,2.19
31.30,-1.50,-3.68,-1.50,-3.69,3.69,3.66,4.58,2.20,2.19,2.19
31.61,-1.50,-3.68,-1.50,-3.68,3.67,3.64,4.58,2.17,2.17,2.18
31.93,-1.50,-3.66,-1.49,-3.66,3.64,3.63,4.58,2.14,2.14,2.16
32.24,-1.48,-3.63,-1.47,-3.63,3.61,3.61,4.57,2.13,2.14,2.15
32.57,-1.44,-3.59,-1.44,-3.59,3.59,3.59,4.56,2.15,2.14,2.15
32.89,-1.41,-3.55,-1.42,-3.55,3.56,3.57,4.54,2.16,2.15,2.14
33.22,-1.40,-3.52,-1.40,-3.52,3.54,3.56,4.52,2.14,2.14,2.12
33.55,-1.40,-3.51,-1.40,-3.51,3.52,3.54,4.49,2.12,2.12,2.12
33.89,-1.40,-3.49,-1.40,-3.50,3.50,3.53,4.45,2.10,2.10,2.09
34.23,-1.40,-3.49,-1.40,-3.49,3.48,3.51,4.41,2.08,2.08,2.09
34.57,-1.40,-3.47,-1.40,-3.47,3.47,3.50,4.37,2.07,2.07,2.07
34.92,-1.40,-3.46,-1.40,-3.46,3.46,3.49,4.33,2.06,2.06,2.06
35.27,-1.40,-3.46,-1.40,-3.45,3.45,3.47,4.28,2.05,2.05,2.06
35.62,-1.40,-3.43,-1.40,-3.44,3.43,3.46,4.23,2.04,2.04,2.03
35.97,-1.40,-3.42,-1.40,-3.43,3.42,3.45,4.18,2.02,2.02,2.02
36.33,-1.40,-3.42,-1.40,-3.41,3.41,3.44,4.12,2.01,2.01,2.02
36.70,-1.40,-3.41,-1.40,-3.41,3.41,3.43,4.07,2.01,2.01,2.01
37.06,-1.40,-3.40,-1.40,-3.40,3.40,3.42,4.01,2.01,2.01,2.00
37.43,-1.40,-3.40,-1.40,-3.39,3.41,3.42,3.95,2.01,2.01,2.00
37.81,-1.40,-3.39,-1.40,-3.39,3.41,3.41,3.90,2.02,2.01,1.99
38.19,-1.42,-3.40,-1.43,-3.41,3.42,3.40,3.84,2.00,1.99,1.98
38.57,-1.46,-3.44,-1.46,-3.44,3.43,3.39,3.79,1.97,1.97,1.99
38.95,-1.50,-3.47,-1.49,-3.46,3.44,3.39,3.73,1.94,1.96,1.97
39.34,-1.50,-3.47,-1.50,-3.47,3.45,3.38,3.68,1.95,1.95,1.97
39.74,-1.50,-3.46,-1.50,-3.46,3.45,3.38,3.63,1.96,1.95,1.96
40.14,-1.50,-3.45,-1.50,-3.45,3.46,3.37,3.58,1.96,1.96,1.95
40.54,-1.50,-3.45,-1.50,-3.45,3.45,3.37,3.53,1.95,1.95,1.95
40.94,-1.50,-3.45,-1.50,-3.44,3.45,3.36,3.48,1.95,1.95,1.95
41.35,-1.50,-3.43,-1.50,-3.43,3.44,3.36,3.43,1.94,1.94,1.93
41.76,-1.50,-3.42,-1.50,-3.42,3.43,3.36,3.39,1.93,1.93,1.92
42.18,-1.50,-3.41,-1.50,-3.41,3.42,3.35,3.35,1.92,1.92,1.91
42.60,-1.50,-3.40,-1.50,-3.40,3.40,3.35,3.31,1.90,1.90,1.90
43.03,-1.50,-3.40,-1.50,-3.39,3.38,3.35,3.28,1.88,1.88,1.90
43.46,-1.50,-3.37,-1.50,-3.37,3.35,3.34,3.24,1.86,1.85,1.87
43.90,-1.50,-3.35,-1.49,-3.34,3.33,3.34,3.21,1.83,1.84,1.85
44.33,-1.47,-3.30,-1.47,-3.30,3.29,3.34,3.18,1.82,1.82,1.83
44.78,-1.44,-3.25,-1.44,-3.26,3.26,3.33,3.16,1.82,1.82,1.81
45.23,-1.42,-3.21,-1.42,-3.21,3.23,3.33,3.13,1.81,1.81,1.79
45.68,-1.41,-3.19,-1.41,-3.18,3.20,3.33,3.11,1.79,1.80,1.78
46.13,-1.40,-3.16,-1.40,-3.17,3.18,3.32,3.09,1.78,1.78,1.76
46.60,-1.40,-3.16,-1.40,-3.16,3.16,3.32,3.08,1.76,1.76,1.76
47.06,-1.40,-3.15,-1.40,-3.15,3.14,3.31,3.06,1.74,1.75,1.75
47.53,-1.40,-3.14,-1.40,-3.14,3.13,3.31,3.05,1.73,1.73,1.74
48.01,-1.40,-3.14,-1.40,-3.13,3.12,3.30,3.04,1.72,1.72,1.74
48.49,-1.40,-3.12,-1.40,-3.12,3.12,3.30,3.03,1.72,1.72,1.72
48.97,-1.40,-3.10,-1.40,-3.11,3.11,3.29,3.02,1.71,1.71,1.70
49.46,-1.40,-3.10,-1.40,-3.09,3.10,3.28,3.02,1.70,1.70,1.70
49.96,-1.40,-3.08,-1.40,-3.09,3.09,3.28,3.02,1.69,1.69,1.68
50.46,-1.40,-3.09,-1.40,-3.09,3.08,3.27,3.02,1.68,1.68,1.69
50.96,-1.40,-3.08,-1.40,-3.08,3.08,3.26,3.02,1.68,1.68,1.68
51.47,-1.40,-3.08,-1.40,-3.08,3.08,3.25,3.02,1.68,1.68,1.68
51.99,-1.40,-3.07,-1.40,-3.07,3.08,3.24,3.02,1.69,1.69,1.67
52.51,-1.41,-3.08,-1.40,-3.07,3.09,3.23,3.03,1.68,1.69,1.67
53.03,-1.41,-3.08,-1.43,-3.09,3.10,3.22,3.03,1.69,1.67,1.67
53.56,-1.46,-3.12,-1.46,-3.12,3.11,3.20,3.04,1.65,1.65,1.66
54.10,-1.50,-3.15,-1.48,-3.14,3.12,3.19,3.04,1.62,1.63,1.65
54.64,-1.50,-3.15,-1.50,-3.15,3.13,3.18,3.05,1.63,1.63,1.65
55.18,-1.50,-3.14,-1.50,-3.14,3.14,3.16,3.05,1.64,1.64,1.64
55.74,-1.50,-3.13,-1.50,-3.13,3.15,3.15,3.06,1.65,1.65,1.63
56.29,-1.51,-3.14,-1.51,-3.14,3.15,3.13,3.06,1.64,1.64,1.63
56.86,-1.54,-3.15,-1.54,-3.15,3.15,3.11,3.06,1.62,1.61,1.61
57.42,-1.57,-3.16,-1.57,-3.17,3.15,3.09,3.07,1.58,1.58,1.60
58.00,-1.60,-3.18,-1.59,-3.17,3.15,3.08,3.07,1.55,1.56,1.58
58.58,-1.60,-3.17,-1.60,-3.17,3.16,3.06,3.06,1.56,1.56,1.57
59.16,-1.60,-3.16,-1.60,-3.15,3.16,3.03,3.06,1.57,1.57,1.56
59.76,-1.60,-3.13,-1.61,-3.15,3.17,3.01,3.06,1.57,1.56,1.53
60.35,-1.64,-3.15,-1.64,-3.16,3.17,2.99,3.05,1.53,1.53,1.51
60.96,-1.70,-3.18,-1.70,-3.18,3.18,2.97,3.04,1.48,1.48,1.48
61.57,-1.76,-3.20,-1.75,-3.19,3.18,2.94,3.02,1.43,1.43,1.44
62.18,-1.80,-3.20,-1.79,-3.19,3.19,2.92,3.01,1.39,1.40,1.40
62.80,-1.80,-3.17,-1.81,-3.18,3.18,2.89,2.99,1.38,1.37,1.37
63.43,-1.83,-3.16,-1.84,-3.17,3.17,2.87,2.97,1.34,1.33,1.33
64.07,-1.86,-3.15,-1.86,-3.16,3.14,2.84,2.95,1.28,1.28,1.29
64.71,-1.89,-3.15,-1.87,-3.13,3.10,2.81,2.92,1.22,1.23,1.26
65.35,-1.86,-3.09,-1.85,-3.08,3.05,2.78,2.89,1.19,1.20,1.23
66.01,-1.80,-2.99,-1.80,-2.99,2.99,2.76,2.86,1.19,1.19,1.19
66.67,-1.74,-2.89,-1.76,-2.91,2.92,2.73,2.83,1.18,1.17,1.15
67.33,-1.71,-2.83,-1.71,-2.83,2.85,2.70,2.79,1.14,1.13,1.12
68.01,-1.70,-2.78,-1.67,-2.76,2.77,2.67,2.76,1.07,1.09,1.08
68.69,-1.63,-2.67,-1.65,-2.69,2.68,2.64,2.72,1.05,1.04,1.04
69.37,-1.60,-2.60,-1.61,-2.61,2.60,2.61,2.68,1.00,1.00,1.00
70.07,-1.59,-2.55,-1.56,-2.52,2.53,2.57,2.64,0.94,0.97,0.96
70.77,-1.52,-2.45,-1.53,-2.46,2.46,2.54,2.59,0.94,0.93,0.93
71.48,-1.50,-2.38,-1.51,-2.39,2.40,2.51,2.55,0.90,0.89,0.88
72.19,-1.50,-2.34,-1.49,-2.33,2.34,2.48,2.50,0.84,0.85,0.84
72.91,-1.50,-2.28,-1.50,-2.29,2.29,2.45,2.46,0.79,0.79,0.78
73.64,-1.50,-2.24,-1.50,-2.24,2.24,2.41,2.41,0.74,0.74,0.74
74.38,-1.50,-2.19,-1.50,-2.19,2.19,2.38,2.37,0.69,0.69,0.69
75.12,-1.50,-2.15,-1.50,-2.15,2.15,2.35,2.32,0.65,0.65,0.65
75.87,-1.50,-2.11,-1.50,-2.11,2.11,2.31,2.27,0.61,0.61,0.61
76.63,-1.50,-2.07,-1.50,-2.07,2.07,2.28,2.23,0.57,0.57,0.57
77.40,-1.50,-2.04,-1.50,-2.04,2.03,2.25,2.18,0.53,0.53,0.54
78.17,-1.50,-2.00,-1.50,-2.00,2.00,2.21,2.14,0.50,0.50,0.50
78.95,-1.50,-1.97,-1.50,-1.97,1.97,2.18,2.09,0.47,0.47,0.47
79.74,-1.50,-1.94,-1.50,-1.94,1.95,2.15,2.05,0.45,0.45,0.44
80.54,-1.50,-1.91,-1.51,-1.92,1.94,2.12,2.01,0.44,0.43,0.41
81.35,-1.53,-1.91,-1.53,-1.91,1.93,2.08,1.97,0.40,0.40,0.38
82.16,-1.58,-1.93,-1.57,-1.92,1.93,2.05,1.92,0.35,0.36,0.35
82.98,-1.60,-1.93,-1.61,-1.93,1.92,2.02,1.89,0.32,0.31,0.33
83.81,-1.65,-1.93,-1.65,-1.94,1.92,1.98,1.85,0.27,0.27,0.28
84.65,-1.69,-1.94,-1.68,-1.93,1.92,1.95,1.81,0.23,0.24,0.25
85.50,-1.70,-1.93,-1.70,-1.92,1.91,1.92,1.77,0.21,0.21,0.23
86.35,-1.70,-1.89,-1.70,-1.90,1.89,1.89,1.74,0.19,0.19,0.19
87.22,-1.70,-1.86,-1.70,-1.86,1.87,1.86,1.71,0.17,0.17,0.16
88.09,-1.70,-1.82,-1.70,-1.83,1.83,1.83,1.67,0.13,0.13,0.12
88.97,-1.70,-1.80,-1.71,-1.80,1.79,1.80,1.64,0.09,0.09,0.10
89.86,-1.70,-1.76,-1.70,-1.76,1.74,1.76,1.61,0.04,0.04,0.06
90.76,-1.70,-1.73,-1.68,-1.71,1.69,1.73,1.58,-0.01,0.01,0.03
91.66,-1.64,-1.64,-1.65,-1.64,1.64,1.70,1.56,0.00,-0.00,0.00
92.58,-1.60,-1.56,-1.61,-1.58,1.60,1.67,1.53,-0.00,-0.02,-0.04
93.51,-1.59,-1.53,-1.59,-1.53,1.55,1.65,1.51,-0.04,-0.04,-0.06
94.44,-1.59,-1.50,-1.59,-1.50,1.51,1.62,1.48,-0.08,-0.08,-0.09
95.39,-1.60,-1.48,-1.60,-1.47,1.47,1.59,1.46,-0.13,-0.12,-0.12
96.34,-1.60,-1.44,-1.60,-1.45,1.44,1.56,1.44,-0.15,-0.16,-0.16
97.30,-1.61,-1.42,-1.61,-1.42,1.42,1.53,1.42,-0.19,-0.18,-0.19
98.28,-1.61,-1.40,-1.61,-1.40,1.41,1.50,1.40,-0.20,-0.21,-0.21
99.26,-1.63,-1.40,-1.63,-1.39,1.39,1.48,1.38,-0.24,-0.24,-0.23
100.25,-1.65,-1.39,-1.65,-1.39,1.37,1.45,1.36,-0.28,-0.28,-0.26
101.25,-1.67,-1.38,-1.67,-1.37,1.36,1.42,1.35,-0.31,-0.31,-0.29
102.27,-1.68,-1.36,-1.68,-1.35,1.34,1.40,1.33,-0.33,-0.33,-0.32
103.29,-1.69,-1.32,-1.69,-1.33,1.34,1.37,1.32,-0.35,-0.35,-0.37
104.32,-1.71,-1.32,-1.70,-1.31,1.34,1.35,1.30,-0.37,-0.37,-0.39
105.37,-1.73,-1.30,-1.73,-1.31,1.34,1.32,1.29,-0.39,-0.40,-0.43
106.42,-1.77,-1.31,-1.78,-1.32,1.34,1.30,1.27,-0.43,-0.45,-0.46
107.48,-1.85,-1.35,-1.84,-1.34,1.34,1.27,1.26,-0.51,-0.50,-0.50
108.56,-1.91,-1.37,-1.90,-1.36,1.34,1.25,1.25,-0.57,-0.56,-0.54
109.64,-1.93,-1.35,-1.93,-1.36,1.34,1.23,1.24,-0.59,-0.60,-0.58
110.74,-1.95,-1.34,-1.95,-1.34,1.33,1.20,1.23,-0.62,-0.62,-0.61
111.85,-1.96,-1.33,-1.96,-1.32,1.31,1.18,1.22,-0.64,-0.65,-0.63
112.97,-1.97,-1.29,-1.97,-1.30,1.29,1.16,1.21,-0.68,-0.68,-0.68
114.10,-1.98,-1.28,-1.98,-1.27,1.27,1.14,1.19,-0.71,-0.71,-0.70
115.24,-1.98,-1.24,-1.98,-1.24,1.25,1.12,1.18,-0.73,-0.74,-0.74
116.39,-1.98,-1.21,-1.97,-1.21,1.22,1.10,1.17,-0.75,-0.75,-0.77
117.55,-1.98,-1.18,-1.98,-1.18,1.21,1.08,1.16,-0.77,-0.77,-0.80
118.73,-1.97,-1.15,-1.99,-1.18,1.19,1.06,1.15,-0.77,-0.80,-0.82
119.92,-2.03,-1.20,-2.02,-1.18,1.18,1.04,1.14,-0.85,-0.84,-0.83
121.12,-2.06,-1.20,-2.04,-1.19,1.17,1.02,1.13,-0.89,-0.87,-0.86
122.33,-2.05,-1.18,-2.05,-1.18,1.16,1.00,1.12,-0.89,-0.89,-0.87
123.55,-2.04,-1.16,-2.04,-1.16,1.15,0.98,1.11,-0.89,-0.90,-0.88
124.79,-2.03,-1.13,-2.03,-1.13,1.13,0.96,1.09,-0.90,-0.90,-0.90
126.03,-2.03,-1.11,-2.03,-1.11,1.11,0.94,1.08,-0.92,-0.91,-0.92
127.29,-2.02,-1.09,-2.02,-1.08,1.09,0.92,1.07,-0.93,-0.93,-0.93
128.57,-2.01,-1.05,-2.01,-1.06,1.06,0.91,1.05,-0.95,-0.95,-0.96
129.85,-2.01,-1.04,-2.01,-1.03,1.04,0.89,1.04,-0.97,-0.97,-0.97
131.15,-2.00,-1.02,-2.00,-1.02,1.01,0.87,1.03,-0.99,-0.99,-0.98
132.46,-2.00,-1.00,-2.00,-1.00,1.00,0.86,1.01,-1.00,-1.00,-1.00
133.79,-1.99,-0.99,-1.99,-0.99,0.98,0.84,1.00,-1.01,-1.01,-1.00
135.12,-1.99,-0.96,-1.98,-0.96,0.97,0.83,0.98,-1.02,-1.01,-1.03
136.48,-1.99,-0.96,-1.98,-0.95,0.97,0.81,0.97,-1.02,-1.02,-1.03
137.84,-1.98,-0.93,-2.00,-0.95,0.97,0.80,0.95,-1.01,-1.04,-1.05
139.22,-2.04,-0.96,-2.03,-0.96,0.96,0.78,0.94,-1.08,-1.07,-1.08
140.61,-2.08,-0.98,-2.06,-0.97,0.96,0.77,0.92,-1.12,-1.10,-1.10
142.02,-2.08,-0.98,-2.08,-0.98,0.96,0.75,0.90,-1.12,-1.13,-1.10
143.44,-2.08,-0.96,-2.08,-0.96,0.95,0.74,0.89,-1.13,-1.14,-1.12
144.87,-2.08,-0.94,-2.08,-0.94,0.93,0.73,0.87,-1.15,-1.15,-1.14
146.32,-2.08,-0.91,-2.08,-0.91,0.91,0.71,0.86,-1.17,-1.17,-1.17
147.78,-2.08,-0.88,-2.08,-0.88,0.88,0.70,0.84,-1.20,-1.20,-1.20
149.26,-2.08,-0.85,-2.08,-0.84,0.84,0.69,0.82,-1.24,-1.24,-1.23
150.75,-2.08,-0.79,-2.07,-0.79,0.81,0.68,0.81,-1.27,-1.27,-1.29
152.26,-2.08,-0.75,-2.08,-0.74,0.76,0.66,0.79,-1.32,-1.31,-1.33
153.78,-2.08,-0.69,-2.10,-0.71,0.72,0.65,0.78,-1.36,-1.38,-1.39
155.32,-2.14,-0.69,-2.13,-0.69,0.67,0.64,0.76,-1.47,-1.46,-1.45
156.88,-2.18,-0.68,-2.16,-0.66,0.63,0.63,0.75,-1.55,-1.53,-1.50
158.44,-2.18,-0.61,-2.18,-0.61,0.59,0.62,0.74,-1.59,-1.59,-1.57
160.03,-2.18,-0.54,-2.18,-0.54,0.55,0.61,0.72,-1.63,-1.62,-1.63
161.63,-2.18,-0.49,-2.18,-0.49,0.52,0.60,0.71,-1.66,-1.66,-1.69
163.24,-2.19,-0.44,-2.21,-0.47,0.49,0.59,0.70,-1.70,-1.71,-1.75
164.88,-2.25,-0.47,-2.24,-0.46,0.47,0.58,0.68,-1.78,-1.77,-1.78
166.53,-2.28,-0.46,-2.27,-0.46,0.45,0.57,0.67,-1.83,-1.82,-1.81
168.19,-2.30,-0.46,-2.30,-0.45,0.44,0.56,0.66,-1.86,-1.86,-1.84
169.87,-2.31,-0.44,-2.31,-0.44,0.43,0.55,0.65,-1.88,-1.88,-1.87
171.57,-2.31,-0.42,-2.31,-0.43,0.42,0.54,0.64,-1.89,-1.89,-1.89
173.29,-2.32,-0.42,-2.32,-0.42,0.42,0.53,0.62,-1.90,-1.90,-1.90
175.02,-2.32,-0.42,-2.32,-0.42,0.42,0.52,0.61,-1.90,-1.90,-1.90
176.77,-2.33,-0.42,-2.33,-0.42,0.42,0.52,0.60,-1.91,-1.90,-1.91
178.54,-2.33,-0.41,-2.32,-0.41,0.43,0.51,0.60,-1.90,-1.89,-1.91
180.32,-2.32,-0.42,-2.33,-0.42,0.44,0.50,0.59,-1.88,-1.89,-1.90
182.13,-2.33,-0.43,-2.34,-0.45,0.45,0.49,0.58,-1.88,-1.89,-1.89
183.95,-2.37,-0.47,-2.36,-0.47,0.46,0.49,0.57,-1.91,-1.91,-1.90
185.79,-2.40,-0.50,-2.38,-0.48,0.46,0.48,0.56,-1.94,-1.93,-1.90
187.65,-2.38,-0.46,-2.39,-0.47,0.45,0.47,0.55,-1.93,-1.94,-1.92
189.52,-2.37,-0.45,-2.37,-0.45,0.44,0.47,0.55,-1.93,-1.94,-1.92
191.42,-2.36,-0.43,-2.35,-0.42,0.42,0.46,0.54,-1.94,-1.94,-1.93
193.33,-2.34,-0.40,-2.34,-0.40,0.39,0.46,0.53,-1.94,-1.94,-1.94
195.27,-2.32,-0.36,-2.32,-0.36,0.37,0.45,0.53,-1.95,-1.95,-1.96
197.22,-2.31,-0.33,-2.30,-0.33,0.35,0.44,0.52,-1.96,-1.95,-1.98
199.19,-2.30,-0.30,-2.30,-0.31,0.34,0.44,0.52,-1.96,-1.96,-2.00
201.18,-2.30,-0.29,-2.32,-0.31,0.32,0.43,0.51,-1.98,-1.99,-2.01
203.19,-2.35,-0.33,-2.35,-0.32,0.31,0.43,0.51,-2.04,-2.03,-2.02
205.23,-2.39,-0.34,-2.37,-0.34,0.31,0.43,0.50,-2.08,-2.07,-2.05
207.28,-2.39,-0.34,-2.39,-0.34,0.30,0.42,0.50,-2.08,-2.09,-2.05
209.35,-2.39,-0.31,-2.39,-0.32,0.31,0.42,0.50,-2.08,-2.08,-2.08
211.44,-2.39,-0.29,-2.38,-0.29,0.31,0.41,0.49,-2.08,-2.07,-2.10
213.56,-2.39,-0.29,-2.39,-0.29,0.32,0.41,0.49,-2.07,-2.07,-2.10
215.69,-2.40,-0.29,-2.42,-0.31,0.33,0.41,0.49,-2.07,-2.10,-2.11
217.85,-2.48,-0.36,-2.46,-0.33,0.33,0.41,0.48,-2.15,-2.13,-2.12
220.03,-2.50,-0.36,-2.49,-0.36,0.34,0.40,0.48,-2.16,-2.15,-2.14
222.23,-2.51,-0.36,-2.51,-0.37,0.35,0.40,0.48,-2.16,-2.16,-2.15
224.45,-2.51,-0.38,-2.51,-0.37,0.36,0.40,0.48,-2.14,-2.15,-2.13
226.70,-2.51,-0.38,-2.51,-0.38,0.38,0.40,0.47,-2.13,-2.13,-2.13
228.96,-2.50,-0.37,-2.50,-0.38,0.38,0.40,0.47,-2.12,-2.12,-2.13
231.25,-2.50,-0.39,-2.50,-0.38,0.39,0.40,0.47,-2.11,-2.11,-2.11
233.57,-2.49,-0.39,-2.49,-0.39,0.39,0.40,0.47,-2.10,-2.09,-2.10
235.90,-2.47,-0.38,-2.47,-0.39,0.40,0.40,0.46,-2.07,-2.07,-2.08
238.26,-2.46,-0.40,-2.46,-0.40,0.41,0.40,0.46,-2.05,-2.05,-2.06
240.64,-2.44,-0.40,-2.44,-0.41,0.41,0.40,0.46,-2.03,-2.03,-2.04
243.05,-2.43,-0.43,-2.43,-0.42,0.42,0.40,0.46,-2.01,-2.01,-2.00
245.48,-2.41,-0.43,-2.41,-0.43,0.42,0.40,0.45,-1.99,-1.99,-1.98
247.93,-2.38,-0.43,-2.39,-0.44,0.41,0.40,0.45,-1.97,-1.98,-1.95
250.41,-2.36,-0.42,-2.36,-0.43,0.41,0.41,0.45,-1.95,-1.95,-1.94
252.92,-2.34,-0.44,-2.31,-0.41,0.40,0.41,0.45,-1.94,-1.91,-1.90
255.45,-2.25,-0.37,-2.27,-0.39,0.40,0.41,0.44,-1.85,-1.87,-1.88
258.00,-2.22,-0.36,-2.23,-0.37,0.40,0.42,0.44,-1.82,-1.84,-1.86
260.58,-2.22,-0.38,-2.21,-0.37,0.40,0.42,0.44,-1.82,-1.81,-1.84
263.19,-2.22,-0.40,-2.22,-0.39,0.41,0.43,0.44,-1.81,-1.81,-1.82
265.82,-2.22,-0.42,-2.22,-0.42,0.42,0.43,0.43,-1.80,-1.80,-1.80
268.48,-2.22,-0.44,-2.22,-0.45,0.44,0.44,0.43,-1.78,-1.78,-1.78
271.16,-2.23,-0.48,-2.23,-0.47,0.47,0.44,0.43,-1.76,-1.76,-1.75
273.87,-2.23,-0.50,-2.23,-0.50,0.50,0.45,0.43,-1.73,-1.73,-1.73
276.61,-2.23,-0.52,-2.23,-0.52,0.53,0.46,0.42,-1.70,-1.70,-1.71
279.38,-2.23,-0.55,-2.23,-0.55,0.55,0.47,0.42,-1.67,-1.68,-1.68
282.17,-2.23,-0.57,-2.23,-0.57,0.58,0.48,0.42,-1.65,-1.65,-1.66
284.99,-2.22,-0.59,-2.22,-0.59,0.59,0.49,0.42,-1.63,-1.63,-1.62
287.84,-2.21,-0.61,-2.22,-0.62,0.60,0.50,0.41,-1.61,-1.61,-1.60
290.72,-2.20,-0.64,-2.20,-0.64,0.61,0.51,0.41,-1.59,-1.59,-1.56
293.63,-2.19,-0.66,-2.16,-0.63,0.61,0.52,0.41,-1.57,-1.55,-1.53
296.57,-2.10,-0.60,-2.12,-0.61,0.62,0.53,0.41,-1.48,-1.50,-1.49
299.53,-2.06,-0.58,-2.07,-0.60,0.62,0.54,0.41,-1.44,-1.45,-1.48
302.53,-2.05,-0.60,-2.04,-0.60,0.62,0.55,0.40,-1.42,-1.42,-1.45
305.55,-2.04,-0.63,-2.04,-0.62,0.63,0.57,0.40,-1.41,-1.40,-1.41
308.61,-2.03,-0.64,-2.03,-0.64,0.65,0.58,0.40,-1.38,-1.38,-1.39
311.69,-2.03,-0.65,-2.03,-0.66,0.66,0.59,0.40,-1.37,-1.36,-1.38
314.81,-2.02,-0.68,-2.02,-0.67,0.68,0.60,0.40,-1.34,-1.34,-1.34
317.96,-2.02,-0.69,-2.02,-0.69,0.68,0.61,0.40,-1.34,-1.34,-1.33
321.14,-2.02,-0.71,-2.03,-0.72,0.68,0.62,0.40,-1.34,-1.35,-1.31
324.35,-2.02,-0.72,-2.02,-0.72,0.67,0.62,0.40,-1.35,-1.35,-1.30
327.59,-2.02,-0.73,-1.97,-0.68,0.66,0.63,0.40,-1.36,-1.31,-1.29
330.87,-1.88,-0.60,-1.91,-0.63,0.64,0.63,0.40,-1.24,-1.27,-1.28
334.18,-1.83,-0.56,-1.85,-0.59,0.62,0.63,0.40,-1.20,-1.23,-1.27
337.52,-1.83,-0.57,-1.82,-0.56,0.61,0.63,0.40,-1.22,-1.21,-1.26
340.90,-1.83,-0.59,-1.82,-0.58,0.60,0.63,0.40,-1.22,-1.22,-1.24
344.30,-1.83,-0.60,-1.83,-0.60,0.60,0.63,0.40,-1.23,-1.23,-1.23
347.75,-1.83,-0.61,-1.83,-0.61,0.60,0.62,0.41,-1.23,-1.23,-1.22
351.23,-1.83,-0.61,-1.83,-0.61,0.60,0.62,0.41,-1.23,-1.23,-1.22
354.74,-1.83,-0.61,-1.83,-0.62,0.59,0.61,0.41,-1.24,-1.24,-1.22
358.28,-1.82,-0.61,-1.83,-0.62,0.57,0.60,0.41,-1.25,-1.27,-1.21
361.87,-1.82,-0.61,-1.80,-0.60,0.55,0.58,0.42,-1.27,-1.26,-1.21
365.49,-1.78,-0.58,-1.74,-0.54,0.53,0.57,0.42,-1.25,-1.21,-1.20
369.14,-1.64,-0.44,-1.66,-0.46,0.51,0.56,0.43,-1.13,-1.15,-1.20
372.83,-1.59,-0.39,-1.62,-0.42,0.51,0.54,0.43,-1.08,-1.11,-1.20
376.56,-1.61,-0.41,-1.63,-0.43,0.51,0.53,0.43,-1.10,-1.12,-1.20
380.33,-1.71,-0.53,-1.69,-0.49,0.51,0.51,0.44,-1.20,-1.18,-1.18
384.13,-1.76,-0.56,-1.74,-0.55,0.51,0.49,0.44,-1.25,-1.23,-1.19
387.97,-1.77,-0.57,-1.78,-0.58,0.51,0.48,0.45,-1.26,-1.26,-1.20
391.85,-1.76,-0.56,-1.77,-0.57,0.51,0.46,0.45,-1.25,-1.26,-1.20
395.77,-1.75,-0.56,-1.73,-0.54,0.50,0.45,0.46,-1.25,-1.23,-1.19
399.73,-1.68,-0.49,-1.68,-0.49,0.48,0.43,0.46,-1.20,-1.20,-1.19
403.72,-1.62,-0.42,-1.63,-0.43,0.45,0.42,0.47,-1.17,-1.17,-1.20
407.76,-1.58,-0.38,-1.58,-0.39,0.43,0.40,0.47,-1.15,-1.15,-1.20
411.84,-1.56,-0.37,-1.56,-0.36,0.42,0.39,0.48,-1.14,-1.14,-1.19
415.96,-1.57,-0.37,-1.57,-0.37,0.42,0.38,0.49,-1.15,-1.15,-1.20
420.12,-1.59,-0.39,-1.60,-0.41,0.43,0.36,0.49,-1.16,-1.17,-1.20
424.32,-1.66,-0.47,-1.66,-0.46,0.46,0.35,0.50,-1.20,-1.20,-1.19
428.56,-1.72,-0.53,-1.71,-0.52,0.49,0.34,0.50,-1.23,-1.22,-1.19
432.85,-1.74,-0.57,-1.73,-0.56,0.51,0.33,0.51,-1.22,-1.22,-1.17
437.18,-1.72,-0.57,-1.72,-0.57,0.54,0.32,0.51,-1.18,-1.18,-1.15
441.55,-1.68,-0.57,-1.68,-0.56,0.56,0.31,0.51,-1.12,-1.13,-1.11
445.96,-1.64,-0.56,-1.64,-0.55,0.56,0.30,0.52,-1.08,-1.08,-1.08
450.42,-1.58,-0.52,-1.58,-0.54,0.56,0.29,0.52,-1.02,-1.03,-1.05
454.93,-1.53,-0.53,-1.52,-0.52,0.54,0.28,0.52,-0.99,-0.99,-1.00
459.48,-1.46,-0.50,-1.47,-0.51,0.51,0.27,0.53,-0.95,-0.95,-0.96
464.07,-1.40,-0.50,-1.41,-0.51,0.49,0.26,0.53,-0.91,-0.92,-0.90
468.71,-1.35,-0.50,-1.33,-0.48,0.46,0.25,0.53,-0.89,-0.87,-0.85
473.40,-1.26,-0.46,-1.24,-0.45,0.44,0.24,0.53,-0.82,-0.80,-0.80
478.13,-1.13,-0.38,-1.15,-0.40,0.42,0.24,0.53,-0.71,-0.73,-0.75
