frequency,raw,error,smoothed,error_smoothed,equalization,parametric_eq,fixed_band_eq,equalized_raw,equalized_smoothed,target
20.00,10.06,1.67,10.06,1.67,-1.68,-1.47,-1.10,8.39,8.39,8.39
20.20,10.09,1.70,10.09,1.70,-1.70,-1.49,-1.13,8.39,8.39,8.39
20.40,10.12,1.72,10.12,1.72,-1.72,-1.51,-1.16,8.40,8.40,8.40
20.61,10.15,1.75,10.15,1.75,-1.75,-1.54,-1.20,8.41,8.41,8.40
20.81,10.18,1.78,10.18,1.78,-1.77,-1.56,-1.23,8.41,8.41,8.40
21.02,10.21,1.81,10.21,1.80,-1.79,-1.58,-1.26,8.42,8.41,8.40
21.23,10.23,1.82,10.23,1.82,-1.82,-1.61,-1.30,8.41,8.41,8.41
21.44,10.25,1.83,10.26,1.84,-1.84,-1.63,-1.34,8.41,8.41,8.42
21.66,10.28,1.86,10.28,1.86,-1.87,-1.65,-1.38,8.42,8.42,8.42
21.87,10.31,1.88,10.31,1.89,-1.89,-1.68,-1.42,8.42,8.42,8.43
22.09,10.34,1.92,10.34,1.92,-1.91,-1.70,-1.46,8.43,8.43,8.42
22.31,10.36,1.93,10.37,1.94,-1.94,-1.73,-1.50,8.42,8.43,8.43
22.54,10.39,1.97,10.39,1.97,-1.97,-1.75,-1.54,8.42,8.42,8.42
22.76,10.42,2.00,10.42,1.99,-2.00,-1.78,-1.58,8.43,8.42,8.43
22.99,10.44,2.02,10.45,2.03,-2.03,-1.80,-1.63,8.42,8.42,8.43
23.22,10.47,2.06,10.47,2.05,-2.05,-1.83,-1.67,8.42,8.42,8.42
23.45,10.50,2.09,10.50,2.08,-2.08,-1.85,-1.72,8.42,8.42,8.42
23.69,10.52,2.11,10.53,2.11,-2.11,-1.88,-1.77,8.42,8.42,8.41
23.92,10.55,2.14,10.55,2.14,-2.13,-1.90,-1.82,8.42,8.42,8.41
24.16,10.57,2.16,10.57,2.16,-2.16,-1.93,-1.87,8.42,8.42,8.41
24.40,10.59,2.17,10.59,2.17,-2.18,-1.95,-1.92,8.41,8.41,8.42
24.65,10.61,2.19,10.61,2.19,-2.20,-1.98,-1.97,8.41,8.41,8.42
24.89,10.63,2.21,10.64,2.22,-2.22,-2.00,-2.02,8.41,8.41,8.42
25.14,10.66,2.25,10.66,2.25,-2.25,-2.03,-2.07,8.42,8.41,8.41
25.39,10.68,2.27,10.68,2.27,-2.27,-2.06,-2.12,8.42,8.41,8.41
25.65,10.70,2.30,10.70,2.30,-2.29,-2.08,-2.18,8.41,8.41,8.41
25.91,10.72,2.32,10.72,2.31,-2.31,-2.11,-2.23,8.41,8.41,8.41
26.16,10.74,2.33,10.74,2.33,-2.33,-2.14,-2.28,8.41,8.41,8.42
26.43,10.76,2.35,10.76,2.35,-2.35,-2.16,-2.34,8.41,8.41,8.41
26.69,10.78,2.38,10.78,2.37,-2.37,-2.19,-2.39,8.41,8.41,8.40
26.96,10.79,2.39,10.80,2.39,-2.39,-2.22,-2.44,8.40,8.41,8.40
27.23,10.81,2.41,10.81,2.41,-2.41,-2.24,-2.49,8.40,8.40,8.40
27.50,10.82,2.42,10.83,2.42,-2.43,-2.27,-2.54,8.40,8.40,8.40
27.77,10.84,2.44,10.84,2.44,-2.44,-2.30,-2.59,8.40,8.40,8.41
28.05,10.86,2.46,10.86,2.46,-2.46,-2.32,-2.64,8.40,8.40,8.41
28.33,10.87,2.48,10.88,2.48,-2.48,-2.35,-2.69,8.40,8.40,8.39
28.62,10.89,2.50,10.89,2.49,-2.49,-2.38,-2.73,8.40,8.40,8.39
28.90,10.90,2.50,10.90,2.51,-2.51,-2.40,-2.77,8.39,8.39,8.40
29.19,10.92,2.52,10.92,2.53,-2.53,-2.43,-2.81,8.40,8.39,8.40
29.48,10.93,2.55,10.94,2.54,-2.54,-2.46,-2.85,8.39,8.39,8.39
29.78,10.95,2.57,10.95,2.56,-2.56,-2.49,-2.89,8.40,8.39,8.39
30.08,10.96,2.57,10.96,2.58,-2.57,-2.51,-2.92,8.39,8.39,8.39
30.38,10.97,2.59,10.97,2.59,-2.58,-2.54,-2.95,8.39,8.39,8.38
30.68,10.98,2.59,10.98,2.59,-2.60,-2.57,-2.98,8.39,8.39,8.39
30.99,10.99,2.60,10.99,2.60,-2.61,-2.60,-3.00,8.38,8.38,8.39
31.30,11.00,2.62,11.01,2.62,-2.62,-2.62,-3.02,8.38,8.39,8.39
31.61,11.02,2.63,11.02,2.63,-2.63,-2.65,-3.04,8.39,8.39,8.39
31.93,11.03,2.65,11.03,2.64,-2.64,-2.68,-3.05,8.39,8.39,8.38
32.24,11.04,2.65,11.04,2.66,-2.65,-2.71,-3.06,8.39,8.39,8.39
32.57,11.05,2.67,11.05,2.67,-2.67,-2.73,-3.07,8.39,8.39,8.39
32.89,11.06,2.68,11.06,2.68,-2.68,-2.76,-3.08,8.38,8.38,8.38
33.22,11.07,2.69,11.07,2.69,-2.69,-2.79,-3.08,8.38,8.38,8.38
33.55,11.08,2.70,11.08,2.70,-2.71,-2.81,-3.08,8.38,8.38,8.38
33.89,11.09,2.72,11.09,2.72,-2.72,-2.84,-3.08,8.37,8.37,8.38
34.23,11.10,2.74,11.10,2.74,-2.74,-2.87,-3.08,8.36,8.36,8.36
34.57,11.11,2.76,11.11,2.76,-2.76,-2.90,-3.08,8.35,8.35,8.35
34.92,11.12,2.79,11.12,2.78,-2.78,-2.92,-3.07,8.34,8.34,8.34
35.27,11.12,2.79,11.13,2.80,-2.80,-2.95,-3.07,8.32,8.32,8.33
35.62,11.13,2.83,11.13,2.82,-2.83,-2.98,-3.06,8.31,8.30,8.30
35.97,11.13,2.85,11.13,2.85,-2.85,-3.00,-3.05,8.28,8.28,8.29
36.33,11.13,2.87,11.14,2.88,-2.88,-3.03,-3.04,8.25,8.26,8.26
36.70,11.14,2.90,11.14,2.90,-2.91,-3.06,-3.03,8.24,8.24,8.24
37.06,11.15,2.94,11.15,2.94,-2.93,-3.08,-3.03,8.22,8.22,8.21
37.43,11.15,2.96,11.16,2.97,-2.96,-3.11,-3.02,8.19,8.20,8.19
37.81,11.16,3.00,11.16,2.99,-2.99,-3.14,-3.01,8.17,8.17,8.17
38.19,11.16,3.01,11.16,3.02,-3.02,-3.16,-3.00,8.15,8.15,8.15
38.57,11.16,3.04,11.17,3.04,-3.04,-3.19,-3.00,8.12,8.12,8.13
38.95,11.17,3.07,11.17,3.07,-3.07,-3.22,-3.00,8.11,8.10,8.10
39.34,11.17,3.10,11.17,3.10,-3.09,-3.24,-2.99,8.08,8.08,8.08
39.74,11.17,3.12,11.17,3.12,-3.11,-3.27,-2.99,8.06,8.06,8.05
40.14,11.17,3.14,11.17,3.14,-3.13,-3.29,-2.99,8.04,8.04,8.04
40.54,11.16,3.14,11.17,3.15,-3.16,-3.32,-2.99,8.01,8.01,8.02
40.94,11.17,3.18,11.17,3.17,-3.18,-3.35,-3.00,8.00,7.99,7.99
41.35,11.17,3.19,11.17,3.20,-3.20,-3.37,-3.01,7.98,7.97,7.98
41.76,11.17,3.22,11.17,3.22,-3.22,-3.40,-3.01,7.95,7.95,7.95
42.18,11.17,3.24,11.17,3.24,-3.24,-3.42,-3.02,7.93,7.93,7.94
42.60,11.16,3.25,11.17,3.26,-3.26,-3.45,-3.04,7.90,7.91,7.91
43.03,11.17,3.28,11.17,3.28,-3.28,-3.47,-3.05,7.89,7.89,7.89
43.46,11.17,3.31,11.17,3.30,-3.30,-3.50,-3.07,7.87,7.87,7.86
43.90,11.16,3.32,11.17,3.32,-3.32,-3.52,-3.09,7.85,7.85,7.85
44.33,11.16,3.34,11.16,3.34,-3.34,-3.54,-3.11,7.83,7.82,7.82
44.78,11.15,3.35,11.16,3.35,-3.36,-3.57,-3.14,7.80,7.80,7.80
45.23,11.15,3.36,11.16,3.37,-3.37,-3.59,-3.16,7.78,7.78,7.79
45.68,11.15,3.40,11.15,3.39,-3.39,-3.62,-3.19,7.76,7.76,7.75
46.13,11.15,3.43,11.15,3.42,-3.41,-3.64,-3.22,7.74,7.73,7.73
46.60,11.13,3.44,11.14,3.44,-3.44,-3.66,-3.26,7.70,7.70,7.70
47.06,11.13,3.46,11.13,3.46,-3.46,-3.69,-3.29,7.67,7.67,7.68
47.53,11.12,3.48,11.12,3.48,-3.49,-3.71,-3.33,7.63,7.63,7.65
48.01,11.12,3.53,11.12,3.52,-3.52,-3.73,-3.37,7.60,7.60,7.60
48.49,11.11,3.55,11.11,3.55,-3.55,-3.75,-3.41,7.56,7.56,7.57
48.97,11.10,3.58,11.11,3.58,-3.58,-3.78,-3.46,7.52,7.53,7.52
49.46,11.10,3.61,11.10,3.61,-3.61,-3.80,-3.50,7.49,7.49,7.49
49.96,11.09,3.66,11.09,3.65,-3.64,-3.82,-3.55,7.45,7.45,7.43
50.46,11.07,3.67,11.08,3.68,-3.67,-3.84,-3.60,7.40,7.41,7.40
50.96,11.07,3.71,11.07,3.71,-3.70,-3.86,-3.65,7.37,7.37,7.37
51.47,11.06,3.73,11.06,3.73,-3.73,-3.88,-3.70,7.33,7.33,7.33
51.99,11.05,3.76,11.05,3.76,-3.76,-3.90,-3.75,7.29,7.29,7.29
52.51,11.04,3.79,11.04,3.78,-3.79,-3.92,-3.81,7.25,7.25,7.26
53.03,11.03,3.81,11.03,3.81,-3.82,-3.94,-3.86,7.22,7.21,7.22
53.56,11.01,3.84,11.02,3.84,-3.84,-3.96,-3.91,7.17,7.17,7.18
54.10,11.01,3.88,11.01,3.87,-3.87,-3.98,-3.96,7.14,7.14,7.13
54.64,10.99,3.90,11.00,3.90,-3.90,-4.00,-4.01,7.10,7.10,7.10
55.18,10.98,3.92,10.98,3.93,-3.92,-4.02,-4.06,7.06,7.06,7.06
55.74,10.97,3.95,10.97,3.94,-3.94,-4.04,-4.11,7.03,7.03,7.02
56.29,10.95,3.96,10.96,3.96,-3.96,-4.06,-4.16,6.99,7.00,6.99
56.86,10.94,3.97,10.94,3.98,-3.98,-4.08,-4.21,6.97,6.97,6.98
57.42,10.93,4.01,10.93,4.00,-3.99,-4.10,-4.25,6.94,6.94,6.93
58.00,10.91,4.01,10.92,4.01,-4.01,-4.11,-4.29,6.91,6.91,6.90
58.58,10.90,4.02,10.90,4.03,-4.03,-4.13,-4.33,6.88,6.88,6.88
59.16,10.88,4.04,10.88,4.04,-4.05,-4.15,-4.36,6.84,6.84,6.85
59.76,10.87,4.06,10.87,4.06,-4.07,-4.17,-4.39,6.80,6.80,6.82
60.35,10.85,4.09,10.86,4.09,-4.10,-4.18,-4.42,6.76,6.76,6.76
60.96,10.84,4.12,10.84,4.12,-4.13,-4.20,-4.44,6.72,6.71,6.72
61.57,10.82,4.16,10.82,4.16,-4.16,-4.22,-4.46,6.67,6.67,6.66
62.18,10.80,4.20,10.80,4.19,-4.19,-4.23,-4.47,6.62,6.62,6.61
62.80,10.78,4.22,10.78,4.22,-4.22,-4.25,-4.48,6.57,6.57,6.56
63.43,10.76,4.25,10.77,4.25,-4.24,-4.26,-4.49,6.52,6.52,6.52
64.07,10.75,4.27,10.75,4.27,-4.27,-4.28,-4.49,6.48,6.48,6.48
64.71,10.73,4.29,10.73,4.29,-4.29,-4.29,-4.48,6.44,6.44,6.44
65.35,10.70,4.31,10.71,4.31,-4.31,-4.31,-4.48,6.39,6.40,6.40
66.01,10.68,4.33,10.69,4.33,-4.33,-4.32,-4.47,6.35,6.36,6.36
66.67,10.67,4.34,10.67,4.34,-4.35,-4.33,-4.45,6.33,6.32,6.33
67.33,10.64,4.36,10.65,4.36,-4.36,-4.35,-4.43,6.28,6.28,6.28
68.01,10.62,4.38,10.63,4.39,-4.38,-4.36,-4.41,6.24,6.25,6.24
68.69,10.60,4.41,10.60,4.40,-4.40,-4.37,-4.39,6.21,6.20,6.20
69.37,10.58,4.42,10.58,4.41,-4.41,-4.39,-4.37,6.17,6.17,6.17
70.07,10.55,4.42,10.56,4.43,-4.43,-4.40,-4.34,6.12,6.12,6.13
70.77,10.53,4.44,10.53,4.44,-4.45,-4.41,-4.31,6.08,6.08,6.09
71.48,10.51,4.47,10.51,4.46,-4.47,-4.42,-4.28,6.04,6.04,6.04
72.19,10.48,4.48,10.49,4.49,-4.49,-4.43,-4.25,5.99,6.00,6.00
72.91,10.46,4.51,10.46,4.51,-4.51,-4.44,-4.22,5.96,5.96,5.95
73.64,10.43,4.53,10.43,4.53,-4.52,-4.46,-4.19,5.91,5.91,5.91
74.38,10.41,4.54,10.41,4.54,-4.54,-4.47,-4.16,5.88,5.87,5.87
75.12,10.38,4.55,10.39,4.56,-4.55,-4.48,-4.13,5.83,5.84,5.83
75.87,10.36,4.56,10.36,4.56,-4.56,-4.49,-4.10,5.80,5.80,5.80
76.63,10.33,4.57,10.33,4.57,-4.57,-4.49,-4.07,5.77,5.77,5.76
77.40,10.30,4.56,10.30,4.57,-4.57,-4.50,-4.04,5.73,5.73,5.74
78.17,10.27,4.57,10.27,4.57,-4.57,-4.51,-4.02,5.70,5.70,5.70
78.95,10.24,4.57,10.24,4.57,-4.57,-4.52,-3.99,5.67,5.67,5.68
79.74,10.22,4.57,10.22,4.57,-4.57,-4.53,-3.97,5.65,5.65,5.65
80.54,10.18,4.56,10.19,4.57,-4.57,-4.54,-3.95,5.61,5.62,5.62
81.35,10.16,4.58,10.16,4.57,-4.57,-4.54,-3.94,5.59,5.59,5.58
82.16,10.12,4.56,10.13,4.56,-4.57,-4.55,-3.92,5.55,5.56,5.57
82.98,10.09,4.56,10.10,4.57,-4.57,-4.56,-3.91,5.53,5.53,5.53
83.81,10.07,4.57,10.07,4.57,-4.57,-4.56,-3.90,5.51,5.50,5.50
84.65,10.04,4.58,10.04,4.57,-4.57,-4.57,-3.90,5.48,5.47,5.47
85.50,10.00,4.57,10.01,4.57,-4.56,-4.58,-3.89,5.44,5.44,5.44
86.35,9.97,4.56,9.97,4.56,-4.56,-4.58,-3.89,5.41,5.41,5.41
87.22,9.93,4.54,9.94,4.55,-4.56,-4.59,-3.90,5.37,5.38,5.39
88.09,9.91,4.56,9.91,4.55,-4.56,-4.59,-3.90,5.36,5.35,5.35
88.97,9.87,4.55,9.87,4.55,-4.55,-4.59,-3.91,5.32,5.32,5.33
89.86,9.84,4.56,9.84,4.55,-4.55,-4.60,-3.92,5.29,5.29,5.29
90.76,9.80,4.54,9.80,4.55,-4.54,-4.60,-3.94,5.26,5.26,5.26
91.66,9.77,4.55,9.77,4.55,-4.54,-4.61,-3.95,5.23,5.23,5.22
92.58,9.73,4.54,9.73,4.54,-4.54,-4.61,-3.97,5.19,5.20,5.20
93.51,9.70,4.54,9.70,4.53,-4.54,-4.61,-4.00,5.17,5.16,5.16
94.44,9.66,4.52,9.67,4.53,-4.54,-4.61,-4.02,5.12,5.13,5.14
95.39,9.63,4.54,9.63,4.53,-4.54,-4.61,-4.05,5.09,5.09,5.10
96.34,9.59,4.54,9.59,4.54,-4.54,-4.62,-4.08,5.05,5.05,5.05
97.30,9.55,4.54,9.56,4.54,-4.54,-4.62,-4.12,5.01,5.01,5.02
98.28,9.52,4.55,9.52,4.55,-4.54,-4.62,-4.15,4.98,4.97,4.97
99.26,9.47,4.55,9.48,4.55,-4.54,-4.62,-4.19,4.93,4.93,4.92
100.25,9.44,4.55,9.44,4.55,-4.54,-4.62,-4.23,4.90,4.90,4.89
101.25,9.40,4.54,9.40,4.54,-4.54,-4.62,-4.27,4.86,4.86,4.86
102.27,9.36,4.54,9.36,4.54,-4.54,-4.62,-4.31,4.82,4.82,4.83
103.29,9.32,4.53,9.32,4.53,-4.54,-4.61,-4.36,4.79,4.79,4.79
104.32,9.28,4.53,9.28,4.53,-4.53,-4.61,-4.40,4.75,4.75,4.75
105.37,9.24,4.53,9.24,4.52,-4.52,-4.61,-4.45,4.72,4.72,4.72
106.42,9.20,4.51,9.20,4.52,-4.51,-4.61,-4.50,4.69,4.69,4.69
107.48,9.16,4.52,9.16,4.51,-4.51,-4.61,-4.54,4.66,4.66,4.65
108.56,9.12,4.50,9.12,4.50,-4.50,-4.60,-4.59,4.62,4.62,4.62
109.64,9.07,4.49,9.08,4.49,-4.49,-4.60,-4.63,4.58,4.58,4.58
110.74,9.03,4.49,9.03,4.49,-4.49,-4.59,-4.67,4.54,4.54,4.55
111.85,8.99,4.48,8.99,4.48,-4.49,-4.59,-4.72,4.51,4.51,4.51
112.97,8.95,4.49,8.95,4.48,-4.49,-4.59,-4.76,4.47,4.47,4.47
114.10,8.91,4.48,8.91,4.48,-4.49,-4.58,-4.79,4.42,4.42,4.43
115.24,8.86,4.49,8.87,4.49,-4.49,-4.57,-4.83,4.37,4.37,4.38
116.39,8.82,4.50,8.82,4.50,-4.50,-4.57,-4.86,4.32,4.33,4.32
117.55,8.78,4.52,8.78,4.51,-4.51,-4.56,-4.88,4.28,4.27,4.27
118.73,8.73,4.52,8.73,4.52,-4.51,-4.56,-4.91,4.22,4.22,4.21
119.92,8.68,4.52,8.69,4.52,-4.52,-4.55,-4.93,4.16,4.16,4.16
121.12,8.64,4.53,8.64,4.53,-4.53,-4.54,-4.94,4.11,4.11,4.12
122.33,8.59,4.54,8.60,4.54,-4.54,-4.53,-4.95,4.05,4.06,4.06
123.55,8.55,4.55,8.55,4.55,-4.55,-4.52,-4.95,4.00,4.00,4.00
124.79,8.51,4.57,8.50,4.56,-4.56,-4.52,-4.95,3.95,3.94,3.94
126.03,8.45,4.57,8.46,4.57,-4.58,-4.51,-4.95,3.88,3.88,3.88
127.29,8.40,4.58,8.41,4.59,-4.59,-4.50,-4.93,3.82,3.82,3.82
128.57,8.36,4.60,8.36,4.60,-4.60,-4.49,-4.92,3.76,3.76,3.76
129.85,8.31,4.61,8.31,4.61,-4.61,-4.48,-4.89,3.71,3.71,3.70
131.15,8.26,4.62,8.26,4.62,-4.61,-4.46,-4.87,3.65,3.65,3.65
132.46,8.21,4.61,8.21,4.62,-4.61,-4.45,-4.83,3.60,3.60,3.60
133.79,8.16,4.61,8.16,4.61,-4.61,-4.44,-4.80,3.55,3.55,3.55
135.12,8.11,4.61,8.11,4.60,-4.60,-4.43,-4.76,3.51,3.51,3.51
136.48,8.06,4.58,8.06,4.59,-4.59,-4.42,-4.72,3.47,3.47,3.48
137.84,8.01,4.58,8.01,4.58,-4.58,-4.40,-4.67,3.43,3.43,3.44
139.22,7.96,4.57,7.96,4.56,-4.56,-4.39,-4.62,3.40,3.40,3.39
140.61,7.90,4.53,7.91,4.55,-4.54,-4.38,-4.57,3.36,3.37,3.37
142.02,7.86,4.52,7.86,4.52,-4.52,-4.36,-4.52,3.34,3.34,3.34
143.44,7.81,4.51,7.81,4.50,-4.50,-4.35,-4.46,3.31,3.31,3.31
144.87,7.75,4.47,7.76,4.47,-4.48,-4.33,-4.40,3.28,3.28,3.29
146.32,7.70,4.45,7.70,4.45,-4.45,-4.31,-4.35,3.25,3.25,3.26
147.78,7.65,4.42,7.65,4.42,-4.43,-4.30,-4.29,3.23,3.23,3.23
149.26,7.60,4.40,7.60,4.40,-4.40,-4.28,-4.23,3.20,3.20,3.20
150.75,7.54,4.38,7.55,4.38,-4.37,-4.26,-4.18,3.17,3.17,3.16
152.26,7.49,4.35,7.49,4.35,-4.35,-4.25,-4.12,3.14,3.14,3.15
153.78,7.43,4.32,7.44,4.32,-4.32,-4.23,-4.06,3.11,3.11,3.11
155.32,7.38,4.30,7.38,4.29,-4.30,-4.21,-4.01,3.08,3.08,3.09
156.88,7.32,4.27,7.32,4.27,-4.28,-4.19,-3.96,3.05,3.05,3.05
158.44,7.26,4.25,7.27,4.25,-4.25,-4.17,-3.91,3.01,3.01,3.01
160.03,7.21,4.24,7.21,4.23,-4.23,-4.15,-3.86,2.98,2.98,2.98
161.63,7.15,4.21,7.15,4.21,-4.21,-4.13,-3.81,2.94,2.94,2.95
163.24,7.09,4.19,7.10,4.19,-4.19,-4.11,-3.77,2.90,2.91,2.91
164.88,7.04,4.18,7.04,4.17,-4.17,-4.09,-3.72,2.87,2.87,2.87
166.53,6.98,4.16,6.98,4.15,-4.15,-4.07,-3.68,2.83,2.83,2.83
168.19,6.92,4.13,6.92,4.13,-4.13,-4.05,-3.65,2.80,2.80,2.80
169.87,6.86,4.10,6.86,4.10,-4.10,-4.02,-3.61,2.76,2.76,2.76
171.57,6.80,4.07,6.80,4.07,-4.08,-4.00,-3.58,2.73,2.73,2.73
173.29,6.75,4.06,6.75,4.05,-4.05,-3.98,-3.55,2.70,2.70,2.70
175.02,6.68,4.02,6.69,4.02,-4.03,-3.95,-3.52,2.66,2.66,2.66
176.77,6.63,4.01,6.63,4.00,-4.00,-3.93,-3.50,2.63,2.63,2.63
178.54,6.56,3.96,6.57,3.97,-3.97,-3.90,-3.48,2.59,2.60,2.60
180.32,6.51,3.95,6.51,3.94,-3.95,-3.88,-3.46,2.57,2.56,2.56
182.13,6.44,3.92,6.45,3.92,-3.92,-3.85,-3.44,2.53,2.53,2.53
183.95,6.38,3.89,6.39,3.89,-3.89,-3.83,-3.43,2.49,2.50,2.50
185.79,6.33,3.87,6.33,3.86,-3.86,-3.80,-3.42,2.47,2.46,2.46
187.65,6.26,3.83,6.27,3.83,-3.83,-3.77,-3.41,2.43,2.43,2.43
189.52,6.20,3.81,6.21,3.81,-3.81,-3.74,-3.40,2.40,2.40,2.39
191.42,6.14,3.77,6.14,3.77,-3.78,-3.72,-3.40,2.36,2.36,2.37
193.33,6.08,3.75,6.08,3.75,-3.75,-3.69,-3.40,2.33,2.33,2.33
195.27,6.01,3.72,6.02,3.72,-3.72,-3.66,-3.40,2.29,2.30,2.30
197.22,5.96,3.70,5.96,3.69,-3.69,-3.63,-3.40,2.27,2.27,2.26
199.19,5.89,3.66,5.90,3.67,-3.66,-3.60,-3.41,2.23,2.24,2.23
201.18,5.83,3.63,5.84,3.63,-3.63,-3.57,-3.41,2.20,2.21,2.20
203.19,5.78,3.60,5.78,3.60,-3.60,-3.54,-3.42,2.18,2.18,2.18
205.23,5.71,3.56,5.72,3.57,-3.57,-3.51,-3.43,2.15,2.15,2.15
207.28,5.66,3.53,5.66,3.53,-3.53,-3.48,-3.44,2.13,2.12,2.13
209.35,5.59,3.50,5.60,3.50,-3.50,-3.44,-3.45,2.09,2.09,2.09
211.44,5.54,3.47,5.54,3.47,-3.47,-3.41,-3.46,2.07,2.07,2.07
213.56,5.48,3.44,5.48,3.44,-3.44,-3.38,-3.47,2.04,2.04,2.05
215.69,5.43,3.41,5.43,3.41,-3.41,-3.34,-3.48,2.02,2.02,2.02
217.85,5.37,3.37,5.37,3.38,-3.38,-3.31,-3.49,2.00,2.00,2.00
220.03,5.31,3.35,5.32,3.35,-3.34,-3.28,-3.50,1.97,1.97,1.97
222.23,5.26,3.32,5.26,3.31,-3.31,-3.24,-3.51,1.95,1.95,1.95
224.45,5.20,3.28,5.20,3.28,-3.28,-3.21,-3.51,1.93,1.93,1.92
226.70,5.14,3.24,5.15,3.24,-3.24,-3.17,-3.52,1.90,1.91,1.90
228.96,5.09,3.20,5.09,3.20,-3.21,-3.13,-3.52,1.88,1.88,1.89
231.25,5.04,3.17,5.04,3.17,-3.17,-3.10,-3.52,1.87,1.87,1.87
233.57,4.98,3.13,4.99,3.14,-3.14,-3.06,-3.52,1.84,1.85,1.85
235.90,4.93,3.11,4.93,3.11,-3.10,-3.02,-3.51,1.83,1.83,1.82
238.26,4.88,3.08,4.88,3.07,-3.07,-2.99,-3.50,1.81,1.81,1.80
240.64,4.82,3.02,4.83,3.03,-3.03,-2.95,-3.49,1.79,1.80,1.80
243.05,4.78,3.00,4.78,3.00,-3.00,-2.91,-3.47,1.78,1.78,1.78
245.48,4.73,2.97,4.73,2.96,-2.96,-2.87,-3.45,1.77,1.77,1.77
247.93,4.67,2.92,4.68,2.93,-2.92,-2.83,-3.42,1.75,1.76,1.75
250.41,4.62,2.88,4.62,2.88,-2.88,-2.79,-3.39,1.74,1.74,1.74
252.92,4.57,2.84,4.57,2.84,-2.84,-2.75,-3.36,1.73,1.73,1.73
255.45,4.51,2.80,4.52,2.80,-2.80,-2.71,-3.32,1.72,1.72,1.72
258.00,4.46,2.75,4.46,2.75,-2.75,-2.67,-3.28,1.71,1.71,1.71
260.58,4.40,2.70,4.41,2.71,-2.71,-2.62,-3.23,1.69,1.70,1.70
263.19,4.35,2.67,4.35,2.67,-2.67,-2.58,-3.18,1.69,1.69,1.69
265.82,4.30,2.62,4.30,2.62,-2.62,-2.54,-3.12,1.68,1.68,1.68
268.48,4.24,2.58,4.25,2.58,-2.58,-2.50,-3.07,1.66,1.67,1.66
271.16,4.19,2.54,4.19,2.54,-2.54,-2.45,-3.00,1.66,1.65,1.66
273.87,4.13,2.49,4.13,2.49,-2.49,-2.41,-2.94,1.64,1.64,1.64
276.61,4.07,2.45,4.07,2.45,-2.45,-2.36,-2.87,1.62,1.63,1.63
279.38,4.01,2.40,4.02,2.41,-2.40,-2.32,-2.80,1.61,1.62,1.61
282.17,3.97,2.37,3.97,2.36,-2.36,-2.27,-2.72,1.61,1.61,1.61
284.99,3.91,2.31,3.91,2.31,-2.31,-2.23,-2.65,1.60,1.60,1.60
287.84,3.85,2.25,3.86,2.26,-2.26,-2.18,-2.57,1.59,1.59,1.61
290.72,3.80,2.22,3.80,2.21,-2.21,-2.14,-2.49,1.59,1.58,1.58
293.63,3.74,2.17,3.74,2.17,-2.16,-2.09,-2.41,1.58,1.58,1.58
296.57,3.68,2.11,3.69,2.12,-2.11,-2.04,-2.32,1.57,1.57,1.57
299.53,3.63,2.06,3.63,2.06,-2.06,-1.99,-2.24,1.58,1.57,1.57
302.53,3.56,2.00,3.57,2.00,-2.00,-1.95,-2.16,1.56,1.57,1.56
305.55,3.51,1.95,3.51,1.94,-1.95,-1.90,-2.07,1.57,1.56,1.56
308.61,3.44,1.88,3.45,1.88,-1.89,-1.85,-1.99,1.56,1.56,1.57
311.69,3.38,1.82,3.39,1.83,-1.83,-1.80,-1.90,1.56,1.56,1.56
314.81,3.33,1.77,3.33,1.76,-1.76,-1.75,-1.82,1.57,1.56,1.56
317.96,3.26,1.71,3.27,1.71,-1.70,-1.70,-1.73,1.56,1.56,1.56
321.14,3.20,1.64,3.20,1.64,-1.64,-1.65,-1.65,1.57,1.56,1.56
324.35,3.13,1.57,3.13,1.57,-1.57,-1.60,-1.57,1.56,1.56,1.56
327.59,3.07,1.50,3.07,1.50,-1.51,-1.54,-1.48,1.56,1.56,1.58
330.87,3.00,1.44,3.01,1.44,-1.44,-1.49,-1.40,1.56,1.56,1.56
334.18,2.95,1.39,2.95,1.38,-1.38,-1.44,-1.32,1.58,1.57,1.56
337.52,2.88,1.31,2.88,1.32,-1.31,-1.39,-1.24,1.57,1.57,1.57
340.90,2.82,1.25,2.82,1.25,-1.25,-1.33,-1.15,1.58,1.57,1.58
344.30,2.75,1.18,2.76,1.18,-1.18,-1.28,-1.07,1.57,1.58,1.57
347.75,2.69,1.11,2.69,1.12,-1.12,-1.23,-0.99,1.58,1.58,1.58
351.23,2.63,1.06,2.63,1.05,-1.05,-1.17,-0.91,1.58,1.58,1.57
354.74,2.56,0.98,2.56,0.99,-0.99,-1.12,-0.84,1.58,1.58,1.59
358.28,2.49,0.92,2.50,0.92,-0.92,-1.06,-0.76,1.57,1.58,1.58
361.87,2.44,0.87,2.43,0.86,-0.86,-1.01,-0.68,1.58,1.58,1.57
365.49,2.37,0.79,2.37,0.79,-0.80,-0.95,-0.60,1.58,1.58,1.58
369.14,2.30,0.72,2.31,0.73,-0.73,-0.89,-0.53,1.57,1.58,1.58
372.83,2.25,0.68,2.25,0.67,-0.67,-0.84,-0.45,1.58,1.58,1.58
376.56,2.18,0.62,2.18,0.61,-0.61,-0.78,-0.38,1.58,1.58,1.57
380.33,2.12,0.55,2.12,0.55,-0.54,-0.72,-0.30,1.58,1.58,1.57
384.13,2.05,0.48,2.05,0.48,-0.48,-0.66,-0.23,1.57,1.58,1.57
387.97,1.99,0.41,1.99,0.41,-0.41,-0.61,-0.16,1.58,1.58,1.58
391.85,1.92,0.34,1.93,0.35,-0.35,-0.55,-0.08,1.57,1.58,1.58
395.77,1.86,0.28,1.86,0.28,-0.28,-0.49,-0.01,1.58,1.58,1.58
399.73,1.80,0.22,1.80,0.22,-0.22,-0.43,0.06,1.59,1.58,1.59
403.72,1.74,0.15,1.74,0.15,-0.15,-0.37,0.13,1.59,1.59,1.60
407.76,1.68,0.09,1.68,0.09,-0.09,-0.31,0.20,1.59,1.60,1.59
411.84,1.62,0.03,1.62,0.03,-0.02,-0.25,0.27,1.60,1.60,1.59
415.96,1.56,-0.04,1.56,-0.03,0.04,-0.19,0.34,1.60,1.60,1.60
420.12,1.49,-0.10,1.50,-0.10,0.10,-0.13,0.40,1.59,1.60,1.59
424.32,1.43,-0.16,1.43,-0.17,0.16,-0.06,0.47,1.60,1.60,1.59
428.56,1.37,-0.24,1.37,-0.23,0.22,-0.00,0.54,1.60,1.60,1.61
432.85,1.31,-0.29,1.31,-0.29,0.28,0.06,0.60,1.60,1.60,1.61
437.18,1.25,-0.34,1.25,-0.35,0.34,0.12,0.66,1.60,1.60,1.60
441.55,1.19,-0.40,1.19,-0.40,0.40,0.19,0.73,1.60,1.60,1.60
445.96,1.13,-0.46,1.13,-0.46,0.46,0.25,0.79,1.60,1.60,1.59
450.42,1.07,-0.52,1.07,-0.52,0.52,0.31,0.85,1.60,1.60,1.59
454.93,1.01,-0.58,1.01,-0.58,0.59,0.38,0.91,1.60,1.60,1.59
459.48,0.95,-0.64,0.95,-0.64,0.65,0.44,0.96,1.60,1.60,1.59
464.07,0.89,-0.71,0.89,-0.71,0.71,0.51,1.02,1.60,1.60,1.60
468.71,0.83,-0.78,0.83,-0.77,0.77,0.57,1.07,1.60,1.60,1.61
473.40,0.77,-0.84,0.77,-0.84,0.83,0.64,1.12,1.60,1.60,1.61
478.13,0.71,-0.90,0.72,-0.89,0.89,0.70,1.17,1.60,1.61,1.61
482.91,0.66,-0.95,0.66,-0.95,0.95,0.77,1.22,1.61,1.61,1.61
487.74,0.60,-1.00,0.60,-1.00,1.01,0.83,1.27,1.61,1.61,1.61
492.62,0.54,-1.06,0.55,-1.06,1.06,0.90,1.31,1.61,1.61,1.61
497.55,0.49,-1.11,0.49,-1.12,1.12,0.97,1.35,1.61,1.61,1.61
502.52,0.43,-1.17,0.43,-1.18,1.18,1.03,1.39,1.61,1.61,1.61
507.55,0.37,-1.24,0.38,-1.23,1.23,1.10,1.43,1.61,1.61,1.61
512.62,0.32,-1.29,0.32,-1.30,1.29,1.17,1.47,1.61,1.61,1.61
517.75,0.27,-1.35,0.27,-1.35,1.35,1.24,1.50,1.62,1.62,1.62
522.93,0.21,-1.41,0.22,-1.41,1.41,1.30,1.54,1.62,1.62,1.62
