frequency,raw,error,smoothed,error_smoothed,equalization,parametric_eq,fixed_band_eq,equalized_raw,equalized_smoothed,target
20.00,0.70,0.08,0.70,0.08,-0.08,-0.68,-0.59,0.62,0.62,0.62
20.20,0.74,0.08,0.74,0.09,-0.08,-0.69,-0.61,0.66,0.66,0.66
20.40,0.79,0.10,0.79,0.10,-0.09,-0.70,-0.63,0.69,0.69,0.69
20.61,0.83,0.11,0.83,0.11,-0.11,-0.72,-0.64,0.72,0.72,0.72
20.81,0.88,0.13,0.88,0.13,-0.13,-0.73,-0.66,0.75,0.75,0.75
21.02,0.92,0.14,0.92,0.15,-0.15,-0.75,-0.68,0.77,0.77,0.78
21.23,0.97,0.17,0.97,0.17,-0.18,-0.76,-0.70,0.79,0.79,0.80
21.44,1.02,0.21,1.02,0.21,-0.21,-0.78,-0.72,0.81,0.81,0.81
21.66,1.07,0.25,1.07,0.25,-0.25,-0.79,-0.74,0.82,0.82,0.82
21.87,1.12,0.29,1.12,0.29,-0.29,-0.81,-0.76,0.83,0.83,0.83
22.09,1.17,0.33,1.17,0.33,-0.33,-0.83,-0.78,0.84,0.84,0.84
22.31,1.22,0.37,1.22,0.38,-0.38,-0.84,-0.80,0.84,0.84,0.85
22.54,1.27,0.42,1.27,0.43,-0.43,-0.86,-0.83,0.84,0.84,0.85
22.76,1.33,0.48,1.32,0.48,-0.48,-0.88,-0.85,0.85,0.85,0.85
22.99,1.38,0.53,1.38,0.53,-0.53,-0.89,-0.87,0.85,0.85,0.85
23.22,1.43,0.57,1.43,0.58,-0.58,-0.91,-0.90,0.85,0.86,0.86
23.45,1.49,0.63,1.48,0.63,-0.63,-0.93,-0.92,0.86,0.86,0.85
23.69,1.54,0.67,1.54,0.68,-0.68,-0.95,-0.95,0.86,0.86,0.86
23.92,1.59,0.72,1.59,0.72,-0.73,-0.97,-0.97,0.86,0.86,0.86
24.16,1.64,0.77,1.64,0.77,-0.78,-0.99,-1.00,0.86,0.86,0.87
24.40,1.69,0.82,1.69,0.82,-0.82,-1.01,-1.03,0.87,0.87,0.87
24.65,1.73,0.87,1.73,0.87,-0.86,-1.03,-1.06,0.87,0.88,0.86
24.89,1.78,0.92,1.77,0.91,-0.89,-1.05,-1.08,0.89,0.88,0.86
25.14,1.81,0.95,1.80,0.94,-0.92,-1.07,-1.11,0.88,0.88,0.86
25.39,1.82,0.97,1.82,0.96,-0.96,-1.09,-1.14,0.86,0.86,0.85
25.65,1.83,0.98,1.83,0.98,-0.99,-1.11,-1.17,0.84,0.84,0.85
25.91,1.84,1.00,1.85,1.01,-1.03,-1.13,-1.20,0.81,0.82,0.84
26.16,1.88,1.05,1.88,1.05,-1.07,-1.16,-1.23,0.81,0.81,0.83
26.43,1.93,1.10,1.93,1.10,-1.12,-1.18,-1.26,0.81,0.81,0.83
26.69,1.99,1.17,1.99,1.17,-1.18,-1.20,-1.29,0.81,0.81,0.82
26.96,2.05,1.23,2.05,1.23,-1.24,-1.23,-1.32,0.81,0.81,0.82
27.23,2.11,1.30,2.11,1.30,-1.30,-1.25,-1.35,0.81,0.81,0.81
27.50,2.17,1.36,2.17,1.37,-1.35,-1.28,-1.38,0.81,0.82,0.81
27.77,2.23,1.44,2.23,1.44,-1.41,-1.30,-1.41,0.82,0.82,0.79
28.05,2.28,1.49,2.27,1.48,-1.45,-1.33,-1.44,0.83,0.81,0.78
28.33,2.28,1.50,2.28,1.51,-1.49,-1.35,-1.47,0.78,0.79,0.77
28.62,2.29,1.52,2.29,1.52,-1.54,-1.38,-1.49,0.75,0.75,0.76
28.90,2.29,1.53,2.30,1.54,-1.57,-1.40,-1.52,0.71,0.72,0.76
29.19,2.33,1.58,2.33,1.58,-1.61,-1.43,-1.55,0.72,0.73,0.75
29.48,2.39,1.63,2.39,1.63,-1.64,-1.46,-1.58,0.75,0.75,0.76
29.78,2.45,1.70,2.45,1.70,-1.67,-1.49,-1.60,0.78,0.77,0.75
30.08,2.50,1.76,2.49,1.75,-1.71,-1.52,-1.63,0.79,0.77,0.74
30.38,2.51,1.78,2.50,1.77,-1.76,-1.55,-1.65,0.75,0.74,0.73
30.68,2.51,1.78,2.51,1.79,-1.81,-1.58,-1.68,0.70,0.70,0.73
30.99,2.52,1.80,2.54,1.82,-1.86,-1.61,-1.70,0.66,0.67,0.72
31.30,2.59,1.87,2.59,1.87,-1.91,-1.64,-1.73,0.68,0.68,0.71
31.61,2.66,1.95,2.66,1.95,-1.95,-1.67,-1.75,0.71,0.71,0.71
31.93,2.73,2.03,2.71,2.02,-1.98,-1.70,-1.77,0.75,0.74,0.70
32.24,2.75,2.07,2.74,2.06,-2.01,-1.73,-1.79,0.74,0.74,0.68
32.57,2.75,2.07,2.75,2.07,-2.04,-1.77,-1.81,0.71,0.72,0.68
32.89,2.75,2.06,2.75,2.07,-2.06,-1.80,-1.83,0.69,0.69,0.69
33.22,2.75,2.07,2.74,2.07,-2.09,-1.83,-1.85,0.66,0.65,0.68
33.55,2.75,2.07,2.74,2.07,-2.12,-1.87,-1.86,0.63,0.62,0.67
33.89,2.75,2.09,2.76,2.10,-2.15,-1.90,-1.88,0.60,0.62,0.66
34.23,2.80,2.14,2.81,2.15,-2.18,-1.94,-1.90,0.62,0.63,0.66
34.57,2.88,2.23,2.87,2.22,-2.21,-1.97,-1.92,0.67,0.66,0.65
34.92,2.95,2.30,2.93,2.29,-2.24,-2.01,-1.94,0.71,0.69,0.65
35.27,2.97,2.32,2.97,2.32,-2.27,-2.05,-1.95,0.70,0.69,0.65
35.62,2.97,2.34,2.97,2.34,-2.30,-2.08,-1.97,0.66,0.67,0.63
35.97,2.97,2.34,2.97,2.34,-2.34,-2.12,-1.99,0.63,0.63,0.63
36.33,2.97,2.34,2.96,2.34,-2.37,-2.16,-2.01,0.60,0.59,0.63
36.70,2.97,2.35,2.97,2.35,-2.41,-2.20,-2.03,0.56,0.56,0.62
37.06,2.98,2.38,3.01,2.40,-2.44,-2.24,-2.05,0.54,0.56,0.60
37.43,3.07,2.47,3.07,2.47,-2.48,-2.28,-2.07,0.59,0.59,0.60
37.81,3.16,2.57,3.14,2.55,-2.52,-2.32,-2.09,0.64,0.62,0.59
38.19,3.20,2.62,3.19,2.61,-2.56,-2.36,-2.11,0.64,0.63,0.58
38.57,3.20,2.62,3.20,2.63,-2.59,-2.40,-2.14,0.60,0.61,0.57
38.95,3.20,2.64,3.20,2.64,-2.62,-2.44,-2.16,0.58,0.58,0.56
39.34,3.20,2.65,3.20,2.65,-2.64,-2.48,-2.19,0.56,0.56,0.55
39.74,3.20,2.66,3.20,2.66,-2.66,-2.52,-2.22,0.54,0.54,0.53
40.14,3.20,2.66,3.19,2.66,-2.68,-2.57,-2.25,0.51,0.51,0.54
40.54,3.20,2.67,3.19,2.66,-2.71,-2.61,-2.28,0.49,0.48,0.53
40.94,3.20,2.67,3.23,2.70,-2.75,-2.65,-2.31,0.45,0.48,0.52
41.35,3.28,2.77,3.29,2.77,-2.79,-2.70,-2.35,0.49,0.50,0.51
41.76,3.38,2.87,3.36,2.85,-2.83,-2.74,-2.38,0.55,0.53,0.51
42.18,3.43,2.93,3.41,2.92,-2.88,-2.78,-2.42,0.55,0.54,0.49
42.60,3.43,2.95,3.44,2.95,-2.92,-2.83,-2.46,0.51,0.51,0.48
43.03,3.43,2.96,3.43,2.97,-2.96,-2.87,-2.50,0.47,0.47,0.47
43.46,3.43,2.99,3.43,2.99,-2.99,-2.92,-2.55,0.44,0.44,0.44
43.90,3.43,3.02,3.43,3.02,-3.02,-2.96,-2.59,0.41,0.41,0.41
44.33,3.43,3.05,3.43,3.05,-3.05,-3.01,-2.64,0.38,0.38,0.38
44.78,3.43,3.07,3.43,3.07,-3.08,-3.05,-2.69,0.35,0.35,0.36
45.23,3.43,3.10,3.42,3.09,-3.12,-3.10,-2.74,0.31,0.30,0.33
45.68,3.43,3.12,3.44,3.13,-3.17,-3.14,-2.80,0.26,0.27,0.31
46.13,3.46,3.17,3.49,3.20,-3.22,-3.19,-2.85,0.24,0.27,0.29
46.60,3.57,3.28,3.56,3.28,-3.27,-3.23,-2.91,0.30,0.29,0.29
47.06,3.66,3.39,3.63,3.36,-3.32,-3.28,-2.97,0.34,0.31,0.27
47.53,3.66,3.41,3.66,3.40,-3.36,-3.32,-3.03,0.30,0.31,0.25
48.01,3.66,3.40,3.67,3.41,-3.39,-3.37,-3.09,0.26,0.27,0.26
48.49,3.66,3.41,3.66,3.41,-3.42,-3.41,-3.16,0.24,0.24,0.25
48.97,3.66,3.43,3.66,3.42,-3.43,-3.46,-3.22,0.23,0.23,0.23
49.46,3.66,3.43,3.66,3.43,-3.43,-3.50,-3.29,0.22,0.22,0.23
49.96,3.66,3.43,3.66,3.43,-3.43,-3.55,-3.36,0.23,0.23,0.23
50.46,3.66,3.42,3.66,3.42,-3.42,-3.59,-3.43,0.24,0.24,0.24
50.96,3.66,3.41,3.66,3.42,-3.41,-3.63,-3.50,0.25,0.25,0.24
51.47,3.66,3.42,3.66,3.42,-3.41,-3.67,-3.57,0.25,0.25,0.24
51.99,3.66,3.43,3.66,3.43,-3.42,-3.71,-3.64,0.24,0.24,0.23
52.51,3.66,3.43,3.66,3.43,-3.44,-3.76,-3.71,0.22,0.21,0.23
53.03,3.66,3.45,3.65,3.44,-3.48,-3.80,-3.78,0.18,0.17,0.21
53.56,3.66,3.47,3.66,3.47,-3.53,-3.83,-3.85,0.13,0.14,0.19
54.10,3.68,3.51,3.72,3.55,-3.58,-3.87,-3.92,0.10,0.14,0.17
54.64,3.81,3.67,3.79,3.65,-3.64,-3.91,-3.99,0.17,0.15,0.14
55.18,3.89,3.78,3.86,3.75,-3.70,-3.95,-4.06,0.19,0.16,0.11
55.74,3.89,3.81,3.90,3.81,-3.76,-3.98,-4.12,0.13,0.13,0.08
56.29,3.89,3.83,3.90,3.84,-3.82,-4.02,-4.18,0.07,0.08,0.06
56.86,3.89,3.86,3.89,3.87,-3.87,-4.05,-4.24,0.02,0.02,0.03
57.42,3.89,3.90,3.89,3.90,-3.91,-4.09,-4.30,-0.02,-0.02,-0.02
58.00,3.89,3.94,3.89,3.94,-3.94,-4.12,-4.35,-0.06,-0.06,-0.05
58.58,3.89,3.97,3.89,3.97,-3.97,-4.15,-4.40,-0.08,-0.08,-0.08
59.16,3.89,3.99,3.89,4.00,-4.00,-4.18,-4.45,-0.11,-0.11,-0.10
59.76,3.89,4.03,3.89,4.03,-4.04,-4.21,-4.49,-0.15,-0.15,-0.14
60.35,3.89,4.07,3.89,4.07,-4.07,-4.23,-4.53,-0.19,-0.19,-0.18
60.96,3.89,4.11,3.89,4.11,-4.11,-4.26,-4.56,-0.22,-0.22,-0.22
61.57,3.89,4.16,3.89,4.15,-4.15,-4.28,-4.59,-0.26,-0.26,-0.27
62.18,3.89,4.20,3.89,4.20,-4.19,-4.30,-4.61,-0.30,-0.30,-0.31
62.80,3.89,4.23,3.89,4.24,-4.23,-4.33,-4.63,-0.34,-0.34,-0.34
63.43,3.89,4.28,3.89,4.27,-4.27,-4.35,-4.64,-0.38,-0.38,-0.39
64.07,3.89,4.31,3.89,4.31,-4.31,-4.37,-4.64,-0.42,-0.42,-0.42
64.71,3.89,4.34,3.89,4.34,-4.34,-4.38,-4.65,-0.45,-0.45,-0.45
65.35,3.89,4.37,3.89,4.37,-4.37,-4.40,-4.64,-0.49,-0.49,-0.48
66.01,3.89,4.41,3.89,4.40,-4.40,-4.41,-4.64,-0.51,-0.51,-0.52
66.67,3.89,4.43,3.89,4.43,-4.43,-4.43,-4.62,-0.54,-0.54,-0.54
67.33,3.89,4.46,3.89,4.46,-4.46,-4.44,-4.61,-0.57,-0.57,-0.57
68.01,3.89,4.48,3.89,4.48,-4.48,-4.45,-4.59,-0.59,-0.59,-0.59
68.69,3.89,4.50,3.89,4.50,-4.50,-4.46,-4.57,-0.61,-0.61,-0.61
69.37,3.89,4.52,3.89,4.52,-4.52,-4.47,-4.55,-0.63,-0.63,-0.63
70.07,3.89,4.54,3.89,4.54,-4.54,-4.48,-4.52,-0.65,-0.65,-0.65
70.77,3.89,4.55,3.89,4.55,-4.56,-4.48,-4.49,-0.67,-0.67,-0.67
71.48,3.89,4.57,3.89,4.57,-4.58,-4.49,-4.46,-0.69,-0.69,-0.68
72.19,3.89,4.59,3.89,4.59,-4.60,-4.49,-4.43,-0.71,-0.71,-0.70
72.91,3.89,4.62,3.89,4.61,-4.62,-4.50,-4.40,-0.73,-0.73,-0.73
73.64,3.89,4.64,3.89,4.64,-4.64,-4.50,-4.37,-0.75,-0.75,-0.75
74.38,3.89,4.66,3.89,4.66,-4.66,-4.50,-4.33,-0.77,-0.77,-0.77
75.12,3.89,4.68,3.89,4.68,-4.68,-4.50,-4.30,-0.79,-0.79,-0.79
75.87,3.89,4.71,3.89,4.70,-4.70,-4.50,-4.27,-0.82,-0.82,-0.82
76.63,3.89,4.72,3.89,4.73,-4.72,-4.50,-4.24,-0.83,-0.83,-0.84
77.40,3.89,4.74,3.89,4.74,-4.74,-4.50,-4.21,-0.85,-0.85,-0.85
78.17,3.89,4.76,3.89,4.75,-4.75,-4.49,-4.19,-0.87,-0.87,-0.87
78.95,3.89,4.76,3.89,4.76,-4.76,-4.49,-4.16,-0.88,-0.88,-0.87
79.74,3.89,4.77,3.89,4.77,-4.77,-4.49,-4.14,-0.88,-0.88,-0.88
80.54,3.89,4.78,3.89,4.78,-4.78,-4.48,-4.12,-0.89,-0.89,-0.89
81.35,3.89,4.78,3.89,4.78,-4.78,-4.48,-4.10,-0.89,-0.89,-0.89
82.16,3.89,4.78,3.89,4.78,-4.78,-4.47,-4.08,-0.89,-0.89,-0.89
82.98,3.89,4.77,3.89,4.78,-4.78,-4.47,-4.07,-0.89,-0.89,-0.88
83.81,3.89,4.78,3.89,4.77,-4.78,-4.46,-4.06,-0.89,-0.89,-0.89
84.65,3.89,4.77,3.89,4.77,-4.78,-4.45,-4.05,-0.89,-0.89,-0.88
85.50,3.89,4.75,3.89,4.76,-4.77,-4.45,-4.05,-0.88,-0.88,-0.86
86.35,3.89,4.75,3.89,4.74,-4.74,-4.44,-4.05,-0.85,-0.85,-0.86
87.22,3.89,4.73,3.90,4.75,-4.71,-4.44,-4.05,-0.82,-0.81,-0.84
88.09,3.89,4.73,3.89,4.72,-4.67,-4.43,-4.06,-0.78,-0.78,-0.84
88.97,3.89,4.71,3.83,4.66,-4.63,-4.43,-4.06,-0.74,-0.79,-0.82
89.86,3.73,4.54,3.76,4.58,-4.58,-4.42,-4.07,-0.85,-0.82,-0.81
90.76,3.67,4.48,3.69,4.50,-4.54,-4.41,-4.09,-0.87,-0.85,-0.81
91.66,3.66,4.46,3.65,4.45,-4.52,-4.41,-4.11,-0.86,-0.87,-0.80
92.58,3.66,4.47,3.65,4.45,-4.50,-4.40,-4.13,-0.84,-0.84,-0.81
93.51,3.66,4.45,3.66,4.45,-4.48,-4.40,-4.15,-0.82,-0.82,-0.80
94.44,3.66,4.45,3.66,4.46,-4.47,-4.40,-4.17,-0.81,-0.81,-0.79
95.39,3.66,4.46,3.66,4.46,-4.45,-4.39,-4.20,-0.79,-0.78,-0.80
96.34,3.66,4.47,3.68,4.48,-4.41,-4.39,-4.23,-0.76,-0.74,-0.81
97.30,3.66,4.47,3.65,4.46,-4.37,-4.39,-4.27,-0.71,-0.72,-0.81
98.28,3.61,4.42,3.55,4.36,-4.31,-4.38,-4.31,-0.70,-0.76,-0.82
99.26,3.40,4.22,3.41,4.23,-4.23,-4.38,-4.34,-0.84,-0.82,-0.82
100.25,3.21,4.04,3.28,4.12,-4.15,-4.38,-4.39,-0.94,-0.87,-0.83
101.25,3.20,4.04,3.18,4.03,-4.07,-4.38,-4.43,-0.87,-0.89,-0.84
102.27,3.17,4.02,3.12,3.97,-4.00,-4.38,-4.47,-0.83,-0.89,-0.85
103.29,3.05,3.93,3.06,3.94,-3.95,-4.38,-4.52,-0.90,-0.89,-0.88
104.32,2.97,3.87,3.00,3.90,-3.92,-4.38,-4.56,-0.95,-0.92,-0.90
105.37,2.97,3.90,2.96,3.89,-3.92,-4.38,-4.61,-0.95,-0.96,-0.93
106.42,2.97,3.93,2.96,3.93,-3.93,-4.39,-4.66,-0.97,-0.97,-0.96
107.48,2.97,3.98,2.97,3.98,-3.97,-4.39,-4.71,-1.00,-1.00,-1.01
108.56,2.97,4.03,2.97,4.02,-4.01,-4.40,-4.76,-1.04,-1.04,-1.06
109.64,2.97,4.07,2.97,4.07,-4.06,-4.40,-4.80,-1.09,-1.09,-1.10
110.74,2.97,4.12,2.97,4.11,-4.11,-4.41,-4.85,-1.14,-1.14,-1.15
111.85,2.97,4.15,2.97,4.16,-4.16,-4.41,-4.90,-1.19,-1.19,-1.19
112.97,2.97,4.22,2.97,4.21,-4.20,-4.42,-4.94,-1.24,-1.24,-1.25
114.10,2.97,4.26,2.97,4.27,-4.25,-4.43,-4.98,-1.28,-1.28,-1.29
115.24,2.97,4.32,2.97,4.32,-4.31,-4.44,-5.02,-1.34,-1.34,-1.35
116.39,2.97,4.37,2.97,4.37,-4.37,-4.45,-5.05,-1.40,-1.40,-1.40
117.55,2.97,4.42,2.95,4.39,-4.44,-4.46,-5.08,-1.47,-1.49,-1.45
118.73,2.97,4.45,2.98,4.46,-4.51,-4.47,-5.11,-1.54,-1.53,-1.48
119.92,2.98,4.49,3.05,4.57,-4.59,-4.49,-5.14,-1.61,-1.54,-1.51
121.12,3.20,4.75,3.12,4.67,-4.66,-4.50,-5.16,-1.46,-1.53,-1.55
122.33,3.20,4.77,3.19,4.76,-4.72,-4.51,-5.17,-1.52,-1.53,-1.57
123.55,3.20,4.79,3.22,4.81,-4.77,-4.53,-5.18,-1.57,-1.55,-1.59
124.79,3.20,4.81,3.20,4.82,-4.80,-4.55,-5.19,-1.60,-1.60,-1.62
126.03,3.20,4.84,3.21,4.85,-4.81,-4.56,-5.19,-1.62,-1.60,-1.64
127.29,3.20,4.85,3.18,4.84,-4.81,-4.58,-5.18,-1.61,-1.63,-1.66
128.57,3.15,4.84,3.11,4.80,-4.80,-4.60,-5.18,-1.65,-1.68,-1.69
129.85,2.99,4.70,3.04,4.75,-4.78,-4.62,-5.16,-1.79,-1.74,-1.71
131.15,2.97,4.70,2.98,4.71,-4.76,-4.64,-5.14,-1.79,-1.78,-1.74
132.46,2.97,4.73,2.95,4.71,-4.75,-4.66,-5.12,-1.78,-1.80,-1.76
133.79,2.97,4.74,2.97,4.74,-4.75,-4.69,-5.10,-1.78,-1.79,-1.77
135.12,2.97,4.77,2.97,4.76,-4.76,-4.71,-5.07,-1.79,-1.79,-1.80
136.48,2.97,4.78,2.97,4.79,-4.79,-4.73,-5.04,-1.82,-1.82,-1.81
137.84,2.97,4.81,2.97,4.82,-4.82,-4.76,-5.00,-1.85,-1.85,-1.84
139.22,2.97,4.85,2.97,4.84,-4.84,-4.79,-4.96,-1.87,-1.87,-1.88
140.61,2.97,4.87,2.97,4.87,-4.86,-4.81,-4.92,-1.89,-1.89,-1.90
142.02,2.97,4.88,2.98,4.90,-4.86,-4.84,-4.88,-1.89,-1.88,-1.91
143.44,2.97,4.91,2.97,4.91,-4.86,-4.87,-4.84,-1.89,-1.89,-1.94
144.87,2.97,4.93,2.92,4.88,-4.85,-4.90,-4.80,-1.88,-1.94,-1.97
146.32,2.82,4.82,2.85,4.84,-4.85,-4.93,-4.75,-2.03,-2.01,-2.00
147.78,2.75,4.78,2.78,4.81,-4.86,-4.96,-4.71,-2.11,-2.08,-2.03
149.26,2.75,4.81,2.74,4.81,-4.87,-4.99,-4.67,-2.12,-2.13,-2.06
150.75,2.75,4.87,2.74,4.86,-4.89,-5.02,-4.63,-2.14,-2.15,-2.12
152.26,2.75,4.92,2.75,4.92,-4.92,-5.05,-4.59,-2.18,-2.18,-2.17
153.78,2.75,4.99,2.75,4.98,-4.97,-5.08,-4.55,-2.22,-2.22,-2.24
155.32,2.75,5.05,2.75,5.04,-5.03,-5.10,-4.51,-2.28,-2.28,-2.30
156.88,2.75,5.10,2.75,5.11,-5.10,-5.13,-4.47,-2.35,-2.35,-2.35
158.44,2.75,5.16,2.75,5.16,-5.17,-5.15,-4.44,-2.42,-2.42,-2.41
160.03,2.75,5.22,2.75,5.22,-5.23,-5.17,-4.41,-2.48,-2.48,-2.48
161.63,2.75,5.27,2.75,5.27,-5.28,-5.19,-4.38,-2.53,-2.53,-2.52
163.24,2.75,5.32,2.75,5.31,-5.32,-5.20,-4.35,-2.57,-2.57,-2.57
164.88,2.75,5.35,2.75,5.35,-5.34,-5.22,-4.33,-2.59,-2.58,-2.60
166.53,2.75,5.37,2.76,5.39,-5.34,-5.23,-4.31,-2.59,-2.58,-2.63
168.19,2.75,5.40,2.73,5.38,-5.33,-5.23,-4.29,-2.58,-2.60,-2.66
169.87,2.70,5.37,2.67,5.34,-5.31,-5.24,-4.27,-2.62,-2.65,-2.67
171.57,2.56,5.24,2.59,5.27,-5.29,-5.24,-4.26,-2.73,-2.69,-2.68
173.29,2.52,5.20,2.53,5.21,-5.26,-5.25,-4.25,-2.74,-2.73,-2.68
175.02,2.52,5.19,2.51,5.19,-5.24,-5.25,-4.25,-2.72,-2.73,-2.67
176.77,2.52,5.20,2.51,5.19,-5.22,-5.25,-4.25,-2.70,-2.70,-2.68
178.54,2.52,5.19,2.52,5.19,-5.20,-5.24,-4.25,-2.68,-2.68,-2.68
180.32,2.52,5.19,2.52,5.19,-5.19,-5.24,-4.25,-2.67,-2.67,-2.67
182.13,2.52,5.18,2.52,5.19,-5.17,-5.24,-4.26,-2.66,-2.66,-2.67
183.95,2.52,5.19,2.54,5.20,-5.16,-5.23,-4.27,-2.64,-2.62,-2.67
185.79,2.52,5.18,2.51,5.19,-5.14,-5.23,-4.29,-2.62,-2.62,-2.66
187.65,2.52,5.21,2.46,5.14,-5.12,-5.22,-4.30,-2.60,-2.66,-2.69
189.52,2.34,5.04,2.38,5.08,-5.09,-5.21,-4.32,-2.75,-2.71,-2.70
191.42,2.29,5.00,2.31,5.03,-5.07,-5.20,-4.35,-2.78,-2.75,-2.71
193.33,2.29,5.01,2.27,5.00,-5.05,-5.19,-4.37,-2.76,-2.78,-2.72
195.27,2.29,5.03,2.28,5.02,-5.04,-5.18,-4.40,-2.76,-2.76,-2.74
197.22,2.29,5.04,2.29,5.04,-5.05,-5.17,-4.43,-2.76,-2.76,-2.75
199.19,2.29,5.07,2.29,5.06,-5.06,-5.16,-4.46,-2.77,-2.77,-2.78
201.18,2.29,5.08,2.29,5.08,-5.07,-5.14,-4.50,-2.79,-2.79,-2.79
203.19,2.29,5.09,2.29,5.09,-5.08,-5.13,-4.53,-2.80,-2.80,-2.80
205.23,2.29,5.11,2.30,5.12,-5.08,-5.11,-4.57,-2.80,-2.78,-2.82
207.28,2.29,5.12,2.29,5.12,-5.08,-5.09,-4.61,-2.79,-2.78,-2.83
209.35,2.29,5.14,2.24,5.10,-5.06,-5.07,-4.65,-2.77,-2.81,-2.85
211.44,2.16,5.04,2.17,5.04,-5.04,-5.05,-4.69,-2.88,-2.87,-2.88
213.56,2.07,4.95,2.10,4.98,-5.02,-5.02,-4.73,-2.96,-2.92,-2.89
215.69,2.06,4.94,2.05,4.95,-5.01,-5.00,-4.77,-2.95,-2.96,-2.88
217.85,2.06,4.96,2.05,4.95,-5.00,-4.97,-4.81,-2.94,-2.95,-2.90
220.03,2.06,4.98,2.06,4.98,-4.99,-4.94,-4.85,-2.93,-2.93,-2.92
222.23,2.06,5.00,2.06,4.99,-4.97,-4.91,-4.88,-2.91,-2.91,-2.94
224.45,2.06,4.99,2.07,5.01,-4.95,-4.88,-4.92,-2.89,-2.88,-2.93
226.70,2.06,5.00,2.06,4.99,-4.93,-4.85,-4.95,-2.87,-2.88,-2.94
228.96,2.06,5.00,2.00,4.94,-4.91,-4.82,-4.98,-2.85,-2.91,-2.94
231.25,1.89,4.82,1.93,4.87,-4.89,-4.78,-5.00,-3.00,-2.96,-2.93
233.57,1.84,4.78,1.86,4.80,-4.86,-4.75,-5.02,-3.03,-3.00,-2.94
235.90,1.84,4.78,1.82,4.77,-4.83,-4.71,-5.04,-2.99,-3.01,-2.95
238.26,1.84,4.78,1.83,4.78,-4.80,-4.67,-5.05,-2.96,-2.97,-2.94
240.64,1.84,4.78,1.84,4.77,-4.76,-4.63,-5.06,-2.92,-2.92,-2.94
243.05,1.84,4.76,1.86,4.78,-4.73,-4.59,-5.06,-2.89,-2.87,-2.92
245.48,1.84,4.75,1.83,4.74,-4.69,-4.55,-5.05,-2.85,-2.86,-2.91
247.93,1.84,4.73,1.77,4.67,-4.65,-4.51,-5.04,-2.81,-2.87,-2.89
250.41,1.65,4.54,1.70,4.58,-4.59,-4.46,-5.03,-2.94,-2.89,-2.89
252.92,1.61,4.47,1.64,4.51,-4.52,-4.42,-5.01,-2.91,-2.88,-2.86
255.45,1.61,4.45,1.59,4.44,-4.45,-4.37,-4.98,-2.84,-2.86,-2.84
258.00,1.61,4.43,1.56,4.38,-4.38,-4.33,-4.94,-2.77,-2.82,-2.82
260.58,1.47,4.28,1.49,4.30,-4.31,-4.28,-4.90,-2.84,-2.82,-2.82
263.19,1.39,4.18,1.42,4.21,-4.24,-4.23,-4.86,-2.85,-2.82,-2.79
265.82,1.38,4.15,1.38,4.15,-4.18,-4.19,-4.81,-2.80,-2.80,-2.77
268.48,1.38,4.14,1.38,4.13,-4.11,-4.14,-4.75,-2.74,-2.73,-2.76
271.16,1.38,4.11,1.35,4.08,-4.05,-4.09,-4.69,-2.67,-2.70,-2.73
273.87,1.30,4.01,1.28,3.99,-3.98,-4.04,-4.62,-2.68,-2.70,-2.71
276.61,1.17,3.86,1.21,3.90,-3.90,-3.99,-4.56,-2.73,-2.69,-2.69
279.38,1.15,3.82,1.17,3.83,-3.82,-3.94,-4.48,-2.67,-2.65,-2.67
282.17,1.15,3.79,1.11,3.76,-3.74,-3.89,-4.41,-2.59,-2.63,-2.64
284.99,1.10,3.71,1.06,3.67,-3.66,-3.84,-4.33,-2.57,-2.61,-2.62
287.84,0.93,3.52,0.98,3.57,-3.59,-3.79,-4.25,-2.66,-2.61,-2.59
290.72,0.92,3.48,0.93,3.49,-3.53,-3.74,-4.17,-2.61,-2.60,-2.56
293.63,0.92,3.46,0.90,3.44,-3.48,-3.69,-4.09,-2.56,-2.57,-2.54
296.57,0.92,3.42,0.92,3.43,-3.43,-3.64,-4.01,-2.52,-2.52,-2.51
299.53,0.92,3.41,0.92,3.41,-3.40,-3.59,-3.92,-2.48,-2.48,-2.49
302.53,0.92,3.40,0.92,3.39,-3.38,-3.54,-3.84,-2.46,-2.46,-2.48
305.55,0.92,3.36,0.92,3.37,-3.37,-3.49,-3.76,-2.45,-2.45,-2.44
308.61,0.92,3.35,0.92,3.35,-3.35,-3.44,-3.68,-2.43,-2.43,-2.44
311.69,0.92,3.33,0.92,3.33,-3.33,-3.39,-3.59,-2.41,-2.41,-2.41
314.81,0.92,3.31,0.93,3.33,-3.29,-3.35,-3.51,-2.38,-2.36,-2.39
317.96,0.92,3.30,0.91,3.30,-3.25,-3.30,-3.43,-2.34,-2.34,-2.38
321.14,0.91,3.29,0.86,3.24,-3.21,-3.25,-3.35,-2.30,-2.36,-2.38
324.35,0.75,3.13,0.79,3.16,-3.17,-3.20,-3.28,-2.42,-2.39,-2.38
327.59,0.70,3.06,0.72,3.09,-3.14,-3.15,-3.20,-2.44,-2.41,-2.37
330.87,0.70,3.06,0.69,3.05,-3.10,-3.10,-3.13,-2.41,-2.42,-2.36
334.18,0.70,3.06,0.69,3.05,-3.07,-3.06,-3.05,-2.38,-2.38,-2.36
337.52,0.70,3.04,0.70,3.04,-3.04,-3.01,-2.98,-2.34,-2.34,-2.34
340.90,0.70,3.02,0.70,3.02,-3.01,-2.96,-2.91,-2.31,-2.31,-2.32
344.30,0.70,3.00,0.71,3.01,-2.97,-2.92,-2.85,-2.27,-2.27,-2.30
347.75,0.70,2.98,0.70,2.99,-2.93,-2.87,-2.78,-2.23,-2.23,-2.29
351.23,0.70,2.97,0.66,2.93,-2.89,-2.83,-2.72,-2.19,-2.22,-2.27
354.74,0.60,2.85,0.59,2.84,-2.83,-2.78,-2.66,-2.24,-2.24,-2.25
358.28,0.49,2.71,0.52,2.74,-2.78,-2.74,-2.60,-2.29,-2.25,-2.22
361.87,0.47,2.67,0.47,2.67,-2.72,-2.70,-2.54,-2.25,-2.25,-2.20
365.49,0.47,2.64,0.46,2.64,-2.68,-2.66,-2.49,-2.21,-2.22,-2.17
369.14,0.47,2.63,0.47,2.63,-2.64,-2.61,-2.44,-2.17,-2.17,-2.16
372.83,0.47,2.61,0.47,2.61,-2.61,-2.57,-2.39,-2.14,-2.14,-2.14
376.56,0.47,2.59,0.47,2.59,-2.58,-2.53,-2.34,-2.12,-2.12,-2.12
380.33,0.47,2.56,0.47,2.57,-2.56,-2.49,-2.29,-2.09,-2.09,-2.10
384.13,0.47,2.54,0.48,2.57,-2.52,-2.45,-2.25,-2.06,-2.04,-2.08
387.97,0.47,2.55,0.46,2.53,-2.48,-2.41,-2.20,-2.02,-2.02,-2.08
391.85,0.46,2.53,0.41,2.47,-2.44,-2.37,-2.16,-1.98,-2.03,-2.07
395.77,0.30,2.35,0.33,2.38,-2.40,-2.33,-2.12,-2.10,-2.07,-2.05
399.73,0.24,2.28,0.27,2.30,-2.36,-2.30,-2.08,-2.12,-2.09,-2.04
403.72,0.24,2.27,0.23,2.25,-2.32,-2.26,-2.05,-2.08,-2.10,-2.03
407.76,0.24,2.26,0.23,2.25,-2.28,-2.22,-2.01,-2.04,-2.05,-2.02
411.84,0.24,2.25,0.24,2.25,-2.24,-2.19,-1.98,-2.00,-2.00,-2.01
415.96,0.24,2.24,0.25,2.25,-2.20,-2.15,-1.95,-1.96,-1.95,-2.00
420.12,0.24,2.23,0.23,2.23,-2.16,-2.12,-1.92,-1.92,-1.93,-1.99
424.32,0.22,2.21,0.17,2.16,-2.13,-2.09,-1.89,-1.91,-1.96,-1.99
428.56,0.07,2.05,0.10,2.09,-2.10,-2.05,-1.86,-2.03,-2.00,-1.98
432.85,0.01,1.99,0.03,2.02,-2.06,-2.02,-1.83,-2.05,-2.03,-1.98
437.18,0.01,1.98,-0.00,1.97,-2.02,-1.99,-1.81,-2.01,-2.02,-1.97
441.55,0.01,1.97,0.00,1.97,-1.99,-1.96,-1.78,-1.98,-1.99,-1.97
445.96,0.01,1.96,0.01,1.97,-1.96,-1.93,-1.76,-1.95,-1.95,-1.96
450.42,0.01,1.96,0.01,1.96,-1.94,-1.90,-1.74,-1.94,-1.94,-1.96
454.93,0.01,1.94,0.01,1.95,-1.94,-1.87,-1.72,-1.93,-1.93,-1.94
459.48,0.01,1.95,0.01,1.94,-1.93,-1.84,-1.69,-1.92,-1.92,-1.94
464.07,0.01,1.93,0.01,1.93,-1.93,-1.81,-1.67,-1.92,-1.92,-1.92
468.71,0.01,1.91,0.01,1.91,-1.92,-1.78,-1.66,-1.91,-1.91,-1.90
473.40,0.01,1.91,0.01,1.90,-1.91,-1.76,-1.64,-1.90,-1.90,-1.90
478.13,0.01,1.89,0.01,1.89,-1.90,-1.73,-1.62,-1.89,-1.89,-1.88
482.91,0.01,1.88,0.01,1.87,-1.88,-1.70,-1.60,-1.87,-1.87,-1.87
487.74,0.01,1.85,0.01,1.85,-1.86,-1.68,-1.59,-1.85,-1.85,-1.84
492.62,0.01,1.82,0.01,1.82,-1.82,-1.65,-1.57,-1.81,-1.81,-1.81
