frequency,raw,error,smoothed,error_smoothed,equalization,parametric_eq,fixed_band_eq,equalized_raw,equalized_smoothed,target
20.00,-3.18,-1.14,-3.21,-1.17,0.98,0.46,-0.32,-2.20,-2.23,-2.04
20.20,-3.02,-0.97,-2.99,-0.94,0.87,0.46,-0.33,-2.14,-2.12,-2.05
20.40,-2.84,-0.78,-2.81,-0.75,0.78,0.46,-0.34,-2.07,-2.04,-2.07
20.61,-2.69,-0.61,-2.66,-0.58,0.69,0.45,-0.35,-2.00,-1.97,-2.08
20.81,-2.52,-0.43,-2.52,-0.42,0.62,0.44,-0.35,-1.91,-1.90,-2.10
21.02,-2.39,-0.28,-2.45,-0.35,0.55,0.43,-0.36,-1.84,-1.90,-2.11
21.23,-2.48,-0.36,-2.47,-0.35,0.50,0.41,-0.37,-1.98,-1.97,-2.12
21.44,-2.58,-0.45,-2.56,-0.43,0.45,0.39,-0.38,-2.12,-2.10,-2.13
21.66,-2.67,-0.52,-2.68,-0.54,0.48,0.37,-0.39,-2.18,-2.20,-2.15
21.87,-2.77,-0.62,-2.75,-0.60,0.51,0.35,-0.40,-2.26,-2.24,-2.15
22.09,-2.79,-0.63,-2.76,-0.60,0.53,0.32,-0.41,-2.26,-2.23,-2.16
22.31,-2.70,-0.53,-2.71,-0.54,0.50,0.30,-0.42,-2.19,-2.21,-2.17
22.54,-2.62,-0.44,-2.64,-0.46,0.42,0.27,-0.43,-2.19,-2.21,-2.18
22.76,-2.54,-0.35,-2.54,-0.36,0.29,0.24,-0.44,-2.24,-2.25,-2.19
22.99,-2.45,-0.26,-2.41,-0.22,0.12,0.21,-0.45,-2.33,-2.29,-2.19
23.22,-2.23,-0.03,-2.23,-0.03,-0.06,0.18,-0.46,-2.28,-2.29,-2.20
23.45,-1.98,0.21,-1.98,0.22,-0.21,0.14,-0.48,-2.20,-2.19,-2.20
23.69,-1.76,0.44,-1.73,0.47,-0.32,0.11,-0.49,-2.08,-2.06,-2.20
23.92,-1.53,0.67,-1.60,0.60,-0.39,0.08,-0.50,-1.92,-1.99,-2.20
24.16,-1.57,0.63,-1.59,0.61,-0.42,0.05,-0.51,-1.98,-2.01,-2.20
24.40,-1.74,0.46,-1.72,0.48,-0.40,0.02,-0.53,-2.14,-2.12,-2.20
24.65,-1.90,0.29,-1.91,0.29,-0.35,-0.01,-0.54,-2.26,-2.26,-2.20
24.89,-2.09,0.11,-2.06,0.14,-0.28,-0.05,-0.55,-2.36,-2.33,-2.20
25.14,-2.16,0.04,-2.14,0.06,-0.19,-0.08,-0.57,-2.35,-2.33,-2.20
25.39,-2.15,0.05,-2.16,0.04,-0.12,-0.11,-0.58,-2.26,-2.28,-2.20
25.65,-2.14,0.07,-2.15,0.06,-0.07,-0.14,-0.59,-2.21,-2.22,-2.21
25.91,-2.13,0.08,-2.12,0.09,-0.06,-0.17,-0.61,-2.19,-2.18,-2.21
26.16,-2.11,0.11,-2.10,0.11,-0.08,-0.20,-0.62,-2.19,-2.19,-2.22
26.43,-2.08,0.14,-2.08,0.14,-0.13,-0.23,-0.64,-2.20,-2.21,-2.22
26.69,-2.05,0.18,-2.05,0.18,-0.18,-0.26,-0.65,-2.22,-2.22,-2.23
26.96,-2.02,0.22,-2.01,0.22,-0.22,-0.29,-0.66,-2.24,-2.23,-2.24
27.23,-1.98,0.26,-1.98,0.26,-0.26,-0.32,-0.68,-2.24,-2.24,-2.24
27.50,-1.94,0.31,-1.94,0.31,-0.29,-0.35,-0.69,-2.23,-2.23,-2.25
27.77,-1.91,0.35,-1.90,0.36,-0.33,-0.38,-0.71,-2.24,-2.23,-2.26
28.05,-1.87,0.40,-1.87,0.40,-0.37,-0.41,-0.72,-2.24,-2.24,-2.27
28.33,-1.84,0.43,-1.84,0.43,-0.42,-0.44,-0.74,-2.25,-2.26,-2.27
28.62,-1.81,0.46,-1.81,0.46,-0.48,-0.46,-0.75,-2.28,-2.29,-2.27
28.90,-1.78,0.50,-1.76,0.51,-0.55,-0.49,-0.77,-2.33,-2.31,-2.28
29.19,-1.68,0.59,-1.67,0.60,-0.66,-0.52,-0.78,-2.33,-2.32,-2.27
29.48,-1.54,0.73,-1.55,0.72,-0.78,-0.55,-0.80,-2.31,-2.33,-2.27
29.78,-1.40,0.87,-1.40,0.86,-0.91,-0.58,-0.81,-2.31,-2.32,-2.27
30.08,-1.26,1.01,-1.25,1.02,-1.05,-0.60,-0.83,-2.31,-2.30,-2.27
30.38,-1.09,1.18,-1.07,1.20,-1.18,-0.63,-0.84,-2.27,-2.25,-2.27
30.68,-0.92,1.35,-0.91,1.36,-1.28,-0.66,-0.85,-2.20,-2.20,-2.27
30.99,-0.76,1.51,-0.82,1.45,-1.35,-0.69,-0.87,-2.11,-2.17,-2.27
31.30,-0.81,1.46,-0.79,1.47,-1.37,-0.71,-0.88,-2.18,-2.17,-2.27
31.61,-0.87,1.40,-0.84,1.42,-1.36,-0.74,-0.90,-2.22,-2.20,-2.27
31.93,-0.94,1.33,-0.94,1.33,-1.30,-0.77,-0.91,-2.24,-2.24,-2.27
32.24,-1.04,1.24,-1.05,1.22,-1.23,-0.80,-0.93,-2.27,-2.28,-2.28
32.57,-1.17,1.11,-1.17,1.11,-1.16,-0.82,-0.94,-2.32,-2.33,-2.28
32.89,-1.29,0.99,-1.25,1.02,-1.11,-0.85,-0.95,-2.40,-2.36,-2.28
33.22,-1.30,0.98,-1.30,0.98,-1.09,-0.88,-0.97,-2.39,-2.39,-2.28
33.55,-1.26,1.02,-1.28,1.01,-1.11,-0.91,-0.98,-2.36,-2.38,-2.28
33.89,-1.22,1.07,-1.20,1.08,-1.14,-0.93,-1.00,-2.36,-2.34,-2.29
34.23,-1.10,1.19,-1.07,1.21,-1.18,-0.96,-1.01,-2.28,-2.25,-2.29
34.57,-0.95,1.34,-0.94,1.35,-1.23,-0.99,-1.02,-2.18,-2.17,-2.29
34.92,-0.79,1.50,-0.85,1.44,-1.29,-1.02,-1.04,-2.08,-2.14,-2.29
35.27,-0.84,1.45,-0.87,1.42,-1.35,-1.05,-1.05,-2.19,-2.22,-2.29
35.62,-0.95,1.34,-0.94,1.35,-1.41,-1.08,-1.07,-2.35,-2.35,-2.29
35.97,-1.05,1.24,-0.98,1.32,-1.45,-1.11,-1.09,-2.50,-2.43,-2.30
36.33,-0.92,1.37,-0.91,1.39,-1.47,-1.14,-1.10,-2.39,-2.38,-2.30
36.70,-0.77,1.53,-0.79,1.51,-1.48,-1.17,-1.12,-2.25,-2.28,-2.30
37.06,-0.65,1.65,-0.70,1.60,-1.51,-1.19,-1.14,-2.15,-2.21,-2.30
37.43,-0.70,1.61,-0.69,1.61,-1.54,-1.22,-1.16,-2.24,-2.24,-2.31
37.81,-0.75,1.56,-0.72,1.59,-1.60,-1.26,-1.18,-2.35,-2.32,-2.31
38.19,-0.75,1.57,-0.73,1.59,-1.66,-1.29,-1.20,-2.41,-2.39,-2.32
38.57,-0.69,1.64,-0.69,1.63,-1.70,-1.32,-1.22,-2.39,-2.40,-2.33
38.95,-0.63,1.71,-0.62,1.71,-1.72,-1.35,-1.24,-2.34,-2.34,-2.34
39.34,-0.56,1.78,-0.54,1.80,-1.73,-1.38,-1.26,-2.29,-2.27,-2.34
39.74,-0.49,1.86,-0.50,1.85,-1.75,-1.41,-1.29,-2.24,-2.25,-2.35
40.14,-0.48,1.88,-0.53,1.83,-1.78,-1.44,-1.31,-2.26,-2.31,-2.36
40.54,-0.59,1.78,-0.59,1.78,-1.82,-1.47,-1.34,-2.40,-2.41,-2.37
40.94,-0.70,1.67,-0.62,1.75,-1.85,-1.51,-1.36,-2.55,-2.47,-2.37
41.35,-0.59,1.78,-0.57,1.80,-1.88,-1.54,-1.39,-2.46,-2.45,-2.37
41.76,-0.43,1.94,-0.46,1.90,-1.91,-1.57,-1.42,-2.33,-2.37,-2.37
42.18,-0.34,2.03,-0.37,2.00,-1.95,-1.60,-1.45,-2.28,-2.31,-2.37
42.60,-0.34,2.03,-0.33,2.04,-1.99,-1.64,-1.48,-2.33,-2.32,-2.37
43.03,-0.34,2.03,-0.31,2.06,-2.05,-1.67,-1.51,-2.39,-2.36,-2.37
43.46,-0.28,2.09,-0.28,2.08,-2.10,-1.70,-1.55,-2.38,-2.39,-2.37
43.90,-0.23,2.13,-0.23,2.13,-2.14,-1.74,-1.58,-2.37,-2.38,-2.36
44.33,-0.19,2.17,-0.19,2.17,-2.17,-1.77,-1.62,-2.35,-2.35,-2.36
44.78,-0.16,2.20,-0.16,2.20,-2.18,-1.80,-1.65,-2.34,-2.34,-2.36
45.23,-0.14,2.22,-0.14,2.22,-2.20,-1.84,-1.69,-2.33,-2.33,-2.36
45.68,-0.14,2.22,-0.14,2.22,-2.21,-1.87,-1.73,-2.34,-2.35,-2.36
46.13,-0.15,2.21,-0.16,2.20,-2.22,-1.90,-1.77,-2.36,-2.37,-2.36
46.60,-0.18,2.18,-0.18,2.18,-2.21,-1.94,-1.81,-2.39,-2.39,-2.36
47.06,-0.20,2.16,-0.15,2.21,-2.21,-1.97,-1.86,-2.40,-2.35,-2.36
47.53,-0.12,2.24,-0.11,2.25,-2.21,-2.00,-1.90,-2.33,-2.32,-2.36
48.01,-0.04,2.33,-0.13,2.24,-2.23,-2.04,-1.94,-2.26,-2.35,-2.37
48.49,-0.16,2.21,-0.16,2.21,-2.26,-2.07,-1.99,-2.41,-2.41,-2.37
48.97,-0.27,2.11,-0.16,2.21,-2.29,-2.10,-2.04,-2.55,-2.45,-2.38
49.46,-0.13,2.25,-0.12,2.26,-2.31,-2.14,-2.08,-2.44,-2.43,-2.38
49.96,0.04,2.42,-0.02,2.36,-2.32,-2.17,-2.13,-2.28,-2.35,-2.38
50.46,0.05,2.43,0.06,2.44,-2.33,-2.20,-2.18,-2.28,-2.27,-2.38
50.96,0.06,2.43,0.06,2.43,-2.34,-2.23,-2.23,-2.27,-2.27,-2.37
51.47,0.01,2.38,0.01,2.38,-2.35,-2.27,-2.28,-2.34,-2.34,-2.37
51.99,-0.04,2.33,-0.05,2.32,-2.38,-2.30,-2.33,-2.41,-2.43,-2.37
52.51,-0.09,2.29,-0.09,2.29,-2.40,-2.33,-2.38,-2.49,-2.49,-2.38
53.03,-0.12,2.26,-0.05,2.33,-2.42,-2.36,-2.43,-2.53,-2.47,-2.38
53.56,0.03,2.41,0.02,2.40,-2.42,-2.39,-2.48,-2.39,-2.40,-2.38
54.10,0.16,2.54,0.11,2.49,-2.43,-2.42,-2.52,-2.27,-2.32,-2.38
54.64,0.16,2.54,0.18,2.56,-2.45,-2.44,-2.57,-2.28,-2.27,-2.38
55.18,0.16,2.54,0.18,2.56,-2.47,-2.47,-2.62,-2.31,-2.29,-2.38
55.74,0.16,2.54,0.13,2.51,-2.50,-2.50,-2.66,-2.34,-2.37,-2.38
56.29,0.10,2.48,0.08,2.45,-2.53,-2.53,-2.71,-2.42,-2.45,-2.38
56.86,-0.01,2.37,0.08,2.45,-2.55,-2.55,-2.75,-2.55,-2.47,-2.38
57.42,0.10,2.47,0.12,2.49,-2.56,-2.58,-2.79,-2.46,-2.44,-2.38
58.00,0.26,2.64,0.19,2.57,-2.57,-2.60,-2.82,-2.30,-2.38,-2.38
58.58,0.26,2.64,0.27,2.64,-2.57,-2.62,-2.86,-2.31,-2.31,-2.38
59.16,0.26,2.64,0.28,2.66,-2.58,-2.64,-2.89,-2.32,-2.30,-2.38
59.76,0.26,2.64,0.27,2.65,-2.60,-2.67,-2.92,-2.33,-2.33,-2.38
60.35,0.26,2.64,0.26,2.64,-2.62,-2.69,-2.95,-2.35,-2.35,-2.38
60.96,0.26,2.63,0.21,2.58,-2.63,-2.71,-2.97,-2.36,-2.42,-2.37
61.57,0.16,2.53,0.19,2.56,-2.64,-2.72,-2.99,-2.47,-2.44,-2.37
62.18,0.13,2.50,0.21,2.58,-2.64,-2.74,-3.01,-2.51,-2.43,-2.37
62.80,0.31,2.69,0.26,2.64,-2.66,-2.76,-3.02,-2.35,-2.40,-2.38
63.43,0.36,2.74,0.34,2.72,-2.68,-2.77,-3.03,-2.32,-2.35,-2.38
64.07,0.36,2.75,0.38,2.76,-2.71,-2.79,-3.04,-2.34,-2.33,-2.39
64.71,0.36,2.75,0.37,2.76,-2.73,-2.80,-3.05,-2.36,-2.36,-2.39
65.35,0.36,2.76,0.37,2.76,-2.74,-2.82,-3.05,-2.38,-2.38,-2.40
66.01,0.36,2.76,0.37,2.77,-2.75,-2.83,-3.05,-2.39,-2.38,-2.40
66.67,0.36,2.77,0.36,2.76,-2.75,-2.84,-3.04,-2.39,-2.40,-2.41
67.33,0.34,2.75,0.33,2.74,-2.76,-2.85,-3.04,-2.42,-2.43,-2.41
68.01,0.29,2.71,0.30,2.72,-2.77,-2.87,-3.03,-2.47,-2.47,-2.42
68.69,0.28,2.70,0.31,2.73,-2.78,-2.88,-3.02,-2.50,-2.47,-2.42
69.37,0.34,2.77,0.36,2.79,-2.81,-2.89,-3.01,-2.46,-2.45,-2.43
70.07,0.46,2.89,0.42,2.85,-2.83,-2.89,-2.99,-2.37,-2.41,-2.43
70.77,0.46,2.90,0.46,2.90,-2.86,-2.90,-2.98,-2.39,-2.39,-2.44
71.48,0.46,2.90,0.48,2.92,-2.88,-2.91,-2.96,-2.42,-2.41,-2.44
72.19,0.46,2.91,0.46,2.91,-2.90,-2.92,-2.95,-2.44,-2.44,-2.45
72.91,0.46,2.91,0.46,2.91,-2.91,-2.93,-2.93,-2.45,-2.45,-2.45
73.64,0.46,2.91,0.46,2.91,-2.91,-2.93,-2.92,-2.44,-2.44,-2.45
74.38,0.46,2.91,0.47,2.92,-2.90,-2.94,-2.90,-2.44,-2.43,-2.45
75.12,0.46,2.91,0.45,2.90,-2.91,-2.95,-2.88,-2.44,-2.45,-2.45
75.87,0.45,2.91,0.42,2.87,-2.91,-2.95,-2.87,-2.46,-2.49,-2.46
76.63,0.37,2.83,0.42,2.88,-2.93,-2.96,-2.85,-2.55,-2.50,-2.46
77.40,0.42,2.88,0.46,2.92,-2.94,-2.96,-2.84,-2.52,-2.49,-2.46
78.17,0.56,3.02,0.51,2.96,-2.96,-2.97,-2.83,-2.40,-2.45,-2.46
78.95,0.56,3.02,0.56,3.02,-2.98,-2.98,-2.82,-2.41,-2.42,-2.46
79.74,0.56,3.02,0.58,3.03,-3.00,-2.98,-2.81,-2.43,-2.42,-2.46
80.54,0.56,3.02,0.56,3.02,-3.02,-2.99,-2.80,-2.45,-2.45,-2.46
81.35,0.56,3.02,0.56,3.02,-3.03,-2.99,-2.79,-2.47,-2.47,-2.46
82.16,0.56,3.02,0.56,3.02,-3.04,-3.00,-2.79,-2.47,-2.47,-2.46
82.98,0.56,3.03,0.56,3.03,-3.03,-3.00,-2.78,-2.47,-2.47,-2.47
83.81,0.56,3.03,0.56,3.03,-3.02,-3.01,-2.78,-2.46,-2.46,-2.47
84.65,0.56,3.03,0.57,3.04,-3.02,-3.02,-2.78,-2.45,-2.45,-2.47
85.50,0.56,3.04,0.57,3.04,-3.02,-3.02,-2.78,-2.45,-2.45,-2.48
86.35,0.56,3.04,0.54,3.02,-3.03,-3.03,-2.79,-2.47,-2.49,-2.48
87.22,0.53,3.02,0.52,3.00,-3.05,-3.03,-2.80,-2.51,-2.53,-2.49
88.09,0.45,2.94,0.53,3.02,-3.07,-3.04,-2.81,-2.61,-2.54,-2.49
88.97,0.58,3.08,0.57,3.07,-3.09,-3.04,-2.82,-2.51,-2.52,-2.50
89.86,0.66,3.17,0.63,3.13,-3.11,-3.05,-2.83,-2.45,-2.49,-2.51
90.76,0.67,3.18,0.68,3.19,-3.14,-3.06,-2.85,-2.47,-2.46,-2.51
91.66,0.67,3.19,0.68,3.20,-3.17,-3.06,-2.86,-2.50,-2.49,-2.52
92.58,0.67,3.20,0.67,3.20,-3.20,-3.07,-2.88,-2.52,-2.52,-2.53
93.51,0.67,3.21,0.67,3.21,-3.22,-3.08,-2.91,-2.55,-2.55,-2.54
94.44,0.67,3.22,0.67,3.22,-3.23,-3.08,-2.93,-2.56,-2.56,-2.55
95.39,0.67,3.23,0.67,3.23,-3.24,-3.09,-2.96,-2.57,-2.56,-2.56
96.34,0.67,3.24,0.67,3.24,-3.24,-3.10,-2.98,-2.57,-2.57,-2.57
97.30,0.66,3.25,0.67,3.25,-3.25,-3.11,-3.01,-2.59,-2.58,-2.59
98.28,0.65,3.25,0.66,3.26,-3.26,-3.11,-3.05,-2.60,-2.60,-2.60
99.26,0.64,3.26,0.64,3.26,-3.26,-3.12,-3.08,-2.62,-2.62,-2.62
100.25,0.62,3.26,0.62,3.26,-3.26,-3.13,-3.11,-2.63,-2.63,-2.64
101.25,0.60,3.26,0.61,3.27,-3.25,-3.14,-3.15,-2.65,-2.64,-2.66
102.27,0.59,3.27,0.60,3.28,-3.25,-3.14,-3.18,-2.66,-2.65,-2.68
103.29,0.58,3.28,0.56,3.26,-3.25,-3.15,-3.22,-2.67,-2.69,-2.70
104.32,0.53,3.25,0.51,3.23,-3.26,-3.16,-3.26,-2.73,-2.75,-2.72
105.37,0.44,3.19,0.48,3.22,-3.27,-3.17,-3.30,-2.83,-2.79,-2.75
106.42,0.45,3.22,0.48,3.25,-3.29,-3.18,-3.34,-2.83,-2.81,-2.77
107.48,0.53,3.32,0.51,3.30,-3.30,-3.19,-3.38,-2.77,-2.79,-2.79
108.56,0.56,3.37,0.55,3.35,-3.32,-3.19,-3.42,-2.75,-2.77,-2.81
109.64,0.54,3.37,0.55,3.38,-3.33,-3.20,-3.45,-2.79,-2.78,-2.83
110.74,0.52,3.36,0.53,3.37,-3.35,-3.21,-3.49,-2.83,-2.82,-2.84
111.85,0.50,3.36,0.51,3.36,-3.37,-3.22,-3.53,-2.86,-2.86,-2.86
112.97,0.49,3.36,0.50,3.36,-3.38,-3.23,-3.56,-2.88,-2.88,-2.87
114.10,0.49,3.37,0.49,3.37,-3.38,-3.24,-3.59,-2.89,-2.89,-2.88
115.24,0.49,3.38,0.49,3.38,-3.39,-3.25,-3.63,-2.89,-2.89,-2.89
116.39,0.49,3.39,0.49,3.39,-3.39,-3.26,-3.65,-2.90,-2.89,-2.90
117.55,0.49,3.39,0.50,3.40,-3.40,-3.27,-3.68,-2.90,-2.90,-2.90
118.73,0.50,3.41,0.50,3.41,-3.41,-3.27,-3.70,-2.90,-2.91,-2.91
119.92,0.50,3.41,0.51,3.42,-3.42,-3.28,-3.73,-2.91,-2.91,-2.91
121.12,0.51,3.43,0.52,3.43,-3.43,-3.29,-3.74,-2.91,-2.91,-2.92
122.33,0.52,3.44,0.52,3.44,-3.43,-3.30,-3.76,-2.91,-2.91,-2.92
123.55,0.53,3.44,0.53,3.44,-3.44,-3.31,-3.77,-2.91,-2.91,-2.91
124.79,0.53,3.44,0.54,3.45,-3.45,-3.32,-3.78,-2.91,-2.91,-2.91
126.03,0.54,3.46,0.54,3.45,-3.45,-3.33,-3.78,-2.91,-2.91,-2.92
127.29,0.55,3.46,0.55,3.46,-3.46,-3.34,-3.78,-2.91,-2.91,-2.91
128.57,0.55,3.46,0.56,3.47,-3.47,-3.35,-3.78,-2.91,-2.91,-2.91
129.85,0.56,3.47,0.56,3.47,-3.47,-3.36,-3.77,-2.91,-2.91,-2.91
131.15,0.56,3.47,0.57,3.47,-3.48,-3.37,-3.76,-2.91,-2.91,-2.91
132.46,0.57,3.48,0.57,3.48,-3.48,-3.38,-3.75,-2.91,-2.91,-2.91
133.79,0.57,3.49,0.58,3.49,-3.49,-3.38,-3.74,-2.92,-2.91,-2.92
135.12,0.58,3.50,0.58,3.50,-3.50,-3.39,-3.72,-2.91,-2.91,-2.92
136.48,0.58,3.50,0.58,3.50,-3.50,-3.40,-3.70,-2.92,-2.92,-2.92
137.84,0.58,3.51,0.59,3.51,-3.51,-3.41,-3.68,-2.93,-2.93,-2.93
139.22,0.58,3.51,0.59,3.52,-3.52,-3.42,-3.65,-2.94,-2.93,-2.93
140.61,0.59,3.53,0.59,3.53,-3.53,-3.43,-3.63,-2.93,-2.94,-2.94
142.02,0.59,3.54,0.59,3.54,-3.54,-3.44,-3.60,-2.94,-2.94,-2.95
143.44,0.59,3.55,0.59,3.55,-3.55,-3.45,-3.58,-2.95,-2.95,-2.96
144.87,0.59,3.55,0.59,3.56,-3.56,-3.46,-3.55,-2.96,-2.96,-2.96
146.32,0.59,3.56,0.59,3.57,-3.57,-3.46,-3.52,-2.98,-2.98,-2.97
147.78,0.59,3.58,0.59,3.58,-3.58,-3.47,-3.49,-2.99,-2.99,-2.99
149.26,0.59,3.59,0.59,3.59,-3.59,-3.48,-3.47,-3.00,-3.00,-3.00
150.75,0.59,3.60,0.59,3.60,-3.60,-3.49,-3.44,-3.00,-3.00,-3.01
152.26,0.59,3.61,0.59,3.61,-3.61,-3.50,-3.41,-3.01,-3.01,-3.02
153.78,0.59,3.61,0.59,3.62,-3.61,-3.51,-3.39,-3.02,-3.02,-3.02
155.32,0.59,3.62,0.59,3.62,-3.62,-3.51,-3.37,-3.03,-3.03,-3.03
156.88,0.59,3.63,0.59,3.63,-3.63,-3.52,-3.34,-3.04,-3.04,-3.04
158.44,0.59,3.63,0.59,3.64,-3.65,-3.53,-3.32,-3.05,-3.05,-3.04
160.03,0.59,3.64,0.59,3.64,-3.66,-3.54,-3.30,-3.06,-3.07,-3.05
161.63,0.59,3.65,0.59,3.64,-3.66,-3.54,-3.29,-3.07,-3.08,-3.06
163.24,0.58,3.65,0.61,3.67,-3.66,-3.55,-3.27,-3.08,-3.06,-3.07
164.88,0.60,3.68,0.62,3.70,-3.66,-3.56,-3.26,-3.05,-3.04,-3.08
166.53,0.65,3.74,0.60,3.69,-3.65,-3.57,-3.25,-3.00,-3.05,-3.09
168.19,0.55,3.65,0.56,3.66,-3.64,-3.57,-3.24,-3.08,-3.08,-3.10
169.87,0.46,3.57,0.50,3.61,-3.63,-3.58,-3.23,-3.16,-3.12,-3.11
171.57,0.46,3.58,0.45,3.57,-3.61,-3.59,-3.23,-3.15,-3.16,-3.12
173.29,0.45,3.58,0.45,3.57,-3.60,-3.59,-3.23,-3.14,-3.15,-3.13
175.02,0.44,3.58,0.45,3.58,-3.59,-3.60,-3.23,-3.14,-3.14,-3.14
176.77,0.44,3.58,0.44,3.58,-3.58,-3.60,-3.23,-3.14,-3.14,-3.14
178.54,0.44,3.59,0.44,3.59,-3.58,-3.61,-3.24,-3.14,-3.14,-3.15
180.32,0.44,3.59,0.45,3.59,-3.59,-3.62,-3.25,-3.15,-3.14,-3.15
182.13,0.45,3.60,0.45,3.60,-3.60,-3.62,-3.26,-3.15,-3.15,-3.15
183.95,0.46,3.61,0.46,3.61,-3.62,-3.63,-3.27,-3.15,-3.15,-3.15
185.79,0.47,3.63,0.48,3.63,-3.63,-3.63,-3.29,-3.15,-3.15,-3.16
187.65,0.49,3.64,0.49,3.64,-3.64,-3.64,-3.31,-3.14,-3.15,-3.15
189.52,0.50,3.65,0.50,3.65,-3.65,-3.64,-3.33,-3.15,-3.15,-3.15
191.42,0.51,3.66,0.52,3.66,-3.67,-3.65,-3.35,-3.15,-3.15,-3.15
193.33,0.53,3.68,0.53,3.68,-3.68,-3.65,-3.37,-3.14,-3.15,-3.15
195.27,0.54,3.68,0.55,3.69,-3.69,-3.66,-3.40,-3.14,-3.14,-3.14
197.22,0.56,3.70,0.56,3.70,-3.70,-3.66,-3.43,-3.13,-3.13,-3.14
199.19,0.57,3.71,0.57,3.71,-3.71,-3.67,-3.46,-3.13,-3.13,-3.14
201.18,0.58,3.72,0.58,3.72,-3.72,-3.67,-3.49,-3.13,-3.13,-3.14
203.19,0.58,3.72,0.58,3.72,-3.73,-3.67,-3.52,-3.14,-3.14,-3.14
205.23,0.58,3.72,0.58,3.72,-3.74,-3.68,-3.56,-3.15,-3.15,-3.14
207.28,0.58,3.72,0.58,3.72,-3.74,-3.68,-3.59,-3.16,-3.16,-3.14
209.35,0.58,3.73,0.59,3.74,-3.73,-3.69,-3.63,-3.15,-3.14,-3.15
211.44,0.59,3.74,0.61,3.76,-3.73,-3.69,-3.66,-3.13,-3.12,-3.15
213.56,0.63,3.78,0.60,3.75,-3.71,-3.69,-3.70,-3.08,-3.12,-3.15
215.69,0.57,3.73,0.56,3.72,-3.70,-3.69,-3.74,-3.13,-3.14,-3.16
217.85,0.48,3.64,0.51,3.67,-3.68,-3.70,-3.77,-3.20,-3.17,-3.16
220.03,0.46,3.63,0.47,3.63,-3.67,-3.70,-3.81,-3.20,-3.20,-3.17
222.23,0.46,3.63,0.46,3.62,-3.65,-3.70,-3.84,-3.19,-3.20,-3.17
224.45,0.46,3.63,0.46,3.63,-3.64,-3.70,-3.88,-3.17,-3.18,-3.17
226.70,0.46,3.63,0.47,3.63,-3.63,-3.71,-3.91,-3.17,-3.16,-3.17
228.96,0.47,3.64,0.47,3.64,-3.63,-3.71,-3.94,-3.15,-3.16,-3.17
231.25,0.47,3.63,0.48,3.64,-3.63,-3.71,-3.96,-3.16,-3.16,-3.16
233.57,0.48,3.64,0.48,3.64,-3.64,-3.71,-3.99,-3.15,-3.15,-3.16
235.90,0.49,3.64,0.50,3.65,-3.65,-3.71,-4.01,-3.15,-3.15,-3.15
238.26,0.51,3.66,0.51,3.65,-3.65,-3.71,-4.03,-3.14,-3.14,-3.15
240.64,0.53,3.66,0.53,3.66,-3.66,-3.71,-4.04,-3.13,-3.13,-3.13
243.05,0.54,3.66,0.55,3.67,-3.67,-3.71,-4.05,-3.12,-3.12,-3.12
245.48,0.56,3.67,0.57,3.68,-3.68,-3.71,-4.06,-3.11,-3.11,-3.11
247.93,0.59,3.69,0.59,3.69,-3.69,-3.71,-4.07,-3.10,-3.10,-3.10
250.41,0.61,3.70,0.61,3.70,-3.70,-3.71,-4.07,-3.09,-3.09,-3.09
252.92,0.62,3.70,0.63,3.71,-3.72,-3.71,-4.06,-3.09,-3.09,-3.08
255.45,0.64,3.71,0.64,3.71,-3.73,-3.71,-4.05,-3.08,-3.08,-3.07
258.00,0.65,3.72,0.65,3.71,-3.72,-3.71,-4.04,-3.07,-3.07,-3.07
260.58,0.65,3.72,0.68,3.74,-3.71,-3.71,-4.03,-3.05,-3.03,-3.07
263.19,0.66,3.73,0.67,3.74,-3.69,-3.71,-4.01,-3.02,-3.02,-3.07
265.82,0.69,3.77,0.62,3.70,-3.66,-3.71,-3.98,-2.97,-3.04,-3.08
268.48,0.52,3.60,0.55,3.63,-3.63,-3.71,-3.96,-3.11,-3.08,-3.08
271.16,0.44,3.53,0.48,3.57,-3.60,-3.70,-3.93,-3.16,-3.12,-3.09
273.87,0.44,3.54,0.43,3.52,-3.58,-3.70,-3.90,-3.13,-3.15,-3.10
276.61,0.44,3.54,0.44,3.53,-3.56,-3.70,-3.87,-3.12,-3.12,-3.10
279.38,0.44,3.54,0.44,3.55,-3.55,-3.70,-3.83,-3.10,-3.10,-3.10
282.17,0.44,3.55,0.45,3.55,-3.55,-3.69,-3.80,-3.11,-3.10,-3.11
284.99,0.45,3.56,0.45,3.55,-3.56,-3.69,-3.76,-3.11,-3.11,-3.11
287.84,0.45,3.56,0.46,3.57,-3.57,-3.69,-3.72,-3.12,-3.11,-3.11
290.72,0.46,3.58,0.48,3.60,-3.58,-3.69,-3.68,-3.11,-3.09,-3.12
293.63,0.50,3.62,0.50,3.62,-3.58,-3.68,-3.64,-3.07,-3.08,-3.12
296.57,0.53,3.65,0.49,3.60,-3.58,-3.68,-3.60,-3.04,-3.09,-3.12
299.53,0.44,3.55,0.47,3.58,-3.58,-3.67,-3.56,-3.13,-3.11,-3.11
302.53,0.41,3.52,0.43,3.55,-3.58,-3.67,-3.52,-3.16,-3.14,-3.11
305.55,0.42,3.54,0.42,3.53,-3.58,-3.67,-3.48,-3.15,-3.16,-3.12
308.61,0.43,3.55,0.43,3.55,-3.57,-3.66,-3.45,-3.13,-3.14,-3.12
311.69,0.44,3.56,0.45,3.57,-3.56,-3.66,-3.41,-3.11,-3.11,-3.12
314.81,0.45,3.58,0.46,3.58,-3.55,-3.65,-3.37,-3.09,-3.09,-3.13
317.96,0.47,3.60,0.45,3.57,-3.54,-3.65,-3.34,-3.07,-3.09,-3.13
321.14,0.41,3.54,0.41,3.55,-3.53,-3.64,-3.31,-3.12,-3.12,-3.13
324.35,0.35,3.49,0.38,3.51,-3.53,-3.63,-3.28,-3.17,-3.15,-3.14
327.59,0.34,3.49,0.34,3.49,-3.52,-3.63,-3.25,-3.18,-3.17,-3.15
330.87,0.34,3.49,0.34,3.49,-3.51,-3.62,-3.23,-3.17,-3.17,-3.15
334.18,0.34,3.49,0.34,3.49,-3.50,-3.62,-3.20,-3.16,-3.16,-3.15
337.52,0.34,3.49,0.34,3.49,-3.49,-3.61,-3.18,-3.15,-3.15,-3.15
340.90,0.34,3.50,0.34,3.50,-3.49,-3.60,-3.16,-3.14,-3.14,-3.16
344.30,0.34,3.50,0.35,3.51,-3.48,-3.60,-3.15,-3.13,-3.13,-3.16
347.75,0.34,3.50,0.34,3.50,-3.47,-3.59,-3.13,-3.13,-3.13,-3.16
351.23,0.33,3.50,0.31,3.48,-3.47,-3.58,-3.12,-3.13,-3.15,-3.17
354.74,0.27,3.44,0.28,3.45,-3.46,-3.57,-3.11,-3.19,-3.18,-3.17
358.28,0.24,3.41,0.26,3.42,-3.46,-3.56,-3.10,-3.22,-3.21,-3.17
361.87,0.25,3.42,0.26,3.43,-3.47,-3.56,-3.10,-3.22,-3.21,-3.17
365.49,0.29,3.46,0.30,3.46,-3.48,-3.55,-3.10,-3.19,-3.18,-3.17
369.14,0.35,3.52,0.34,3.51,-3.50,-3.54,-3.10,-3.14,-3.16,-3.17
372.83,0.37,3.54,0.37,3.54,-3.52,-3.53,-3.10,-3.14,-3.14,-3.17
376.56,0.38,3.55,0.39,3.56,-3.54,-3.52,-3.10,-3.16,-3.15,-3.17
380.33,0.39,3.57,0.39,3.57,-3.57,-3.51,-3.11,-3.17,-3.17,-3.18
384.13,0.39,3.57,0.40,3.58,-3.59,-3.50,-3.12,-3.19,-3.19,-3.18
387.97,0.40,3.59,0.41,3.59,-3.59,-3.49,-3.13,-3.19,-3.19,-3.19
391.85,0.40,3.60,0.40,3.60,-3.59,-3.48,-3.14,-3.19,-3.19,-3.20
395.77,0.40,3.61,0.39,3.59,-3.58,-3.47,-3.16,-3.18,-3.20,-3.21
399.73,0.35,3.57,0.36,3.58,-3.57,-3.46,-3.17,-3.22,-3.21,-3.22
403.72,0.31,3.54,0.33,3.56,-3.55,-3.45,-3.19,-3.24,-3.22,-3.23
407.76,0.30,3.55,0.28,3.52,-3.52,-3.44,-3.21,-3.22,-3.25,-3.25
411.84,0.22,3.48,0.24,3.50,-3.50,-3.43,-3.23,-3.27,-3.25,-3.26
415.96,0.19,3.46,0.20,3.47,-3.47,-3.41,-3.25,-3.27,-3.27,-3.27
420.12,0.17,3.45,0.15,3.43,-3.45,-3.40,-3.27,-3.27,-3.29,-3.28
424.32,0.11,3.39,0.13,3.41,-3.43,-3.39,-3.29,-3.31,-3.30,-3.28
428.56,0.11,3.39,0.12,3.39,-3.41,-3.38,-3.32,-3.30,-3.30,-3.28
432.85,0.12,3.39,0.12,3.39,-3.40,-3.37,-3.34,-3.28,-3.28,-3.27
437.18,0.15,3.40,0.16,3.41,-3.40,-3.35,-3.36,-3.24,-3.24,-3.25
441.55,0.18,3.41,0.18,3.41,-3.39,-3.34,-3.38,-3.21,-3.21,-3.23
445.96,0.22,3.42,0.20,3.40,-3.39,-3.33,-3.40,-3.17,-3.19,-3.20
450.42,0.20,3.36,0.22,3.38,-3.38,-3.31,-3.42,-3.18,-3.16,-3.16
454.93,0.24,3.36,0.26,3.37,-3.37,-3.30,-3.44,-3.12,-3.11,-3.12
