frequency,raw,error,smoothed,error_smoothed,equalization,parametric_eq,fixed_band_eq,equalized_raw,equalized_smoothed,target
20.00,-12.46,-8.17,-12.45,-8.17,6.00,5.17,2.19,-6.46,-6.45,-4.29
20.20,-12.34,-8.14,-12.34,-8.14,6.00,5.25,2.26,-6.34,-6.34,-4.20
20.40,-12.22,-8.11,-12.22,-8.11,6.00,5.33,2.33,-6.22,-6.22,-4.11
20.61,-12.11,-8.07,-12.10,-8.07,6.00,5.41,2.39,-6.11,-6.10,-4.04
20.81,-11.99,-8.04,-11.99,-8.04,6.00,5.49,2.47,-5.99,-5.99,-3.95
21.02,-11.87,-8.00,-11.87,-7.99,6.00,5.56,2.54,-5.87,-5.87,-3.87
21.23,-11.75,-7.94,-11.74,-7.94,6.00,5.63,2.62,-5.75,-5.74,-3.81
21.44,-11.61,-7.87,-11.62,-7.88,6.00,5.70,2.69,-5.61,-5.62,-3.75
21.66,-11.50,-7.82,-11.50,-7.81,6.00,5.76,2.77,-5.50,-5.50,-3.68
21.87,-11.37,-7.74,-11.37,-7.75,6.00,5.82,2.86,-5.37,-5.37,-3.63
22.09,-11.25,-7.68,-11.25,-7.68,6.00,5.87,2.94,-5.25,-5.25,-3.58
22.31,-11.13,-7.60,-11.13,-7.60,6.00,5.92,3.03,-5.13,-5.13,-3.53
22.54,-11.01,-7.53,-11.01,-7.53,6.00,5.96,3.12,-5.01,-5.01,-3.48
22.76,-10.89,-7.44,-10.89,-7.44,6.00,6.00,3.21,-4.89,-4.89,-3.44
22.99,-10.77,-7.36,-10.76,-7.36,6.00,6.03,3.30,-4.77,-4.76,-3.40
23.22,-10.64,-7.27,-10.64,-7.28,6.00,6.05,3.40,-4.64,-4.64,-3.36
23.45,-10.52,-7.20,-10.51,-7.20,6.00,6.07,3.49,-4.52,-4.51,-3.31
23.69,-10.39,-7.11,-10.39,-7.12,6.00,6.08,3.59,-4.39,-4.39,-3.27
23.92,-10.26,-7.03,-10.26,-7.04,6.00,6.09,3.70,-4.26,-4.26,-3.23
24.16,-10.14,-6.95,-10.14,-6.95,6.00,6.08,3.80,-4.14,-4.14,-3.18
24.40,-10.01,-6.87,-10.01,-6.86,6.00,6.07,3.90,-4.01,-4.01,-3.14
24.65,-9.89,-6.77,-9.89,-6.78,6.00,6.06,4.01,-3.89,-3.89,-3.11
24.89,-9.75,-6.68,-9.76,-6.69,6.00,6.04,4.12,-3.75,-3.76,-3.07
25.14,-9.63,-6.60,-9.63,-6.60,6.00,6.01,4.23,-3.63,-3.63,-3.03
25.39,-9.50,-6.51,-9.51,-6.51,6.01,5.97,4.34,-3.49,-3.50,-3.00
25.65,-9.38,-6.42,-9.38,-6.42,6.02,5.93,4.44,-3.36,-3.36,-2.96
25.91,-9.26,-6.33,-9.25,-6.33,6.02,5.88,4.55,-3.24,-3.24,-2.93
26.16,-9.12,-6.24,-9.13,-6.24,6.01,5.83,4.66,-3.11,-3.12,-2.89
26.43,-9.00,-6.14,-9.00,-6.15,5.99,5.77,4.77,-3.01,-3.01,-2.86
26.69,-8.88,-6.06,-8.87,-6.05,5.96,5.71,4.88,-2.91,-2.91,-2.82
26.96,-8.75,-5.97,-8.75,-5.96,5.92,5.64,4.98,-2.83,-2.83,-2.78
27.23,-8.62,-5.87,-8.62,-5.87,5.86,5.57,5.08,-2.76,-2.76,-2.75
27.50,-8.50,-5.79,-8.49,-5.78,5.79,5.49,5.18,-2.71,-2.71,-2.71
27.77,-8.36,-5.68,-8.37,-5.69,5.70,5.42,5.27,-2.66,-2.66,-2.68
28.05,-8.25,-5.60,-8.24,-5.60,5.61,5.33,5.36,-2.63,-2.63,-2.64
28.33,-8.12,-5.49,-8.12,-5.50,5.51,5.25,5.44,-2.60,-2.60,-2.62
28.62,-8.00,-5.41,-7.99,-5.41,5.42,5.16,5.52,-2.58,-2.58,-2.58
28.90,-7.87,-5.32,-7.87,-5.32,5.32,5.07,5.59,-2.55,-2.55,-2.54
29.19,-7.75,-5.23,-7.74,-5.23,5.23,4.98,5.65,-2.52,-2.51,-2.52
29.48,-7.62,-5.15,-7.62,-5.14,5.14,4.88,5.70,-2.48,-2.48,-2.47
29.78,-7.49,-5.04,-7.49,-5.05,5.05,4.79,5.75,-2.44,-2.44,-2.45
30.08,-7.37,-4.96,-7.37,-4.96,4.96,4.69,5.78,-2.41,-2.41,-2.41
30.38,-7.25,-4.87,-7.25,-4.87,4.87,4.60,5.81,-2.38,-2.38,-2.38
30.68,-7.13,-4.79,-7.13,-4.78,4.78,4.50,5.82,-2.34,-2.35,-2.34
30.99,-7.02,-4.70,-7.01,-4.69,4.69,4.40,5.82,-2.33,-2.32,-2.32
31.30,-6.89,-4.60,-6.89,-4.61,4.60,4.30,5.82,-2.29,-2.29,-2.28
31.61,-6.77,-4.51,-6.77,-4.51,4.51,4.21,5.80,-2.26,-2.26,-2.25
31.93,-6.65,-4.42,-6.65,-4.42,4.42,4.11,5.77,-2.23,-2.23,-2.23
32.24,-6.52,-4.32,-6.53,-4.32,4.33,4.01,5.73,-2.20,-2.20,-2.21
32.57,-6.41,-4.23,-6.41,-4.23,4.23,3.92,5.68,-2.17,-2.17,-2.18
32.89,-6.29,-4.15,-6.28,-4.14,4.14,3.82,5.62,-2.14,-2.14,-2.14
33.22,-6.17,-4.04,-6.17,-4.05,4.05,3.72,5.55,-2.12,-2.12,-2.12
33.55,-6.05,-3.95,-6.06,-3.95,3.95,3.63,5.47,-2.10,-2.10,-2.10
33.89,-5.95,-3.86,-5.94,-3.86,3.86,3.54,5.38,-2.09,-2.08,-2.08
34.23,-5.83,-3.77,-5.83,-3.77,3.76,3.45,5.29,-2.06,-2.06,-2.06
34.57,-5.71,-3.67,-5.71,-3.67,3.66,3.35,5.19,-2.04,-2.04,-2.04
34.92,-5.59,-3.56,-5.59,-3.56,3.57,3.26,5.08,-2.02,-2.02,-2.03
35.27,-5.47,-3.47,-5.47,-3.46,3.46,3.17,4.97,-2.00,-2.01,-2.00
35.62,-5.36,-3.36,-5.36,-3.36,3.36,3.09,4.85,-1.99,-1.99,-1.99
35.97,-5.24,-3.26,-5.24,-3.26,3.26,3.00,4.73,-1.98,-1.98,-1.99
36.33,-5.13,-3.16,-5.13,-3.16,3.16,2.91,4.61,-1.97,-1.97,-1.97
36.70,-5.02,-3.06,-5.01,-3.05,3.05,2.83,4.48,-1.96,-1.96,-1.96
37.06,-4.89,-2.94,-4.90,-2.95,2.95,2.75,4.35,-1.95,-1.95,-1.95
37.43,-4.77,-2.84,-4.78,-2.84,2.84,2.67,4.22,-1.93,-1.94,-1.94
37.81,-4.67,-2.74,-4.66,-2.74,2.73,2.59,4.09,-1.93,-1.93,-1.93
38.19,-4.55,-2.63,-4.55,-2.63,2.62,2.51,3.95,-1.93,-1.93,-1.92
38.57,-4.44,-2.52,-4.43,-2.52,2.51,2.43,3.82,-1.92,-1.92,-1.91
38.95,-4.31,-2.40,-4.32,-2.40,2.40,2.35,3.69,-1.91,-1.91,-1.92
39.34,-4.20,-2.29,-4.21,-2.29,2.30,2.28,3.56,-1.91,-1.91,-1.92
39.74,-4.10,-2.18,-4.10,-2.18,2.19,2.20,3.42,-1.91,-1.91,-1.91
40.14,-4.00,-2.08,-4.00,-2.08,2.09,2.13,3.29,-1.91,-1.91,-1.92
40.54,-3.90,-1.98,-3.90,-1.98,1.98,2.06,3.16,-1.91,-1.91,-1.92
40.94,-3.80,-1.88,-3.80,-1.88,1.88,1.99,3.03,-1.91,-1.91,-1.91
41.35,-3.71,-1.79,-3.70,-1.79,1.79,1.92,2.90,-1.92,-1.91,-1.92
41.76,-3.61,-1.70,-3.60,-1.70,1.69,1.85,2.78,-1.91,-1.91,-1.91
42.18,-3.51,-1.60,-3.51,-1.60,1.59,1.78,2.65,-1.91,-1.91,-1.90
42.60,-3.41,-1.50,-3.41,-1.50,1.50,1.71,2.53,-1.91,-1.91,-1.91
43.03,-3.31,-1.40,-3.31,-1.40,1.40,1.65,2.40,-1.91,-1.91,-1.90
43.46,-3.22,-1.31,-3.21,-1.30,1.30,1.58,2.28,-1.91,-1.91,-1.91
43.90,-3.12,-1.20,-3.12,-1.20,1.21,1.52,2.16,-1.91,-1.92,-1.92
44.33,-3.04,-1.11,-3.03,-1.11,1.11,1.46,2.05,-1.92,-1.92,-1.93
44.78,-2.95,-1.02,-2.95,-1.02,1.02,1.40,1.93,-1.93,-1.93,-1.93
45.23,-2.87,-0.93,-2.87,-0.93,0.93,1.34,1.82,-1.94,-1.94,-1.94
45.68,-2.79,-0.85,-2.79,-0.85,0.85,1.27,1.70,-1.94,-1.94,-1.94
46.13,-2.72,-0.77,-2.71,-0.77,0.77,1.22,1.59,-1.94,-1.94,-1.95
46.60,-2.64,-0.69,-2.64,-0.69,0.70,1.16,1.48,-1.94,-1.94,-1.94
47.06,-2.57,-0.63,-2.57,-0.63,0.63,1.10,1.37,-1.94,-1.94,-1.94
47.53,-2.51,-0.56,-2.51,-0.57,0.56,1.04,1.27,-1.94,-1.94,-1.94
48.01,-2.45,-0.52,-2.45,-0.51,0.50,0.99,1.16,-1.95,-1.95,-1.93
48.49,-2.40,-0.45,-2.39,-0.45,0.44,0.93,1.06,-1.95,-1.95,-1.95
48.97,-2.34,-0.38,-2.34,-0.39,0.39,0.87,0.95,-1.95,-1.95,-1.95
49.46,-2.30,-0.34,-2.29,-0.33,0.34,0.82,0.85,-1.96,-1.95,-1.96
49.96,-2.25,-0.28,-2.25,-0.29,0.29,0.77,0.75,-1.95,-1.95,-1.97
50.46,-2.21,-0.26,-2.21,-0.25,0.25,0.71,0.65,-1.95,-1.96,-1.95
50.96,-2.17,-0.22,-2.17,-0.22,0.22,0.66,0.56,-1.95,-1.95,-1.94
51.47,-2.14,-0.18,-2.13,-0.19,0.19,0.61,0.46,-1.95,-1.94,-1.95
51.99,-2.10,-0.16,-2.10,-0.16,0.17,0.55,0.37,-1.93,-1.94,-1.94
52.51,-2.08,-0.15,-2.08,-0.15,0.15,0.50,0.28,-1.93,-1.93,-1.93
53.03,-2.06,-0.14,-2.06,-0.14,0.14,0.45,0.19,-1.92,-1.92,-1.92
53.56,-2.05,-0.13,-2.04,-0.13,0.13,0.40,0.10,-1.92,-1.92,-1.92
54.10,-2.04,-0.12,-2.03,-0.12,0.12,0.35,0.02,-1.91,-1.91,-1.92
54.64,-2.03,-0.12,-2.03,-0.12,0.12,0.30,-0.07,-1.91,-1.91,-1.91
55.18,-2.03,-0.12,-2.03,-0.12,0.12,0.25,-0.15,-1.91,-1.91,-1.91
55.74,-2.03,-0.12,-2.02,-0.12,0.11,0.20,-0.23,-1.91,-1.91,-1.91
56.29,-2.03,-0.12,-2.02,-0.11,0.11,0.15,-0.30,-1.92,-1.91,-1.91
56.86,-2.02,-0.10,-2.02,-0.11,0.11,0.10,-0.38,-1.91,-1.92,-1.91
57.42,-2.02,-0.09,-2.02,-0.10,0.10,0.05,-0.45,-1.92,-1.92,-1.92
58.00,-2.02,-0.09,-2.01,-0.09,0.09,-0.00,-0.52,-1.92,-1.92,-1.93
58.58,-2.01,-0.08,-2.01,-0.08,0.09,-0.05,-0.58,-1.92,-1.92,-1.93
59.16,-2.01,-0.07,-2.00,-0.07,0.07,-0.10,-0.65,-1.93,-1.93,-1.93
59.76,-2.00,-0.06,-2.00,-0.06,0.06,-0.15,-0.71,-1.94,-1.94,-1.94
60.35,-2.00,-0.05,-1.99,-0.05,0.03,-0.20,-0.76,-1.96,-1.96,-1.95
60.96,-1.99,-0.02,-1.98,-0.01,0.01,-0.25,-0.82,-1.98,-1.98,-1.96
61.57,-1.97,0.02,-1.97,0.02,-0.02,-0.30,-0.87,-1.99,-1.99,-1.99
62.18,-1.95,0.07,-1.95,0.06,-0.06,-0.34,-0.91,-2.00,-2.00,-2.01
62.80,-1.93,0.09,-1.92,0.10,-0.10,-0.39,-0.96,-2.02,-2.02,-2.02
63.43,-1.90,0.15,-1.90,0.15,-0.14,-0.44,-1.00,-2.04,-2.04,-2.05
64.07,-1.87,0.19,-1.87,0.19,-0.19,-0.49,-1.04,-2.05,-2.05,-2.05
64.71,-1.83,0.24,-1.83,0.23,-0.23,-0.54,-1.07,-2.06,-2.07,-2.06
65.35,-1.80,0.27,-1.79,0.28,-0.29,-0.59,-1.10,-2.08,-2.08,-2.07
66.01,-1.75,0.33,-1.74,0.34,-0.34,-0.64,-1.13,-2.08,-2.08,-2.08
66.67,-1.69,0.40,-1.69,0.39,-0.39,-0.69,-1.16,-2.08,-2.08,-2.09
67.33,-1.63,0.46,-1.63,0.46,-0.45,-0.74,-1.19,-2.08,-2.08,-2.09
68.01,-1.58,0.51,-1.57,0.52,-0.52,-0.78,-1.21,-2.09,-2.09,-2.09
68.69,-1.51,0.58,-1.51,0.58,-0.58,-0.83,-1.23,-2.09,-2.09,-2.09
69.37,-1.44,0.65,-1.44,0.65,-0.65,-0.88,-1.25,-2.09,-2.09,-2.09
70.07,-1.37,0.72,-1.37,0.72,-0.72,-0.93,-1.27,-2.09,-2.09,-2.09
70.77,-1.30,0.79,-1.29,0.79,-0.79,-0.98,-1.28,-2.09,-2.08,-2.08
71.48,-1.22,0.87,-1.22,0.87,-0.87,-1.03,-1.30,-2.08,-2.08,-2.09
72.19,-1.14,0.95,-1.14,0.95,-0.94,-1.08,-1.31,-2.08,-2.09,-2.09
72.91,-1.08,1.02,-1.07,1.02,-1.02,-1.13,-1.33,-2.10,-2.10,-2.09
73.64,-1.01,1.10,-1.00,1.10,-1.11,-1.18,-1.34,-2.11,-2.11,-2.11
74.38,-0.93,1.18,-0.93,1.18,-1.19,-1.23,-1.35,-2.12,-2.12,-2.10
75.12,-0.85,1.26,-0.84,1.27,-1.27,-1.28,-1.36,-2.12,-2.12,-2.11
75.87,-0.76,1.35,-0.75,1.35,-1.36,-1.33,-1.38,-2.11,-2.11,-2.11
76.63,-0.67,1.45,-0.67,1.44,-1.44,-1.38,-1.39,-2.10,-2.11,-2.11
77.40,-0.59,1.53,-0.59,1.52,-1.51,-1.43,-1.40,-2.10,-2.10,-2.11
78.17,-0.53,1.59,-0.52,1.59,-1.58,-1.47,-1.42,-2.11,-2.10,-2.12
78.95,-0.46,1.65,-0.46,1.65,-1.65,-1.52,-1.43,-2.10,-2.10,-2.11
79.74,-0.40,1.70,-0.40,1.70,-1.70,-1.57,-1.45,-2.10,-2.10,-2.10
80.54,-0.34,1.75,-0.34,1.75,-1.75,-1.62,-1.46,-2.09,-2.09,-2.09
81.35,-0.29,1.79,-0.29,1.79,-1.80,-1.67,-1.48,-2.08,-2.08,-2.08
82.16,-0.24,1.83,-0.23,1.83,-1.83,-1.71,-1.50,-2.07,-2.07,-2.07
82.98,-0.19,1.86,-0.19,1.87,-1.87,-1.76,-1.52,-2.05,-2.05,-2.04
83.81,-0.14,1.90,-0.14,1.90,-1.90,-1.81,-1.54,-2.03,-2.03,-2.03
84.65,-0.10,1.93,-0.09,1.92,-1.92,-1.85,-1.56,-2.02,-2.02,-2.03
85.50,-0.05,1.94,-0.05,1.95,-1.95,-1.90,-1.58,-1.99,-2.00,-1.99
86.35,-0.01,1.97,-0.01,1.97,-1.97,-1.94,-1.60,-1.98,-1.98,-1.97
87.22,0.03,1.99,0.03,1.99,-1.99,-1.98,-1.63,-1.96,-1.96,-1.96
88.09,0.06,2.02,0.07,2.01,-2.02,-2.02,-1.66,-1.95,-1.95,-1.95
88.97,0.10,2.03,0.10,2.04,-2.04,-2.07,-1.68,-1.93,-1.93,-1.93
89.86,0.13,2.06,0.13,2.06,-2.06,-2.11,-1.71,-1.92,-1.93,-1.93
90.76,0.15,2.09,0.15,2.08,-2.08,-2.14,-1.75,-1.93,-1.93,-1.93
91.66,0.17,2.09,0.18,2.10,-2.10,-2.18,-1.78,-1.93,-1.93,-1.92
92.58,0.19,2.13,0.20,2.13,-2.13,-2.22,-1.81,-1.94,-1.93,-1.93
93.51,0.22,2.16,0.22,2.15,-2.16,-2.25,-1.85,-1.93,-1.94,-1.93
94.44,0.24,2.18,0.24,2.19,-2.18,-2.29,-1.88,-1.94,-1.94,-1.94
95.39,0.25,2.21,0.26,2.21,-2.21,-2.32,-1.92,-1.96,-1.96,-1.96
96.34,0.26,2.25,0.26,2.25,-2.24,-2.35,-1.96,-1.98,-1.98,-1.99
97.30,0.26,2.28,0.26,2.28,-2.27,-2.38,-2.00,-2.01,-2.01,-2.01
98.28,0.26,2.31,0.26,2.30,-2.30,-2.40,-2.04,-2.04,-2.04,-2.04
99.26,0.25,2.33,0.25,2.33,-2.33,-2.43,-2.08,-2.08,-2.08,-2.07
100.25,0.24,2.35,0.25,2.36,-2.36,-2.45,-2.12,-2.12,-2.12,-2.11
101.25,0.24,2.39,0.24,2.39,-2.39,-2.47,-2.17,-2.15,-2.15,-2.15
102.27,0.24,2.42,0.24,2.43,-2.43,-2.49,-2.21,-2.18,-2.19,-2.18
103.29,0.24,2.47,0.24,2.47,-2.47,-2.51,-2.25,-2.22,-2.22,-2.23
104.32,0.24,2.50,0.24,2.50,-2.51,-2.52,-2.30,-2.26,-2.26,-2.26
105.37,0.24,2.54,0.24,2.54,-2.55,-2.54,-2.34,-2.30,-2.31,-2.30
106.42,0.24,2.57,0.25,2.58,-2.59,-2.55,-2.38,-2.35,-2.34,-2.33
107.48,0.25,2.62,0.26,2.63,-2.63,-2.56,-2.42,-2.37,-2.37,-2.37
108.56,0.27,2.68,0.26,2.67,-2.66,-2.56,-2.46,-2.39,-2.40,-2.41
109.64,0.26,2.71,0.27,2.71,-2.69,-2.57,-2.50,-2.42,-2.42,-2.44
110.74,0.25,2.73,0.25,2.73,-2.71,-2.57,-2.54,-2.46,-2.46,-2.47
111.85,0.23,2.73,0.23,2.73,-2.73,-2.57,-2.58,-2.50,-2.50,-2.49
112.97,0.20,2.75,0.20,2.74,-2.75,-2.57,-2.61,-2.54,-2.54,-2.54
114.10,0.17,2.73,0.18,2.74,-2.75,-2.56,-2.64,-2.58,-2.57,-2.56
115.24,0.15,2.74,0.16,2.75,-2.75,-2.56,-2.67,-2.60,-2.59,-2.59
116.39,0.14,2.75,0.14,2.75,-2.74,-2.55,-2.69,-2.60,-2.60,-2.61
117.55,0.11,2.75,0.11,2.74,-2.73,-2.54,-2.71,-2.61,-2.62,-2.63
118.73,0.07,2.73,0.07,2.72,-2.71,-2.52,-2.73,-2.64,-2.64,-2.65
119.92,0.02,2.68,0.03,2.69,-2.69,-2.51,-2.75,-2.67,-2.66,-2.66
121.12,-0.03,2.65,-0.02,2.66,-2.66,-2.49,-2.75,-2.69,-2.68,-2.68
122.33,-0.06,2.64,-0.06,2.63,-2.64,-2.48,-2.76,-2.69,-2.70,-2.69
123.55,-0.10,2.60,-0.10,2.60,-2.61,-2.46,-2.76,-2.70,-2.71,-2.70
124.79,-0.14,2.58,-0.14,2.57,-2.58,-2.44,-2.76,-2.71,-2.71,-2.71
126.03,-0.19,2.54,-0.18,2.54,-2.55,-2.41,-2.75,-2.73,-2.73,-2.73
127.29,-0.22,2.52,-0.22,2.52,-2.52,-2.39,-2.73,-2.73,-2.74,-2.73
128.57,-0.27,2.49,-0.27,2.49,-2.49,-2.36,-2.72,-2.75,-2.75,-2.76
129.85,-0.32,2.45,-0.31,2.46,-2.45,-2.34,-2.69,-2.77,-2.76,-2.77
131.15,-0.36,2.43,-0.36,2.43,-2.42,-2.31,-2.67,-2.77,-2.77,-2.78
132.46,-0.40,2.40,-0.41,2.39,-2.38,-2.28,-2.64,-2.78,-2.79,-2.80
133.79,-0.47,2.33,-0.46,2.34,-2.34,-2.25,-2.60,-2.81,-2.81,-2.80
135.12,-0.54,2.29,-0.52,2.29,-2.30,-2.22,-2.56,-2.84,-2.83,-2.83
136.48,-0.58,2.25,-0.58,2.25,-2.26,-2.19,-2.52,-2.84,-2.84,-2.83
137.84,-0.64,2.21,-0.63,2.22,-2.22,-2.16,-2.48,-2.86,-2.86,-2.85
139.22,-0.69,2.19,-0.69,2.18,-2.18,-2.13,-2.43,-2.86,-2.87,-2.88
140.61,-0.76,2.14,-0.75,2.14,-2.13,-2.09,-2.38,-2.89,-2.89,-2.90
142.02,-0.83,2.08,-0.82,2.10,-2.09,-2.06,-2.33,-2.92,-2.91,-2.91
143.44,-0.87,2.06,-0.88,2.05,-2.05,-2.03,-2.27,-2.91,-2.93,-2.93
144.87,-0.96,2.00,-0.95,2.00,-2.00,-1.99,-2.22,-2.96,-2.95,-2.95
146.32,-1.02,1.96,-1.02,1.95,-1.96,-1.96,-2.16,-2.97,-2.98,-2.98
147.78,-1.10,1.89,-1.09,1.90,-1.91,-1.92,-2.10,-3.01,-3.00,-2.99
149.26,-1.16,1.85,-1.16,1.86,-1.86,-1.89,-2.04,-3.02,-3.02,-3.01
150.75,-1.23,1.83,-1.23,1.82,-1.82,-1.85,-1.98,-3.05,-3.05,-3.06
152.26,-1.29,1.79,-1.29,1.79,-1.78,-1.82,-1.91,-3.06,-3.07,-3.08
153.78,-1.38,1.73,-1.37,1.74,-1.73,-1.78,-1.85,-3.11,-3.11,-3.10
155.32,-1.45,1.69,-1.44,1.69,-1.69,-1.75,-1.79,-3.14,-3.13,-3.14
156.88,-1.53,1.63,-1.52,1.64,-1.65,-1.71,-1.73,-3.17,-3.17,-3.16
158.44,-1.58,1.62,-1.59,1.60,-1.61,-1.68,-1.66,-3.18,-3.20,-3.19
160.03,-1.68,1.56,-1.67,1.56,-1.56,-1.64,-1.60,-3.24,-3.23,-3.23
161.63,-1.75,1.52,-1.74,1.52,-1.52,-1.61,-1.54,-3.27,-3.26,-3.26
163.24,-1.81,1.49,-1.82,1.48,-1.48,-1.57,-1.48,-3.29,-3.30,-3.29
164.88,-1.89,1.43,-1.88,1.44,-1.44,-1.54,-1.42,-3.32,-3.31,-3.31
166.53,-1.95,1.40,-1.95,1.40,-1.39,-1.50,-1.36,-3.34,-3.34,-3.34
168.19,-2.01,1.38,-2.02,1.35,-1.35,-1.47,-1.30,-3.36,-3.37,-3.38
169.87,-2.11,1.29,-2.09,1.31,-1.31,-1.43,-1.24,-3.42,-3.40,-3.40
171.57,-2.18,1.25,-2.17,1.26,-1.27,-1.40,-1.18,-3.44,-3.43,-3.43
173.29,-2.23,1.23,-2.24,1.21,-1.22,-1.36,-1.12,-3.45,-3.46,-3.46
175.02,-2.31,1.17,-2.30,1.18,-1.17,-1.33,-1.06,-3.48,-3.48,-3.47
176.77,-2.38,1.13,-2.37,1.14,-1.13,-1.30,-1.01,-3.50,-3.50,-3.51
178.54,-2.44,1.10,-2.44,1.09,-1.08,-1.26,-0.95,-3.52,-3.52,-3.53
180.32,-2.51,1.04,-2.51,1.04,-1.04,-1.23,-0.90,-3.54,-3.54,-3.55
182.13,-2.57,0.99,-2.57,0.99,-0.99,-1.19,-0.84,-3.56,-3.57,-3.55
183.95,-2.65,0.93,-2.64,0.94,-0.95,-1.16,-0.79,-3.60,-3.59,-3.58
185.79,-2.70,0.90,-2.69,0.90,-0.91,-1.12,-0.74,-3.60,-3.60,-3.59
187.65,-2.74,0.87,-2.74,0.86,-0.86,-1.09,-0.68,-3.60,-3.60,-3.60
189.52,-2.79,0.83,-2.79,0.83,-0.82,-1.06,-0.63,-3.61,-3.61,-3.62
191.42,-2.84,0.79,-2.84,0.79,-0.78,-1.02,-0.58,-3.62,-3.62,-3.63
193.33,-2.90,0.75,-2.90,0.74,-0.75,-0.99,-0.53,-3.64,-3.64,-3.64
195.27,-2.96,0.70,-2.95,0.70,-0.71,-0.95,-0.49,-3.67,-3.67,-3.65
197.22,-3.01,0.66,-3.00,0.67,-0.68,-0.91,-0.44,-3.69,-3.68,-3.67
199.19,-3.05,0.65,-3.04,0.64,-0.65,-0.88,-0.39,-3.69,-3.69,-3.70
201.18,-3.08,0.62,-3.08,0.62,-0.61,-0.84,-0.35,-3.69,-3.69,-3.70
203.19,-3.12,0.59,-3.12,0.59,-0.58,-0.80,-0.30,-3.70,-3.70,-3.71
205.23,-3.17,0.56,-3.16,0.55,-0.55,-0.77,-0.26,-3.71,-3.71,-3.73
207.28,-3.22,0.51,-3.22,0.52,-0.51,-0.73,-0.21,-3.73,-3.73,-3.73
209.35,-3.27,0.48,-3.27,0.48,-0.48,-0.69,-0.17,-3.75,-3.75,-3.75
211.44,-3.32,0.45,-3.32,0.44,-0.44,-0.65,-0.13,-3.76,-3.76,-3.76
213.56,-3.37,0.40,-3.36,0.40,-0.41,-0.61,-0.09,-3.77,-3.77,-3.76
215.69,-3.41,0.35,-3.41,0.36,-0.37,-0.56,-0.06,-3.78,-3.78,-3.76
217.85,-3.45,0.32,-3.44,0.33,-0.33,-0.52,-0.02,-3.78,-3.78,-3.77
220.03,-3.48,0.31,-3.48,0.30,-0.30,-0.47,0.02,-3.77,-3.78,-3.79
222.23,-3.52,0.28,-3.52,0.27,-0.26,-0.43,0.05,-3.77,-3.77,-3.79
224.45,-3.57,0.22,-3.56,0.23,-0.22,-0.38,0.08,-3.78,-3.78,-3.78
226.70,-3.61,0.18,-3.61,0.18,-0.18,-0.33,0.11,-3.78,-3.79,-3.79
228.96,-3.66,0.14,-3.66,0.13,-0.14,-0.27,0.14,-3.79,-3.79,-3.80
231.25,-3.71,0.09,-3.70,0.09,-0.10,-0.22,0.17,-3.81,-3.81,-3.79
233.57,-3.75,0.05,-3.75,0.05,-0.07,-0.16,0.19,-3.81,-3.82,-3.80
235.90,-3.80,0.01,-3.79,0.02,-0.03,-0.10,0.21,-3.83,-3.82,-3.80
238.26,-3.82,0.00,-3.82,-0.01,0.00,-0.04,0.23,-3.82,-3.82,-3.82
240.64,-3.85,-0.03,-3.84,-0.03,0.03,0.02,0.25,-3.81,-3.81,-3.81
243.05,-3.87,-0.05,-3.87,-0.05,0.06,0.08,0.27,-3.80,-3.81,-3.82
245.48,-3.90,-0.08,-3.90,-0.08,0.10,0.15,0.28,-3.80,-3.80,-3.82
247.93,-3.96,-0.14,-3.95,-0.12,0.14,0.21,0.29,-3.82,-3.81,-3.82
250.41,-3.99,-0.16,-3.99,-0.18,0.18,0.28,0.30,-3.81,-3.82,-3.83
252.92,-4.05,-0.24,-4.04,-0.23,0.22,0.34,0.31,-3.82,-3.82,-3.81
255.45,-4.08,-0.28,-4.08,-0.28,0.27,0.40,0.31,-3.81,-3.81,-3.79
258.00,-4.12,-0.33,-4.12,-0.33,0.32,0.46,0.32,-3.80,-3.80,-3.79
260.58,-4.15,-0.36,-4.14,-0.37,0.37,0.51,0.32,-3.78,-3.78,-3.78
263.19,-4.17,-0.41,-4.17,-0.41,0.42,0.55,0.32,-3.75,-3.75,-3.76
265.82,-4.20,-0.45,-4.20,-0.45,0.47,0.59,0.31,-3.73,-3.73,-3.75
268.48,-4.23,-0.49,-4.23,-0.50,0.51,0.62,0.31,-3.72,-3.72,-3.73
271.16,-4.27,-0.55,-4.27,-0.55,0.55,0.64,0.30,-3.71,-3.72,-3.72
273.87,-4.31,-0.61,-4.30,-0.60,0.59,0.64,0.29,-3.72,-3.71,-3.70
276.61,-4.33,-0.64,-4.32,-0.63,0.62,0.64,0.28,-3.71,-3.71,-3.68
279.38,-4.33,-0.65,-4.33,-0.65,0.64,0.63,0.26,-3.69,-3.69,-3.68
282.17,-4.32,-0.65,-4.32,-0.66,0.65,0.61,0.25,-3.67,-3.67,-3.67
284.99,-4.31,-0.66,-4.30,-0.65,0.65,0.58,0.23,-3.65,-3.65,-3.64
287.84,-4.28,-0.64,-4.27,-0.64,0.64,0.55,0.22,-3.63,-3.63,-3.64
290.72,-4.24,-0.62,-4.24,-0.62,0.63,0.50,0.20,-3.61,-3.61,-3.62
293.63,-4.20,-0.59,-4.20,-0.60,0.60,0.46,0.18,-3.59,-3.60,-3.60
296.57,-4.16,-0.58,-4.16,-0.58,0.57,0.41,0.16,-3.58,-3.58,-3.57
299.53,-4.12,-0.55,-4.11,-0.54,0.54,0.36,0.14,-3.57,-3.56,-3.57
302.53,-4.05,-0.50,-4.05,-0.51,0.51,0.31,0.12,-3.54,-3.54,-3.55
305.55,-3.98,-0.47,-3.98,-0.46,0.47,0.26,0.09,-3.51,-3.51,-3.51
308.61,-3.92,-0.42,-3.91,-0.42,0.43,0.21,0.07,-3.49,-3.48,-3.49
311.69,-3.85,-0.38,-3.85,-0.39,0.38,0.16,0.05,-3.46,-3.46,-3.46
314.81,-3.78,-0.35,-3.78,-0.34,0.34,0.11,0.02,-3.44,-3.44,-3.43
317.96,-3.71,-0.30,-3.70,-0.29,0.29,0.06,0.00,-3.42,-3.41,-3.41
321.14,-3.62,-0.24,-3.62,-0.24,0.24,0.02,-0.02,-3.38,-3.38,-3.38
324.35,-3.55,-0.18,-3.54,-0.19,0.19,-0.03,-0.05,-3.36,-3.36,-3.36
327.59,-3.47,-0.13,-3.47,-0.14,0.14,-0.07,-0.07,-3.33,-3.33,-3.33
330.87,-3.40,-0.09,-3.39,-0.08,0.08,-0.11,-0.10,-3.31,-3.31,-3.31
334.18,-3.32,-0.03,-3.31,-0.03,0.03,-0.14,-0.12,-3.29,-3.28,-3.29
337.52,-3.23,0.03,-3.23,0.02,-0.02,-0.18,-0.15,-3.25,-3.25,-3.26
340.90,-3.16,0.07,-3.16,0.07,-0.07,-0.21,-0.18,-3.23,-3.23,-3.23
344.30,-3.09,0.12,-3.08,0.12,-0.12,-0.24,-0.20,-3.21,-3.20,-3.20
347.75,-3.02,0.17,-3.01,0.16,-0.17,-0.27,-0.23,-3.19,-3.19,-3.18
351.23,-2.94,0.22,-2.94,0.21,-0.22,-0.30,-0.25,-3.16,-3.16,-3.15
354.74,-2.87,0.26,-2.86,0.26,-0.27,-0.33,-0.28,-3.14,-3.13,-3.13
358.28,-2.79,0.32,-2.79,0.31,-0.32,-0.35,-0.31,-3.10,-3.10,-3.11
361.87,-2.72,0.36,-2.71,0.37,-0.36,-0.38,-0.33,-3.07,-3.07,-3.08
365.49,-2.65,0.41,-2.65,0.41,-0.40,-0.40,-0.36,-3.04,-3.05,-3.06
369.14,-2.59,0.45,-2.59,0.45,-0.44,-0.43,-0.39,-3.02,-3.03,-3.04
372.83,-2.55,0.47,-2.54,0.47,-0.47,-0.45,-0.41,-3.02,-3.02,-3.02
376.56,-2.51,0.50,-2.50,0.50,-0.50,-0.48,-0.44,-3.01,-3.00,-3.00
380.33,-2.46,0.52,-2.46,0.52,-0.53,-0.50,-0.47,-2.99,-2.99,-2.97
384.13,-2.41,0.56,-2.41,0.55,-0.56,-0.52,-0.50,-2.97,-2.97,-2.96
387.97,-2.37,0.59,-2.37,0.59,-0.59,-0.54,-0.52,-2.96,-2.96,-2.95
391.85,-2.33,0.62,-2.33,0.62,-0.62,-0.56,-0.55,-2.94,-2.94,-2.94
395.77,-2.29,0.64,-2.29,0.64,-0.64,-0.59,-0.58,-2.93,-2.92,-2.93
399.73,-2.25,0.67,-2.24,0.67,-0.66,-0.61,-0.61,-2.91,-2.91,-2.92
403.72,-2.21,0.70,-2.21,0.70,-0.68,-0.63,-0.63,-2.89,-2.89,-2.91
407.76,-2.18,0.72,-2.18,0.71,-0.71,-0.65,-0.66,-2.88,-2.89,-2.90
411.84,-2.16,0.72,-2.16,0.73,-0.73,-0.67,-0.69,-2.89,-2.89,-2.88
415.96,-2.15,0.73,-2.14,0.74,-0.75,-0.70,-0.72,-2.90,-2.89,-2.88
420.12,-2.12,0.76,-2.11,0.76,-0.78,-0.72,-0.75,-2.90,-2.90,-2.88
424.32,-2.08,0.80,-2.08,0.80,-0.81,-0.74,-0.77,-2.89,-2.89,-2.88
428.56,-2.04,0.84,-2.03,0.85,-0.85,-0.77,-0.80,-2.88,-2.88,-2.88
432.85,-1.99,0.90,-1.99,0.89,-0.88,-0.79,-0.83,-2.87,-2.88,-2.88
