frequency,raw,error,smoothed,error_smoothed,equalization,parametric_eq,fixed_band_eq,equalized_raw,equalized_smoothed,target
20.00,0.05,-3.07,0.05,-3.07,3.09,2.25,0.77,3.14,3.14,3.13
20.20,0.10,-3.00,0.10,-3.01,3.02,2.24,0.79,3.12,3.11,3.10
20.40,0.14,-2.95,0.14,-2.95,2.94,2.23,0.81,3.09,3.09,3.09
20.61,0.19,-2.89,0.19,-2.89,2.88,2.21,0.84,3.07,3.07,3.08
20.81,0.24,-2.82,0.24,-2.83,2.81,2.20,0.86,3.05,3.05,3.06
21.02,0.28,-2.77,0.28,-2.77,2.75,2.19,0.89,3.03,3.04,3.05
21.23,0.33,-2.71,0.33,-2.71,2.70,2.18,0.92,3.03,3.03,3.04
21.44,0.38,-2.65,0.38,-2.65,2.65,2.17,0.95,3.03,3.03,3.03
21.66,0.43,-2.59,0.43,-2.59,2.60,2.16,0.98,3.03,3.03,3.02
21.87,0.48,-2.53,0.48,-2.54,2.55,2.14,1.01,3.04,3.03,3.01
22.09,0.51,-2.50,0.51,-2.50,2.52,2.13,1.04,3.03,3.03,3.01
22.31,0.53,-2.47,0.53,-2.47,2.49,2.12,1.07,3.02,3.02,3.00
22.54,0.54,-2.46,0.54,-2.46,2.46,2.10,1.10,3.00,3.00,3.00
22.76,0.55,-2.44,0.55,-2.44,2.43,2.09,1.14,2.98,2.98,2.99
22.99,0.56,-2.44,0.57,-2.42,2.41,2.08,1.17,2.97,2.98,3.00
23.22,0.60,-2.39,0.60,-2.39,2.38,2.06,1.21,2.98,2.98,2.99
23.45,0.64,-2.35,0.64,-2.35,2.34,2.05,1.24,2.99,2.98,2.99
23.69,0.68,-2.32,0.68,-2.31,2.30,2.03,1.28,2.98,2.99,3.00
23.92,0.73,-2.26,0.73,-2.27,2.26,2.02,1.32,2.99,2.99,2.99
24.16,0.78,-2.22,0.78,-2.22,2.21,2.00,1.36,2.99,2.99,3.00
24.40,0.83,-2.17,0.83,-2.17,2.17,1.99,1.39,3.00,3.00,3.00
24.65,0.88,-2.12,0.89,-2.12,2.13,1.97,1.43,3.01,3.02,3.00
24.89,0.94,-2.06,0.93,-2.07,2.10,1.96,1.47,3.05,3.03,3.00
25.14,0.96,-2.04,0.96,-2.04,2.08,1.94,1.51,3.04,3.03,3.00
25.39,0.96,-2.04,0.96,-2.04,2.05,1.92,1.55,3.01,3.01,3.00
25.65,0.96,-2.05,0.96,-2.05,2.02,1.91,1.59,2.98,2.98,3.01
25.91,0.96,-2.05,0.97,-2.03,1.99,1.89,1.63,2.95,2.96,3.01
26.16,1.00,-2.00,1.00,-2.00,1.96,1.87,1.67,2.96,2.96,3.01
26.43,1.06,-1.94,1.06,-1.94,1.93,1.85,1.71,2.99,2.99,2.99
26.69,1.12,-1.87,1.12,-1.87,1.89,1.84,1.74,3.01,3.01,2.99
26.96,1.18,-1.81,1.17,-1.83,1.86,1.82,1.78,3.04,3.03,2.99
27.23,1.19,-1.80,1.19,-1.80,1.83,1.80,1.82,3.02,3.02,2.99
27.50,1.19,-1.79,1.20,-1.78,1.81,1.78,1.85,3.00,3.00,2.98
27.77,1.19,-1.78,1.19,-1.78,1.79,1.76,1.88,2.98,2.98,2.97
28.05,1.19,-1.78,1.19,-1.77,1.77,1.74,1.91,2.96,2.96,2.97
28.33,1.19,-1.76,1.19,-1.77,1.76,1.72,1.94,2.95,2.94,2.96
28.62,1.19,-1.76,1.19,-1.76,1.73,1.70,1.97,2.92,2.92,2.95
28.90,1.19,-1.75,1.20,-1.74,1.70,1.67,1.99,2.89,2.90,2.94
29.19,1.23,-1.70,1.24,-1.70,1.67,1.65,2.01,2.90,2.91,2.93
29.48,1.30,-1.63,1.30,-1.62,1.63,1.63,2.03,2.93,2.93,2.93
29.78,1.37,-1.55,1.36,-1.55,1.59,1.61,2.05,2.96,2.96,2.92
30.08,1.42,-1.49,1.41,-1.50,1.55,1.58,2.06,2.97,2.95,2.91
30.38,1.42,-1.48,1.42,-1.48,1.49,1.56,2.07,2.92,2.91,2.90
30.68,1.42,-1.47,1.42,-1.47,1.44,1.53,2.07,2.86,2.86,2.89
30.99,1.42,-1.46,1.44,-1.44,1.39,1.51,2.07,2.81,2.83,2.88
31.30,1.49,-1.38,1.49,-1.38,1.35,1.48,2.07,2.84,2.84,2.87
31.61,1.56,-1.30,1.56,-1.31,1.31,1.46,2.06,2.87,2.87,2.86
31.93,1.63,-1.23,1.62,-1.24,1.28,1.43,2.05,2.91,2.89,2.86
32.24,1.65,-1.20,1.65,-1.21,1.25,1.40,2.04,2.90,2.90,2.85
32.57,1.65,-1.20,1.66,-1.19,1.22,1.37,2.02,2.87,2.88,2.85
32.89,1.65,-1.19,1.65,-1.19,1.20,1.34,2.00,2.85,2.86,2.84
33.22,1.65,-1.19,1.65,-1.20,1.19,1.31,1.98,2.84,2.83,2.84
33.55,1.65,-1.20,1.65,-1.20,1.17,1.28,1.95,2.82,2.82,2.85
33.89,1.65,-1.21,1.66,-1.19,1.16,1.25,1.92,2.81,2.82,2.86
34.23,1.69,-1.16,1.69,-1.16,1.14,1.22,1.89,2.83,2.83,2.85
34.57,1.74,-1.12,1.74,-1.12,1.11,1.19,1.85,2.85,2.85,2.86
34.92,1.80,-1.06,1.79,-1.07,1.08,1.16,1.82,2.88,2.87,2.86
35.27,1.83,-1.03,1.83,-1.03,1.05,1.13,1.78,2.88,2.88,2.86
35.62,1.85,-1.01,1.86,-1.00,1.02,1.09,1.74,2.87,2.88,2.86
35.97,1.88,-0.98,1.87,-0.98,1.00,1.06,1.69,2.88,2.87,2.86
36.33,1.88,-0.97,1.88,-0.97,0.98,1.03,1.65,2.86,2.86,2.85
36.70,1.88,-0.97,1.88,-0.97,0.97,0.99,1.60,2.85,2.86,2.85
37.06,1.88,-0.96,1.88,-0.96,0.97,0.96,1.56,2.85,2.85,2.84
37.43,1.88,-0.96,1.88,-0.96,0.96,0.93,1.51,2.84,2.84,2.84
37.81,1.88,-0.95,1.88,-0.95,0.94,0.89,1.46,2.82,2.82,2.83
38.19,1.88,-0.93,1.87,-0.94,0.92,0.86,1.41,2.80,2.79,2.81
38.57,1.88,-0.92,1.88,-0.92,0.88,0.83,1.36,2.76,2.76,2.80
38.95,1.88,-0.90,1.91,-0.88,0.84,0.80,1.32,2.72,2.74,2.78
39.34,1.96,-0.81,1.96,-0.80,0.79,0.77,1.27,2.75,2.75,2.77
39.74,2.04,-0.71,2.03,-0.72,0.74,0.74,1.22,2.78,2.77,2.75
40.14,2.10,-0.63,2.08,-0.65,0.69,0.71,1.17,2.79,2.78,2.73
40.54,2.10,-0.62,2.11,-0.61,0.65,0.69,1.12,2.75,2.76,2.72
40.94,2.10,-0.60,2.11,-0.60,0.62,0.66,1.08,2.72,2.72,2.71
41.35,2.10,-0.60,2.10,-0.60,0.59,0.64,1.03,2.69,2.69,2.70
41.76,2.10,-0.59,2.10,-0.59,0.58,0.61,0.98,2.68,2.68,2.69
42.18,2.10,-0.59,2.10,-0.59,0.57,0.59,0.94,2.68,2.68,2.69
42.60,2.10,-0.58,2.10,-0.58,0.58,0.57,0.89,2.68,2.68,2.68
43.03,2.10,-0.57,2.10,-0.57,0.58,0.55,0.85,2.68,2.68,2.67
43.46,2.10,-0.56,2.10,-0.57,0.58,0.53,0.80,2.68,2.68,2.67
43.90,2.10,-0.57,2.10,-0.56,0.57,0.51,0.76,2.67,2.67,2.67
44.33,2.10,-0.56,2.10,-0.56,0.56,0.49,0.72,2.66,2.65,2.66
44.78,2.10,-0.55,2.10,-0.55,0.53,0.47,0.67,2.63,2.64,2.65
45.23,2.12,-0.53,2.12,-0.53,0.50,0.45,0.63,2.62,2.62,2.65
45.68,2.15,-0.49,2.15,-0.49,0.46,0.43,0.59,2.61,2.62,2.65
46.13,2.19,-0.44,2.21,-0.43,0.43,0.41,0.55,2.62,2.63,2.64
46.60,2.27,-0.36,2.26,-0.37,0.38,0.39,0.51,2.65,2.65,2.63
47.06,2.33,-0.30,2.31,-0.31,0.34,0.37,0.47,2.68,2.66,2.63
47.53,2.33,-0.29,2.34,-0.28,0.31,0.35,0.43,2.64,2.64,2.62
48.01,2.33,-0.28,2.34,-0.27,0.28,0.33,0.39,2.61,2.62,2.61
48.49,2.33,-0.26,2.33,-0.26,0.26,0.31,0.36,2.59,2.59,2.59
48.97,2.33,-0.24,2.33,-0.25,0.24,0.29,0.32,2.57,2.57,2.58
49.46,2.33,-0.24,2.33,-0.24,0.23,0.27,0.28,2.56,2.56,2.57
49.96,2.33,-0.23,2.33,-0.23,0.23,0.25,0.25,2.56,2.56,2.56
50.46,2.33,-0.22,2.33,-0.22,0.22,0.22,0.21,2.55,2.55,2.55
50.96,2.33,-0.21,2.33,-0.21,0.21,0.20,0.18,2.54,2.54,2.54
51.47,2.33,-0.20,2.33,-0.20,0.21,0.17,0.14,2.54,2.54,2.53
51.99,2.33,-0.19,2.33,-0.19,0.20,0.15,0.11,2.53,2.53,2.52
52.51,2.33,-0.18,2.33,-0.18,0.19,0.12,0.07,2.52,2.52,2.51
53.03,2.33,-0.16,2.33,-0.16,0.17,0.10,0.04,2.50,2.50,2.49
53.56,2.33,-0.14,2.33,-0.14,0.13,0.07,0.01,2.46,2.46,2.47
54.10,2.33,-0.12,2.32,-0.13,0.09,0.04,-0.03,2.42,2.41,2.45
54.64,2.33,-0.11,2.34,-0.09,0.04,0.02,-0.06,2.37,2.39,2.44
55.18,2.37,-0.04,2.40,-0.01,-0.01,-0.01,-0.09,2.36,2.40,2.41
55.74,2.50,0.10,2.48,0.08,-0.06,-0.04,-0.12,2.44,2.42,2.40
56.29,2.56,0.18,2.54,0.15,-0.11,-0.07,-0.16,2.45,2.43,2.39
56.86,2.56,0.19,2.57,0.20,-0.16,-0.10,-0.19,2.40,2.41,2.37
57.42,2.56,0.21,2.57,0.22,-0.20,-0.13,-0.22,2.36,2.36,2.35
58.00,2.56,0.23,2.56,0.23,-0.24,-0.15,-0.25,2.32,2.32,2.33
58.58,2.56,0.25,2.56,0.25,-0.27,-0.18,-0.28,2.30,2.30,2.31
59.16,2.56,0.27,2.56,0.27,-0.28,-0.21,-0.31,2.28,2.28,2.29
59.76,2.56,0.29,2.56,0.29,-0.30,-0.24,-0.35,2.26,2.26,2.27
60.35,2.56,0.32,2.56,0.31,-0.31,-0.27,-0.38,2.25,2.25,2.25
60.96,2.56,0.34,2.56,0.33,-0.33,-0.30,-0.41,2.23,2.23,2.22
61.57,2.56,0.35,2.56,0.35,-0.35,-0.33,-0.44,2.21,2.21,2.21
62.18,2.56,0.37,2.56,0.37,-0.38,-0.36,-0.47,2.18,2.18,2.19
62.80,2.56,0.40,2.56,0.40,-0.40,-0.40,-0.50,2.16,2.16,2.16
63.43,2.56,0.42,2.56,0.43,-0.43,-0.43,-0.54,2.13,2.13,2.14
64.07,2.56,0.46,2.56,0.46,-0.46,-0.46,-0.57,2.10,2.10,2.10
64.71,2.56,0.49,2.56,0.49,-0.49,-0.49,-0.60,2.07,2.07,2.07
65.35,2.56,0.52,2.56,0.52,-0.52,-0.52,-0.63,2.04,2.04,2.04
66.01,2.56,0.56,2.56,0.56,-0.56,-0.55,-0.66,2.00,2.00,2.00
66.67,2.56,0.59,2.56,0.59,-0.59,-0.58,-0.70,1.97,1.97,1.97
67.33,2.56,0.63,2.56,0.63,-0.63,-0.61,-0.73,1.93,1.93,1.93
68.01,2.56,0.66,2.56,0.66,-0.66,-0.65,-0.76,1.90,1.90,1.90
68.69,2.56,0.69,2.56,0.70,-0.70,-0.68,-0.80,1.86,1.86,1.87
69.37,2.56,0.73,2.56,0.73,-0.73,-0.71,-0.83,1.83,1.83,1.83
70.07,2.56,0.77,2.56,0.77,-0.77,-0.75,-0.87,1.79,1.79,1.79
70.77,2.56,0.81,2.56,0.81,-0.81,-0.79,-0.90,1.75,1.75,1.75
71.48,2.56,0.85,2.56,0.85,-0.85,-0.82,-0.94,1.71,1.71,1.72
72.19,2.56,0.88,2.56,0.88,-0.89,-0.86,-0.98,1.67,1.67,1.68
72.91,2.56,0.93,2.56,0.92,-0.92,-0.90,-1.01,1.64,1.64,1.63
73.64,2.56,0.96,2.56,0.96,-0.96,-0.95,-1.05,1.60,1.60,1.60
74.38,2.56,1.00,2.56,1.00,-0.99,-0.99,-1.09,1.57,1.57,1.56
75.12,2.56,1.04,2.56,1.04,-1.02,-1.04,-1.13,1.54,1.54,1.52
75.87,2.56,1.08,2.56,1.08,-1.07,-1.09,-1.17,1.49,1.49,1.48
76.63,2.56,1.12,2.56,1.12,-1.12,-1.14,-1.21,1.44,1.44,1.44
77.40,2.56,1.15,2.54,1.14,-1.18,-1.19,-1.26,1.38,1.37,1.41
78.17,2.56,1.19,2.56,1.19,-1.25,-1.25,-1.30,1.32,1.32,1.37
78.95,2.56,1.23,2.62,1.29,-1.31,-1.31,-1.34,1.25,1.31,1.34
79.74,2.73,1.44,2.69,1.40,-1.39,-1.36,-1.39,1.34,1.31,1.29
80.54,2.79,1.53,2.76,1.50,-1.46,-1.42,-1.44,1.33,1.30,1.26
81.35,2.79,1.57,2.80,1.58,-1.53,-1.48,-1.49,1.26,1.27,1.22
82.16,2.79,1.61,2.80,1.62,-1.60,-1.54,-1.54,1.19,1.20,1.18
82.98,2.79,1.66,2.79,1.66,-1.67,-1.60,-1.59,1.12,1.12,1.13
83.81,2.79,1.71,2.79,1.71,-1.72,-1.67,-1.64,1.07,1.07,1.08
84.65,2.79,1.75,2.79,1.76,-1.77,-1.73,-1.69,1.02,1.02,1.04
85.50,2.79,1.81,2.79,1.81,-1.82,-1.79,-1.75,0.97,0.97,0.98
86.35,2.79,1.86,2.79,1.86,-1.86,-1.85,-1.81,0.93,0.93,0.93
87.22,2.79,1.92,2.79,1.92,-1.92,-1.91,-1.86,0.87,0.87,0.87
88.09,2.79,1.97,2.79,1.97,-1.97,-1.97,-1.92,0.82,0.82,0.82
88.97,2.79,2.03,2.79,2.03,-2.03,-2.04,-1.98,0.76,0.76,0.76
89.86,2.79,2.08,2.79,2.09,-2.09,-2.10,-2.05,0.70,0.70,0.71
90.76,2.79,2.15,2.79,2.14,-2.14,-2.16,-2.11,0.65,0.65,0.64
91.66,2.79,2.20,2.79,2.20,-2.20,-2.22,-2.18,0.59,0.59,0.59
92.58,2.79,2.26,2.79,2.26,-2.26,-2.28,-2.24,0.53,0.53,0.53
93.51,2.79,2.32,2.79,2.32,-2.32,-2.34,-2.31,0.47,0.47,0.47
94.44,2.79,2.38,2.79,2.38,-2.37,-2.40,-2.38,0.42,0.42,0.41
95.39,2.79,2.43,2.79,2.43,-2.43,-2.46,-2.45,0.36,0.36,0.36
96.34,2.79,2.49,2.79,2.49,-2.49,-2.51,-2.52,0.30,0.30,0.30
97.30,2.79,2.54,2.79,2.55,-2.55,-2.57,-2.60,0.24,0.24,0.25
98.28,2.79,2.61,2.79,2.61,-2.61,-2.63,-2.67,0.18,0.18,0.18
99.26,2.79,2.67,2.79,2.67,-2.67,-2.69,-2.75,0.12,0.12,0.13
100.25,2.79,2.72,2.79,2.72,-2.73,-2.74,-2.82,0.06,0.06,0.07
101.25,2.79,2.79,2.79,2.78,-2.79,-2.80,-2.90,0.00,0.00,0.00
102.27,2.79,2.84,2.79,2.85,-2.85,-2.86,-2.98,-0.06,-0.06,-0.05
103.29,2.79,2.91,2.79,2.91,-2.91,-2.91,-3.05,-0.11,-0.11,-0.12
104.32,2.79,2.97,2.79,2.97,-2.96,-2.97,-3.13,-0.17,-0.17,-0.17
105.37,2.79,3.02,2.79,3.02,-3.02,-3.02,-3.21,-0.23,-0.23,-0.23
106.42,2.79,3.08,2.79,3.08,-3.08,-3.08,-3.29,-0.29,-0.29,-0.29
107.48,2.79,3.13,2.79,3.13,-3.13,-3.13,-3.36,-0.34,-0.34,-0.34
108.56,2.79,3.18,2.79,3.18,-3.18,-3.18,-3.44,-0.39,-0.39,-0.39
109.64,2.79,3.24,2.79,3.23,-3.23,-3.24,-3.51,-0.44,-0.44,-0.45
110.74,2.79,3.28,2.79,3.28,-3.28,-3.29,-3.58,-0.49,-0.49,-0.49
111.85,2.79,3.33,2.79,3.33,-3.33,-3.34,-3.65,-0.54,-0.54,-0.54
112.97,2.79,3.37,2.79,3.38,-3.38,-3.39,-3.72,-0.59,-0.59,-0.58
114.10,2.79,3.43,2.79,3.43,-3.43,-3.44,-3.79,-0.64,-0.64,-0.64
115.24,2.79,3.48,2.79,3.48,-3.48,-3.49,-3.85,-0.69,-0.69,-0.69
116.39,2.79,3.54,2.79,3.54,-3.54,-3.54,-3.91,-0.75,-0.75,-0.75
117.55,2.79,3.59,2.79,3.59,-3.59,-3.59,-3.96,-0.80,-0.80,-0.80
118.73,2.79,3.65,2.79,3.65,-3.64,-3.64,-4.02,-0.85,-0.85,-0.86
119.92,2.79,3.70,2.79,3.70,-3.70,-3.68,-4.06,-0.91,-0.91,-0.91
121.12,2.79,3.75,2.79,3.75,-3.76,-3.73,-4.11,-0.97,-0.97,-0.96
122.33,2.79,3.81,2.79,3.81,-3.82,-3.78,-4.15,-1.03,-1.03,-1.02
123.55,2.79,3.87,2.79,3.87,-3.88,-3.82,-4.18,-1.09,-1.09,-1.08
124.79,2.79,3.93,2.79,3.93,-3.94,-3.87,-4.21,-1.15,-1.15,-1.14
126.03,2.79,3.99,2.79,3.98,-3.99,-3.91,-4.24,-1.20,-1.20,-1.20
127.29,2.79,4.04,2.80,4.05,-4.03,-3.95,-4.26,-1.24,-1.24,-1.25
128.57,2.79,4.10,2.80,4.10,-4.06,-4.00,-4.28,-1.27,-1.26,-1.31
129.85,2.79,4.15,2.77,4.13,-4.09,-4.04,-4.29,-1.30,-1.31,-1.36
131.15,2.74,4.15,2.71,4.13,-4.11,-4.08,-4.30,-1.37,-1.39,-1.41
132.46,2.61,4.08,2.64,4.11,-4.12,-4.12,-4.31,-1.51,-1.48,-1.47
133.79,2.56,4.08,2.58,4.10,-4.14,-4.16,-4.31,-1.58,-1.56,-1.52
135.12,2.56,4.12,2.55,4.11,-4.16,-4.20,-4.31,-1.60,-1.61,-1.56
136.48,2.56,4.17,2.56,4.16,-4.18,-4.23,-4.30,-1.62,-1.63,-1.61
137.84,2.56,4.21,2.56,4.22,-4.21,-4.27,-4.30,-1.65,-1.65,-1.65
139.22,2.56,4.27,2.56,4.26,-4.25,-4.31,-4.29,-1.69,-1.69,-1.71
140.61,2.56,4.31,2.56,4.31,-4.30,-4.34,-4.28,-1.74,-1.74,-1.75
142.02,2.56,4.35,2.56,4.35,-4.35,-4.38,-4.26,-1.79,-1.79,-1.79
143.44,2.56,4.39,2.56,4.40,-4.40,-4.41,-4.25,-1.83,-1.83,-1.83
144.87,2.56,4.44,2.56,4.44,-4.44,-4.44,-4.24,-1.88,-1.88,-1.88
146.32,2.56,4.48,2.56,4.48,-4.48,-4.47,-4.22,-1.92,-1.92,-1.92
147.78,2.56,4.52,2.56,4.52,-4.52,-4.50,-4.21,-1.96,-1.96,-1.96
149.26,2.56,4.56,2.56,4.56,-4.56,-4.53,-4.20,-2.00,-2.00,-2.00
150.75,2.56,4.60,2.56,4.60,-4.60,-4.56,-4.18,-2.04,-2.04,-2.04
152.26,2.56,4.63,2.56,4.64,-4.64,-4.59,-4.17,-2.08,-2.08,-2.07
153.78,2.56,4.68,2.56,4.68,-4.67,-4.62,-4.16,-2.11,-2.11,-2.12
155.32,2.56,4.71,2.56,4.71,-4.71,-4.65,-4.15,-2.15,-2.15,-2.15
156.88,2.56,4.74,2.56,4.74,-4.74,-4.67,-4.15,-2.18,-2.18,-2.18
158.44,2.56,4.77,2.56,4.77,-4.77,-4.70,-4.14,-2.21,-2.21,-2.21
160.03,2.56,4.80,2.56,4.80,-4.81,-4.72,-4.14,-2.24,-2.24,-2.24
161.63,2.56,4.83,2.56,4.83,-4.83,-4.74,-4.14,-2.27,-2.27,-2.27
163.24,2.56,4.86,2.56,4.87,-4.86,-4.77,-4.14,-2.30,-2.30,-2.30
164.88,2.56,4.89,2.56,4.89,-4.90,-4.79,-4.15,-2.34,-2.34,-2.33
166.53,2.56,4.92,2.56,4.92,-4.93,-4.81,-4.15,-2.37,-2.37,-2.36
168.19,2.56,4.94,2.56,4.95,-4.96,-4.83,-4.17,-2.40,-2.40,-2.38
169.87,2.56,4.97,2.56,4.97,-4.98,-4.85,-4.18,-2.42,-2.42,-2.41
171.57,2.56,5.00,2.56,5.00,-4.99,-4.87,-4.20,-2.43,-2.43,-2.44
173.29,2.56,5.02,2.58,5.04,-5.00,-4.89,-4.22,-2.43,-2.42,-2.46
175.02,2.56,5.05,2.56,5.04,-4.99,-4.90,-4.24,-2.43,-2.43,-2.49
176.77,2.56,5.07,2.50,5.01,-4.98,-4.92,-4.27,-2.42,-2.49,-2.51
178.54,2.38,4.92,2.42,4.96,-4.98,-4.93,-4.30,-2.60,-2.55,-2.54
180.32,2.33,4.90,2.36,4.92,-4.97,-4.95,-4.33,-2.64,-2.61,-2.57
182.13,2.33,4.92,2.32,4.91,-4.96,-4.96,-4.37,-2.63,-2.65,-2.59
183.95,2.33,4.96,2.33,4.95,-4.96,-4.97,-4.41,-2.63,-2.64,-2.62
185.79,2.33,4.98,2.33,4.98,-4.97,-4.99,-4.45,-2.64,-2.64,-2.65
187.65,2.33,5.00,2.33,5.00,-4.99,-5.00,-4.50,-2.66,-2.66,-2.67
189.52,2.33,5.03,2.33,5.02,-5.01,-5.01,-4.55,-2.68,-2.68,-2.70
191.42,2.33,5.05,2.33,5.05,-5.04,-5.02,-4.60,-2.71,-2.71,-2.72
193.33,2.33,5.07,2.33,5.07,-5.06,-5.03,-4.66,-2.73,-2.73,-2.73
195.27,2.33,5.08,2.33,5.08,-5.08,-5.04,-4.71,-2.75,-2.75,-2.75
197.22,2.33,5.10,2.33,5.10,-5.10,-5.05,-4.78,-2.77,-2.77,-2.77
199.19,2.33,5.11,2.33,5.11,-5.12,-5.05,-4.84,-2.79,-2.79,-2.78
201.18,2.33,5.13,2.33,5.13,-5.14,-5.06,-4.90,-2.81,-2.81,-2.79
203.19,2.33,5.14,2.33,5.14,-5.15,-5.06,-4.97,-2.82,-2.82,-2.81
205.23,2.33,5.15,2.33,5.15,-5.15,-5.07,-5.04,-2.82,-2.82,-2.82
207.28,2.33,5.16,2.34,5.18,-5.14,-5.07,-5.10,-2.81,-2.80,-2.83
209.35,2.33,5.18,2.33,5.18,-5.12,-5.08,-5.17,-2.79,-2.79,-2.85
211.44,2.33,5.19,2.28,5.14,-5.11,-5.08,-5.24,-2.78,-2.83,-2.86
213.56,2.18,5.05,2.21,5.08,-5.09,-5.08,-5.31,-2.90,-2.88,-2.87
215.69,2.11,5.00,2.14,5.02,-5.07,-5.09,-5.38,-2.95,-2.93,-2.89
217.85,2.10,5.00,2.09,4.99,-5.05,-5.09,-5.45,-2.95,-2.95,-2.90
220.03,2.10,5.01,2.09,5.01,-5.03,-5.09,-5.52,-2.93,-2.94,-2.91
222.23,2.10,5.03,2.10,5.03,-5.03,-5.09,-5.58,-2.93,-2.93,-2.93
224.45,2.10,5.05,2.10,5.05,-5.03,-5.09,-5.64,-2.93,-2.93,-2.95
226.70,2.10,5.06,2.10,5.06,-5.04,-5.08,-5.70,-2.94,-2.94,-2.96
228.96,2.10,5.07,2.10,5.07,-5.06,-5.08,-5.75,-2.96,-2.96,-2.97
231.25,2.10,5.08,2.10,5.08,-5.08,-5.08,-5.80,-2.98,-2.98,-2.98
233.57,2.10,5.10,2.10,5.09,-5.10,-5.08,-5.85,-3.00,-3.00,-3.00
235.90,2.10,5.11,2.10,5.11,-5.12,-5.07,-5.89,-3.01,-3.01,-3.01
238.26,2.10,5.12,2.10,5.12,-5.13,-5.07,-5.92,-3.03,-3.03,-3.02
240.64,2.10,5.14,2.10,5.13,-5.15,-5.06,-5.95,-3.05,-3.05,-3.04
243.05,2.10,5.15,2.10,5.14,-5.15,-5.06,-5.97,-3.05,-3.05,-3.04
245.48,2.10,5.15,2.10,5.16,-5.14,-5.05,-5.98,-3.04,-3.04,-3.05
247.93,2.10,5.16,2.11,5.17,-5.13,-5.04,-5.99,-3.03,-3.01,-3.06
250.41,2.10,5.17,2.08,5.15,-5.11,-5.04,-5.99,-3.01,-3.02,-3.07
252.92,2.06,5.14,2.02,5.10,-5.08,-5.03,-5.98,-3.02,-3.06,-3.08
255.45,1.91,4.99,1.95,5.04,-5.06,-5.02,-5.96,-3.15,-3.11,-3.08
258.00,1.88,4.97,1.89,4.98,-5.03,-5.01,-5.94,-3.15,-3.14,-3.09
260.58,1.88,4.98,1.87,4.97,-5.01,-5.00,-5.91,-3.13,-3.15,-3.10
263.19,1.88,4.98,1.88,4.99,-5.00,-4.99,-5.88,-3.12,-3.12,-3.10
265.82,1.88,5.00,1.88,5.00,-4.99,-4.98,-5.83,-3.11,-3.11,-3.12
268.48,1.88,5.01,1.88,5.01,-4.99,-4.97,-5.78,-3.11,-3.11,-3.13
271.16,1.88,5.01,1.88,5.01,-5.00,-4.96,-5.73,-3.12,-3.12,-3.13
273.87,1.88,5.01,1.88,5.01,-5.02,-4.95,-5.67,-3.14,-3.14,-3.13
276.61,1.88,5.01,1.88,5.02,-5.03,-4.93,-5.61,-3.15,-3.15,-3.13
279.38,1.88,5.02,1.88,5.02,-5.03,-4.92,-5.54,-3.15,-3.15,-3.14
282.17,1.88,5.02,1.88,5.02,-5.02,-4.91,-5.47,-3.14,-3.14,-3.14
284.99,1.88,5.02,1.89,5.03,-5.00,-4.89,-5.40,-3.12,-3.11,-3.14
287.84,1.88,5.02,1.89,5.03,-4.98,-4.88,-5.32,-3.10,-3.09,-3.14
290.72,1.88,5.03,1.84,4.99,-4.95,-4.86,-5.25,-3.07,-3.11,-3.15
293.63,1.77,4.92,1.77,4.92,-4.92,-4.85,-5.17,-3.15,-3.15,-3.15
296.57,1.66,4.81,1.70,4.85,-4.89,-4.83,-5.09,-3.22,-3.19,-3.15
299.53,1.65,4.80,1.65,4.80,-4.86,-4.82,-5.02,-3.21,-3.21,-3.15
302.53,1.65,4.81,1.64,4.80,-4.84,-4.80,-4.94,-3.19,-3.20,-3.15
305.55,1.65,4.81,1.65,4.81,-4.82,-4.78,-4.86,-3.17,-3.17,-3.16
308.61,1.65,4.81,1.65,4.81,-4.81,-4.76,-4.79,-3.16,-3.16,-3.16
311.69,1.65,4.81,1.65,4.81,-4.79,-4.75,-4.71,-3.14,-3.14,-3.16
314.81,1.65,4.81,1.67,4.83,-4.77,-4.73,-4.64,-3.12,-3.11,-3.16
317.96,1.65,4.81,1.64,4.81,-4.75,-4.71,-4.57,-3.10,-3.11,-3.16
321.14,1.64,4.81,1.59,4.75,-4.73,-4.69,-4.50,-3.08,-3.14,-3.17
324.35,1.47,4.64,1.51,4.68,-4.69,-4.67,-4.43,-3.22,-3.18,-3.17
327.59,1.42,4.59,1.44,4.62,-4.66,-4.65,-4.37,-3.24,-3.22,-3.17
330.87,1.42,4.60,1.41,4.58,-4.64,-4.63,-4.31,-3.22,-3.23,-3.17
334.18,1.42,4.60,1.42,4.59,-4.62,-4.61,-4.25,-3.20,-3.21,-3.18
337.52,1.42,4.60,1.42,4.60,-4.60,-4.59,-4.19,-3.18,-3.18,-3.18
340.90,1.42,4.59,1.42,4.60,-4.58,-4.56,-4.14,-3.16,-3.16,-3.17
344.30,1.42,4.60,1.43,4.60,-4.56,-4.54,-4.09,-3.14,-3.13,-3.17
347.75,1.42,4.59,1.43,4.60,-4.54,-4.52,-4.04,-3.12,-3.12,-3.17
351.23,1.42,4.59,1.38,4.55,-4.51,-4.50,-4.00,-3.09,-3.13,-3.17
354.74,1.32,4.49,1.32,4.49,-4.48,-4.47,-3.96,-3.16,-3.17,-3.17
358.28,1.21,4.38,1.25,4.42,-4.45,-4.45,-3.92,-3.24,-3.21,-3.17
361.87,1.19,4.37,1.19,4.37,-4.43,-4.42,-3.88,-3.24,-3.24,-3.18
365.49,1.19,4.37,1.18,4.36,-4.41,-4.40,-3.85,-3.22,-3.23,-3.18
369.14,1.19,4.37,1.19,4.37,-4.38,-4.38,-3.82,-3.19,-3.19,-3.18
372.83,1.19,4.37,1.19,4.37,-4.36,-4.35,-3.80,-3.17,-3.17,-3.18
376.56,1.19,4.37,1.21,4.39,-4.34,-4.32,-3.77,-3.15,-3.13,-3.18
380.33,1.19,4.38,1.19,4.38,-4.31,-4.30,-3.75,-3.12,-3.12,-3.18
384.13,1.19,4.38,1.14,4.33,-4.29,-4.27,-3.73,-3.10,-3.15,-3.19
387.97,1.04,4.24,1.07,4.26,-4.27,-4.25,-3.72,-3.23,-3.21,-3.20
391.85,0.97,4.17,1.00,4.20,-4.25,-4.22,-3.71,-3.28,-3.25,-3.20
395.77,0.96,4.16,0.95,4.16,-4.23,-4.19,-3.69,-3.27,-3.27,-3.20
399.73,0.96,4.17,0.95,4.16,-4.20,-4.17,-3.69,-3.24,-3.24,-3.21
403.72,0.96,4.17,0.96,4.17,-4.16,-4.14,-3.68,-3.20,-3.21,-3.21
407.76,0.96,4.18,0.98,4.19,-4.13,-4.11,-3.68,-3.17,-3.16,-3.22
411.84,0.96,4.18,0.96,4.17,-4.10,-4.08,-3.67,-3.14,-3.15,-3.22
415.96,0.96,4.17,0.90,4.11,-4.08,-4.05,-3.67,-3.12,-3.18,-3.21
420.12,0.79,4.00,0.83,4.04,-4.05,-4.03,-3.67,-3.26,-3.22,-3.21
424.32,0.74,3.94,0.77,3.97,-4.03,-4.00,-3.67,-3.29,-3.26,-3.20
428.56,0.74,3.94,0.73,3.93,-4.00,-3.97,-3.67,-3.26,-3.27,-3.20
432.85,0.74,3.94,0.74,3.94,-3.97,-3.94,-3.68,-3.23,-3.23,-3.20
437.18,0.74,3.94,0.74,3.94,-3.93,-3.91,-3.68,-3.19,-3.19,-3.20
441.55,0.74,3.93,0.76,3.95,-3.89,-3.88,-3.68,-3.15,-3.14,-3.19
445.96,0.74,3.94,0.74,3.93,-3.86,-3.85,-3.68,-3.12,-3.13,-3.19
450.42,0.74,3.93,0.68,3.87,-3.83,-3.82,-3.68,-3.09,-3.16,-3.19
454.93,0.56,3.75,0.60,3.79,-3.81,-3.79,-3.68,-3.25,-3.20,-3.19
459.48,0.51,3.70,0.54,3.72,-3.78,-3.76,-3.68,-3.27,-3.24,-3.19
464.07,0.51,3.69,0.50,3.68,-3.75,-3.73,-3.68,-3.24,-3.25,-3.18
468.71,0.51,3.69,0.51,3.69,-3.71,-3.70,-3.68,-3.20,-3.20,-3.18
473.40,0.51,3.69,0.52,3.69,-3.67,-3.67,-3.67,-3.16,-3.15,-3.18
478.13,0.51,3.68,0.52,3.70,-3.63,-3.63,-3.66,-3.12,-3.11,-3.17
482.91,0.51,3.68,0.49,3.66,-3.60,-3.60,-3.66,-3.09,-3.11,-3.17
487.74,0.46,3.62,0.43,3.59,-3.57,-3.57,-3.64,-3.11,-3.14,-3.16
492.62,0.32,3.47,0.36,3.51,-3.55,-3.54,-3.63,-3.22,-3.19,-3.15
497.55,0.28,3.43,0.30,3.44,-3.51,-3.51,-3.61,-3.23,-3.21,-3.15
502.52,0.28,3.42,0.27,3.41,-3.47,-3.48,-3.59,-3.18,-3.20,-3.14
507.55,0.28,3.42,0.28,3.42,-3.42,-3.44,-3.57,-3.13,-3.13,-3.13
512.62,0.28,3.42,0.29,3.42,-3.37,-3.41,-3.54,-3.08,-3.07,-3.14
