frequency,raw,error,smoothed,error_smoothed,equalization,parametric_eq,fixed_band_eq,equalized_raw,equalized_smoothed,target
20.00,-23.15,-22.04,-23.14,-22.04,6.00,5.84,2.63,-17.15,-17.14,-1.10
20.20,-23.02,-21.95,-23.02,-21.96,6.00,5.86,2.70,-17.02,-17.02,-1.06
20.40,-22.90,-21.87,-22.90,-21.87,6.00,5.88,2.78,-16.90,-16.90,-1.02
20.61,-22.77,-21.77,-22.77,-21.78,6.00,5.90,2.85,-16.77,-16.77,-1.01
20.81,-22.64,-21.67,-22.64,-21.68,6.00,5.91,2.94,-16.64,-16.64,-0.96
21.02,-22.51,-21.58,-22.50,-21.56,6.00,5.93,3.02,-16.51,-16.50,-0.93
21.23,-22.35,-21.43,-22.35,-21.44,6.00,5.94,3.10,-16.35,-16.35,-0.92
21.44,-22.19,-21.29,-22.19,-21.29,6.00,5.96,3.19,-16.19,-16.19,-0.90
21.66,-22.03,-21.15,-22.02,-21.13,6.00,5.97,3.28,-16.03,-16.02,-0.89
21.87,-21.86,-20.97,-21.86,-20.98,6.00,5.99,3.38,-15.86,-15.86,-0.89
22.09,-21.71,-20.83,-21.71,-20.83,6.00,6.00,3.47,-15.71,-15.71,-0.88
22.31,-21.57,-20.69,-21.57,-20.69,6.00,6.01,3.57,-15.57,-15.57,-0.88
22.54,-21.43,-20.55,-21.43,-20.55,6.00,6.02,3.67,-15.43,-15.43,-0.88
22.76,-21.29,-20.40,-21.29,-20.40,6.00,6.03,3.77,-15.29,-15.29,-0.89
22.99,-21.15,-20.25,-21.15,-20.26,6.00,6.04,3.88,-15.15,-15.15,-0.90
23.22,-21.02,-20.12,-21.02,-20.12,6.00,6.05,3.99,-15.02,-15.02,-0.90
23.45,-20.89,-19.98,-20.89,-19.99,6.00,6.06,4.10,-14.89,-14.89,-0.91
23.69,-20.77,-19.86,-20.77,-19.86,6.00,6.07,4.21,-14.77,-14.77,-0.91
23.92,-20.64,-19.73,-20.63,-19.72,6.00,6.07,4.33,-14.64,-14.63,-0.91
24.16,-20.48,-19.58,-20.47,-19.57,6.00,6.08,4.45,-14.48,-14.47,-0.90
24.40,-20.29,-19.39,-20.29,-19.39,6.00,6.09,4.57,-14.29,-14.29,-0.90
24.65,-20.11,-19.20,-20.11,-19.20,6.00,6.09,4.69,-14.11,-14.11,-0.91
24.89,-19.93,-19.02,-19.93,-19.02,6.00,6.10,4.81,-13.93,-13.93,-0.91
25.14,-19.78,-18.87,-19.78,-18.87,6.00,6.10,4.94,-13.78,-13.78,-0.91
25.39,-19.65,-18.73,-19.65,-18.73,6.00,6.11,5.06,-13.65,-13.65,-0.91
25.65,-19.53,-18.61,-19.53,-18.60,6.00,6.11,5.19,-13.53,-13.53,-0.92
25.91,-19.41,-18.48,-19.41,-18.48,6.00,6.11,5.31,-13.41,-13.41,-0.93
26.16,-19.30,-18.36,-19.30,-18.37,6.00,6.11,5.44,-13.30,-13.30,-0.93
26.43,-19.20,-18.27,-19.21,-18.27,6.00,6.11,5.57,-13.20,-13.21,-0.93
26.69,-19.10,-18.16,-19.11,-18.17,6.00,6.11,5.69,-13.10,-13.11,-0.94
26.96,-19.00,-18.05,-18.97,-18.03,6.00,6.11,5.82,-13.00,-12.97,-0.95
27.23,-18.80,-17.86,-18.80,-17.85,6.00,6.11,5.94,-12.80,-12.80,-0.95
27.50,-18.58,-17.63,-18.59,-17.63,6.00,6.11,6.06,-12.58,-12.59,-0.95
27.77,-18.37,-17.41,-18.37,-17.41,6.00,6.11,6.18,-12.37,-12.37,-0.96
28.05,-18.16,-17.20,-18.18,-17.22,6.00,6.11,6.29,-12.16,-12.18,-0.96
28.33,-18.03,-17.06,-18.02,-17.05,6.00,6.11,6.40,-12.03,-12.02,-0.97
28.62,-17.89,-16.92,-17.88,-16.91,6.00,6.10,6.50,-11.89,-11.88,-0.97
28.90,-17.76,-16.79,-17.76,-16.79,6.00,6.10,6.60,-11.76,-11.76,-0.97
29.19,-17.64,-16.67,-17.64,-16.67,6.00,6.10,6.69,-11.64,-11.64,-0.97
29.48,-17.53,-16.57,-17.54,-16.57,6.00,6.09,6.77,-11.53,-11.54,-0.96
29.78,-17.43,-16.46,-17.42,-16.45,6.00,6.09,6.85,-11.43,-11.42,-0.97
30.08,-17.30,-16.34,-17.28,-16.31,6.00,6.08,6.91,-11.30,-11.28,-0.97
30.38,-17.11,-16.13,-17.11,-16.13,6.00,6.08,6.97,-11.11,-11.11,-0.99
30.68,-16.93,-15.94,-16.93,-15.94,6.00,6.07,7.02,-10.93,-10.93,-0.99
30.99,-16.74,-15.74,-16.76,-15.76,6.00,6.07,7.06,-10.74,-10.76,-1.00
31.30,-16.61,-15.61,-16.61,-15.61,6.00,6.06,7.09,-10.61,-10.61,-1.00
31.61,-16.48,-15.48,-16.47,-15.46,6.00,6.06,7.11,-10.48,-10.47,-1.00
31.93,-16.35,-15.33,-16.35,-15.33,6.00,6.05,7.12,-10.35,-10.35,-1.02
32.24,-16.22,-15.18,-16.22,-15.19,6.00,6.04,7.13,-10.22,-10.22,-1.03
32.57,-16.10,-15.07,-16.10,-15.06,6.00,6.04,7.12,-10.10,-10.10,-1.03
32.89,-15.97,-14.92,-15.97,-14.92,6.00,6.03,7.11,-9.97,-9.97,-1.05
33.22,-15.85,-14.78,-15.85,-14.79,6.00,6.02,7.08,-9.85,-9.85,-1.07
33.55,-15.72,-14.65,-15.72,-14.65,6.00,6.02,7.05,-9.72,-9.72,-1.07
33.89,-15.60,-14.51,-15.59,-14.51,6.00,6.01,7.02,-9.60,-9.59,-1.09
34.23,-15.46,-14.37,-15.46,-14.36,6.00,6.00,6.98,-9.46,-9.46,-1.09
34.57,-15.31,-14.19,-15.31,-14.20,6.00,5.99,6.93,-9.31,-9.31,-1.11
34.92,-15.16,-14.03,-15.16,-14.04,6.00,5.99,6.88,-9.16,-9.16,-1.13
35.27,-15.01,-13.88,-15.01,-13.87,6.00,5.98,6.82,-9.01,-9.01,-1.13
35.62,-14.87,-13.72,-14.87,-13.72,6.00,5.97,6.77,-8.87,-8.87,-1.15
35.97,-14.73,-13.57,-14.73,-13.57,6.00,5.97,6.71,-8.73,-8.73,-1.16
36.33,-14.61,-13.44,-14.60,-13.43,6.00,5.96,6.64,-8.61,-8.60,-1.16
36.70,-14.48,-13.30,-14.48,-13.30,6.00,5.95,6.58,-8.48,-8.48,-1.18
37.06,-14.37,-13.18,-14.38,-13.19,6.00,5.95,6.52,-8.37,-8.38,-1.19
37.43,-14.28,-13.10,-14.28,-13.09,6.00,5.94,6.46,-8.28,-8.28,-1.18
37.81,-14.20,-13.01,-14.19,-13.00,6.00,5.93,6.40,-8.20,-8.19,-1.19
38.19,-14.10,-12.89,-14.09,-12.90,6.00,5.93,6.34,-8.10,-8.09,-1.21
38.57,-13.98,-12.78,-13.98,-12.78,6.00,5.92,6.28,-7.98,-7.98,-1.20
38.95,-13.86,-12.64,-13.86,-12.65,6.00,5.92,6.22,-7.86,-7.86,-1.21
39.34,-13.73,-12.51,-13.73,-12.51,6.00,5.91,6.17,-7.73,-7.73,-1.22
39.74,-13.59,-12.36,-13.59,-12.37,6.00,5.91,6.12,-7.59,-7.59,-1.23
40.14,-13.45,-12.22,-13.44,-12.21,6.00,5.90,6.07,-7.45,-7.44,-1.23
40.54,-13.29,-12.06,-13.29,-12.05,6.00,5.90,6.03,-7.29,-7.29,-1.24
40.94,-13.13,-11.89,-13.15,-11.91,6.00,5.90,5.99,-7.13,-7.15,-1.24
41.35,-13.03,-11.78,-13.03,-11.78,6.00,5.90,5.95,-7.03,-7.03,-1.25
41.76,-12.93,-11.66,-12.91,-11.65,6.00,5.89,5.92,-6.93,-6.91,-1.27
42.18,-12.78,-11.51,-12.76,-11.49,6.00,5.89,5.89,-6.78,-6.76,-1.27
42.60,-12.58,-11.29,-12.58,-11.30,6.00,5.89,5.87,-6.58,-6.58,-1.28
43.03,-12.39,-11.10,-12.41,-11.12,6.00,5.89,5.85,-6.39,-6.41,-1.29
43.46,-12.26,-10.95,-12.26,-10.94,6.00,5.89,5.83,-6.26,-6.26,-1.31
43.90,-12.13,-10.79,-12.12,-10.79,6.00,5.89,5.82,-6.13,-6.12,-1.34
44.33,-12.00,-10.65,-12.00,-10.64,6.00,5.89,5.81,-6.00,-6.00,-1.35
44.78,-11.87,-10.49,-11.88,-10.50,6.00,5.90,5.81,-5.87,-5.88,-1.38
45.23,-11.76,-10.37,-11.77,-10.38,6.00,5.90,5.81,-5.76,-5.77,-1.39
45.68,-11.67,-10.26,-11.66,-10.25,6.00,5.90,5.82,-5.67,-5.66,-1.41
46.13,-11.54,-10.11,-11.51,-10.09,6.00,5.91,5.83,-5.54,-5.51,-1.42
46.60,-11.35,-9.92,-11.35,-9.93,6.00,5.91,5.85,-5.35,-5.35,-1.43
47.06,-11.17,-9.73,-11.21,-9.77,6.00,5.92,5.87,-5.17,-5.21,-1.43
47.53,-11.08,-9.64,-11.08,-9.64,6.00,5.93,5.89,-5.08,-5.08,-1.44
48.01,-10.99,-9.54,-10.96,-9.51,6.00,5.93,5.92,-4.99,-4.96,-1.45
48.49,-10.84,-9.38,-10.84,-9.38,6.00,5.94,5.95,-4.84,-4.84,-1.46
48.97,-10.70,-9.22,-10.72,-9.24,6.00,5.95,5.98,-4.70,-4.72,-1.48
49.46,-10.60,-9.11,-10.60,-9.11,6.00,5.96,6.02,-4.60,-4.60,-1.49
49.96,-10.50,-9.00,-10.47,-8.97,6.00,5.97,6.06,-4.50,-4.47,-1.50
50.46,-10.34,-8.85,-10.34,-8.84,6.00,5.98,6.11,-4.34,-4.34,-1.49
50.96,-10.18,-8.68,-10.21,-8.71,6.00,5.99,6.15,-4.18,-4.21,-1.50
51.47,-10.11,-8.60,-10.10,-8.60,6.00,6.00,6.20,-4.11,-4.10,-1.51
51.99,-10.04,-8.52,-10.04,-8.52,6.00,6.01,6.25,-4.04,-4.04,-1.52
52.51,-9.98,-8.46,-9.98,-8.47,6.00,6.02,6.30,-3.98,-3.98,-1.52
53.03,-9.93,-8.41,-9.92,-8.40,6.00,6.04,6.35,-3.93,-3.92,-1.51
53.56,-9.86,-8.33,-9.85,-8.33,6.00,6.05,6.40,-3.86,-3.85,-1.52
54.10,-9.78,-8.25,-9.77,-8.24,6.00,6.06,6.45,-3.78,-3.77,-1.53
54.64,-9.70,-8.17,-9.73,-8.19,6.00,6.07,6.50,-3.70,-3.73,-1.53
55.18,-9.67,-8.13,-9.73,-8.18,6.00,6.08,6.55,-3.67,-3.73,-1.54
55.74,-9.75,-8.19,-9.67,-8.12,6.00,6.09,6.59,-3.75,-3.67,-1.56
56.29,-9.64,-8.08,-9.56,-8.00,6.00,6.10,6.63,-3.64,-3.56,-1.56
56.86,-9.34,-7.76,-9.44,-7.86,6.00,6.11,6.67,-3.34,-3.44,-1.58
57.42,-9.28,-7.69,-9.32,-7.73,6.00,6.12,6.70,-3.28,-3.32,-1.59
58.00,-9.30,-7.70,-9.27,-7.67,6.00,6.13,6.72,-3.30,-3.27,-1.60
58.58,-9.27,-7.65,-9.24,-7.63,6.00,6.14,6.75,-3.27,-3.24,-1.62
59.16,-9.19,-7.56,-9.16,-7.53,6.00,6.14,6.76,-3.19,-3.16,-1.63
59.76,-9.01,-7.36,-9.06,-7.41,6.00,6.15,6.76,-3.01,-3.06,-1.65
60.35,-8.93,-7.25,-8.96,-7.28,6.00,6.15,6.76,-2.93,-2.96,-1.68
60.96,-8.92,-7.22,-8.85,-7.15,6.00,6.15,6.75,-2.92,-2.85,-1.70
61.57,-8.76,-7.01,-8.76,-7.02,6.00,6.15,6.73,-2.76,-2.76,-1.75
62.18,-8.63,-6.85,-8.66,-6.88,6.00,6.14,6.70,-2.63,-2.66,-1.78
62.80,-8.58,-6.76,-8.58,-6.76,6.00,6.13,6.66,-2.58,-2.58,-1.82
63.43,-8.54,-6.69,-8.54,-6.69,6.00,6.12,6.62,-2.54,-2.54,-1.85
64.07,-8.52,-6.63,-8.52,-6.63,6.00,6.11,6.56,-2.52,-2.52,-1.89
64.71,-8.48,-6.55,-8.45,-6.52,6.01,6.09,6.49,-2.47,-2.44,-1.93
65.35,-8.38,-6.42,-8.36,-6.40,6.01,6.07,6.42,-2.37,-2.35,-1.96
66.01,-8.21,-6.22,-8.28,-6.28,6.01,6.05,6.33,-2.20,-2.27,-1.99
66.67,-8.22,-6.19,-8.19,-6.16,6.00,6.02,6.24,-2.22,-2.18,-2.03
67.33,-8.17,-6.11,-8.14,-6.08,5.99,5.99,6.14,-2.18,-2.15,-2.06
68.01,-8.07,-5.97,-8.14,-6.03,5.97,5.95,6.04,-2.10,-2.17,-2.10
68.69,-8.15,-6.01,-8.11,-5.97,5.95,5.91,5.93,-2.20,-2.17,-2.14
69.37,-8.13,-5.94,-8.10,-5.92,5.91,5.86,5.81,-2.22,-2.19,-2.19
70.07,-8.06,-5.83,-8.10,-5.87,5.88,5.81,5.69,-2.18,-2.22,-2.23
70.77,-8.08,-5.82,-8.07,-5.81,5.84,5.75,5.56,-2.24,-2.24,-2.26
71.48,-8.08,-5.78,-8.07,-5.77,5.79,5.69,5.43,-2.28,-2.28,-2.30
72.19,-8.08,-5.73,-8.08,-5.73,5.75,5.63,5.30,-2.33,-2.33,-2.35
72.91,-8.08,-5.68,-8.09,-5.69,5.70,5.56,5.16,-2.38,-2.39,-2.40
73.64,-8.09,-5.64,-8.09,-5.65,5.64,5.48,5.02,-2.45,-2.46,-2.45
74.38,-8.09,-5.60,-8.08,-5.59,5.57,5.40,4.89,-2.52,-2.51,-2.49
75.12,-8.06,-5.52,-8.05,-5.52,5.49,5.32,4.75,-2.57,-2.57,-2.54
75.87,-7.98,-5.41,-8.00,-5.42,5.40,5.23,4.61,-2.58,-2.60,-2.57
76.63,-7.93,-5.32,-7.91,-5.30,5.30,5.14,4.47,-2.63,-2.61,-2.61
77.40,-7.82,-5.17,-7.81,-5.16,5.19,5.04,4.33,-2.63,-2.62,-2.65
78.17,-7.69,-5.00,-7.72,-5.04,5.07,4.94,4.19,-2.62,-2.65,-2.69
78.95,-7.62,-4.90,-7.64,-4.92,4.94,4.83,4.05,-2.68,-2.70,-2.72
79.74,-7.59,-4.84,-7.56,-4.81,4.80,4.73,3.91,-2.79,-2.76,-2.74
80.54,-7.48,-4.70,-7.46,-4.69,4.65,4.62,3.78,-2.82,-2.81,-2.77
81.35,-7.33,-4.52,-7.34,-4.54,4.51,4.50,3.64,-2.82,-2.83,-2.81
82.16,-7.19,-4.35,-7.20,-4.37,4.37,4.39,3.51,-2.82,-2.83,-2.84
82.98,-7.08,-4.22,-7.06,-4.19,4.22,4.27,3.38,-2.86,-2.84,-2.86
83.81,-6.93,-4.03,-6.93,-4.03,4.07,4.15,3.25,-2.86,-2.86,-2.90
84.65,-6.80,-3.87,-6.82,-3.89,3.91,4.02,3.12,-2.89,-2.92,-2.93
85.50,-6.72,-3.76,-6.71,-3.75,3.74,3.90,2.99,-2.98,-2.97,-2.96
86.35,-6.63,-3.64,-6.61,-3.62,3.58,3.77,2.87,-3.05,-3.03,-2.99
87.22,-6.48,-3.45,-6.48,-3.45,3.42,3.65,2.75,-3.06,-3.06,-3.03
88.09,-6.33,-3.27,-6.33,-3.27,3.26,3.52,2.63,-3.07,-3.07,-3.06
88.97,-6.16,-3.07,-6.18,-3.09,3.12,3.39,2.51,-3.04,-3.06,-3.09
89.86,-6.08,-2.96,-6.05,-2.93,2.97,3.26,2.39,-3.11,-3.08,-3.12
90.76,-5.93,-2.77,-5.95,-2.80,2.84,3.13,2.28,-3.09,-3.12,-3.16
91.66,-5.87,-2.68,-5.88,-2.69,2.71,3.00,2.17,-3.16,-3.18,-3.18
92.58,-5.84,-2.62,-5.81,-2.59,2.58,2.87,2.06,-3.26,-3.22,-3.22
93.51,-5.74,-2.49,-5.75,-2.50,2.46,2.74,1.95,-3.27,-3.28,-3.25
94.44,-5.65,-2.37,-5.67,-2.39,2.36,2.61,1.84,-3.29,-3.31,-3.28
95.39,-5.59,-2.29,-5.57,-2.26,2.25,2.49,1.74,-3.34,-3.31,-3.30
96.34,-5.48,-2.14,-5.48,-2.14,2.15,2.36,1.63,-3.33,-3.33,-3.34
97.30,-5.37,-2.00,-5.40,-2.03,2.05,2.23,1.53,-3.32,-3.35,-3.37
98.28,-5.33,-1.93,-5.31,-1.92,1.94,2.11,1.43,-3.39,-3.37,-3.40
99.26,-5.26,-1.84,-5.25,-1.83,1.83,1.98,1.34,-3.43,-3.42,-3.42
100.25,-5.18,-1.73,-5.20,-1.75,1.72,1.86,1.24,-3.46,-3.48,-3.45
101.25,-5.13,-1.65,-5.13,-1.65,1.62,1.73,1.14,-3.51,-3.51,-3.48
102.27,-5.07,-1.56,-5.04,-1.53,1.51,1.61,1.05,-3.56,-3.53,-3.51
103.29,-4.94,-1.38,-4.94,-1.40,1.41,1.49,0.96,-3.53,-3.54,-3.55
104.32,-4.83,-1.25,-4.86,-1.28,1.30,1.37,0.87,-3.53,-3.56,-3.57
105.37,-4.79,-1.18,-4.79,-1.18,1.20,1.26,0.78,-3.59,-3.59,-3.61
106.42,-4.77,-1.13,-4.74,-1.10,1.10,1.14,0.69,-3.67,-3.64,-3.64
107.48,-4.69,-1.01,-4.70,-1.01,1.01,1.03,0.61,-3.68,-3.69,-3.68
108.56,-4.63,-0.91,-4.63,-0.91,0.93,0.91,0.53,-3.70,-3.71,-3.72
109.64,-4.58,-0.82,-4.57,-0.81,0.85,0.80,0.45,-3.73,-3.72,-3.76
110.74,-4.52,-0.73,-4.55,-0.76,0.76,0.69,0.37,-3.76,-3.79,-3.79
111.85,-4.52,-0.70,-4.52,-0.70,0.67,0.59,0.29,-3.85,-3.85,-3.82
112.97,-4.53,-0.66,-4.49,-0.63,0.58,0.48,0.21,-3.95,-3.91,-3.87
114.10,-4.41,-0.52,-4.42,-0.52,0.48,0.38,0.14,-3.93,-3.93,-3.89
115.24,-4.31,-0.38,-4.32,-0.39,0.39,0.27,0.07,-3.92,-3.93,-3.92
116.39,-4.20,-0.25,-4.21,-0.26,0.29,0.17,-0.00,-3.91,-3.92,-3.95
117.55,-4.14,-0.16,-4.13,-0.15,0.19,0.07,-0.07,-3.95,-3.94,-3.98
118.73,-4.06,-0.05,-4.08,-0.07,0.09,-0.02,-0.14,-3.97,-3.99,-4.01
119.92,-4.02,-0.00,-4.03,-0.00,-0.00,-0.12,-0.20,-4.02,-4.03,-4.01
121.12,-4.00,0.04,-3.95,0.08,-0.09,-0.21,-0.26,-4.09,-4.04,-4.04
122.33,-3.87,0.19,-3.89,0.17,-0.17,-0.30,-0.32,-4.04,-4.05,-4.06
123.55,-3.79,0.27,-3.83,0.25,-0.25,-0.40,-0.38,-4.04,-4.07,-4.06
124.79,-3.78,0.31,-3.76,0.32,-0.33,-0.48,-0.43,-4.11,-4.09,-4.09
126.03,-3.74,0.37,-3.71,0.39,-0.41,-0.57,-0.49,-4.15,-4.12,-4.10
127.29,-3.63,0.49,-3.66,0.46,-0.49,-0.66,-0.54,-4.12,-4.15,-4.12
128.57,-3.56,0.58,-3.57,0.57,-0.58,-0.74,-0.59,-4.13,-4.14,-4.14
129.85,-3.53,0.63,-3.47,0.68,-0.65,-0.82,-0.63,-4.18,-4.13,-4.16
131.15,-3.35,0.82,-3.40,0.76,-0.73,-0.90,-0.68,-4.08,-4.14,-4.17
132.46,-3.35,0.83,-3.36,0.82,-0.81,-0.98,-0.72,-4.16,-4.17,-4.18
133.79,-3.34,0.84,-3.32,0.87,-0.88,-1.06,-0.77,-4.22,-4.20,-4.18
135.12,-3.33,0.89,-3.28,0.92,-0.94,-1.13,-0.81,-4.27,-4.23,-4.21
136.48,-3.19,1.03,-3.22,1.01,-1.01,-1.21,-0.85,-4.19,-4.22,-4.22
137.84,-3.13,1.11,-3.16,1.08,-1.06,-1.28,-0.89,-4.19,-4.22,-4.24
139.22,-3.13,1.14,-3.12,1.14,-1.12,-1.35,-0.93,-4.25,-4.24,-4.27
140.61,-3.13,1.16,-3.10,1.17,-1.18,-1.42,-0.97,-4.31,-4.29,-4.29
142.02,-3.06,1.22,-3.06,1.23,-1.25,-1.49,-1.00,-4.31,-4.31,-4.28
143.44,-2.99,1.31,-3.00,1.31,-1.33,-1.55,-1.04,-4.32,-4.32,-4.30
144.87,-2.93,1.40,-2.93,1.39,-1.40,-1.62,-1.08,-4.33,-4.34,-4.33
146.32,-2.88,1.48,-2.88,1.47,-1.48,-1.68,-1.11,-4.36,-4.36,-4.36
147.78,-2.84,1.54,-2.82,1.56,-1.56,-1.74,-1.15,-4.40,-4.39,-4.38
149.26,-2.77,1.65,-2.78,1.65,-1.65,-1.80,-1.19,-4.41,-4.42,-4.42
150.75,-2.73,1.74,-2.74,1.72,-1.72,-1.86,-1.22,-4.45,-4.46,-4.47
152.26,-2.73,1.79,-2.72,1.80,-1.78,-1.92,-1.26,-4.51,-4.50,-4.52
153.78,-2.72,1.85,-2.71,1.86,-1.83,-1.98,-1.30,-4.55,-4.54,-4.57
155.32,-2.72,1.91,-2.73,1.90,-1.86,-2.03,-1.34,-4.58,-4.59,-4.63
156.88,-2.76,1.93,-2.76,1.93,-1.89,-2.09,-1.38,-4.65,-4.65,-4.69
158.44,-2.82,1.94,-2.83,1.92,-1.92,-2.14,-1.42,-4.74,-4.75,-4.76
160.03,-2.90,1.92,-2.90,1.92,-1.95,-2.19,-1.46,-4.85,-4.85,-4.82
161.63,-2.97,1.90,-2.93,1.94,-2.00,-2.24,-1.50,-4.96,-4.93,-4.87
163.24,-2.92,2.01,-2.93,2.00,-2.05,-2.29,-1.54,-4.97,-4.98,-4.93
164.88,-2.86,2.10,-2.88,2.09,-2.13,-2.34,-1.59,-4.99,-5.00,-4.96
166.53,-2.81,2.19,-2.79,2.21,-2.21,-2.39,-1.64,-5.02,-5.00,-5.00
168.19,-2.70,2.33,-2.71,2.32,-2.31,-2.43,-1.68,-5.01,-5.02,-5.03
169.87,-2.60,2.46,-2.62,2.43,-2.41,-2.48,-1.73,-5.01,-5.04,-5.06
171.57,-2.56,2.52,-2.52,2.55,-2.51,-2.52,-1.78,-5.07,-5.04,-5.07
173.29,-2.44,2.64,-2.45,2.63,-2.61,-2.57,-1.84,-5.05,-5.06,-5.08
175.02,-2.36,2.73,-2.39,2.70,-2.69,-2.61,-1.89,-5.04,-5.08,-5.09
176.77,-2.37,2.73,-2.34,2.76,-2.75,-2.66,-1.94,-5.12,-5.09,-5.09
178.54,-2.29,2.81,-2.30,2.79,-2.80,-2.70,-2.00,-5.09,-5.10,-5.10
180.32,-2.26,2.83,-2.25,2.84,-2.85,-2.74,-2.06,-5.11,-5.10,-5.09
182.13,-2.20,2.88,-2.20,2.89,-2.88,-2.78,-2.12,-5.08,-5.08,-5.08
183.95,-2.15,2.93,-2.16,2.92,-2.91,-2.83,-2.18,-5.06,-5.08,-5.08
185.79,-2.14,2.95,-2.13,2.96,-2.95,-2.87,-2.25,-5.09,-5.08,-5.09
187.65,-2.12,2.98,-2.12,2.98,-2.98,-2.91,-2.31,-5.10,-5.10,-5.10
189.52,-2.10,3.00,-2.11,3.00,-3.02,-2.95,-2.38,-5.12,-5.13,-5.10
191.42,-2.09,3.03,-2.07,3.05,-3.06,-2.99,-2.44,-5.15,-5.13,-5.12
193.33,-2.03,3.10,-2.03,3.10,-3.11,-3.04,-2.51,-5.14,-5.14,-5.13
195.27,-1.97,3.17,-1.99,3.15,-3.16,-3.08,-2.58,-5.13,-5.15,-5.14
197.22,-1.95,3.21,-1.95,3.21,-3.21,-3.13,-2.65,-5.16,-5.16,-5.16
199.19,-1.94,3.24,-1.91,3.26,-3.26,-3.17,-2.73,-5.20,-5.17,-5.18
201.18,-1.87,3.32,-1.87,3.32,-3.31,-3.22,-2.80,-5.18,-5.18,-5.19
203.19,-1.82,3.38,-1.84,3.37,-3.36,-3.27,-2.87,-5.18,-5.20,-5.20
205.23,-1.82,3.41,-1.82,3.40,-3.40,-3.31,-2.95,-5.22,-5.22,-5.23
207.28,-1.82,3.41,-1.81,3.43,-3.44,-3.36,-3.02,-5.26,-5.26,-5.23
209.35,-1.82,3.44,-1.79,3.47,-3.48,-3.41,-3.09,-5.30,-5.28,-5.26
211.44,-1.75,3.53,-1.76,3.51,-3.51,-3.46,-3.17,-5.26,-5.28,-5.28
213.56,-1.73,3.56,-1.74,3.55,-3.54,-3.50,-3.24,-5.27,-5.28,-5.29
215.69,-1.73,3.57,-1.73,3.57,-3.56,-3.54,-3.31,-5.29,-5.28,-5.30
217.85,-1.74,3.57,-1.73,3.58,-3.57,-3.57,-3.38,-5.31,-5.30,-5.31
220.03,-1.74,3.58,-1.74,3.58,-3.58,-3.60,-3.45,-5.32,-5.32,-5.32
222.23,-1.74,3.59,-1.74,3.58,-3.59,-3.62,-3.51,-5.33,-5.33,-5.33
224.45,-1.74,3.58,-1.74,3.58,-3.59,-3.64,-3.57,-5.33,-5.33,-5.32
226.70,-1.74,3.58,-1.74,3.58,-3.58,-3.64,-3.63,-5.32,-5.32,-5.31
228.96,-1.74,3.57,-1.74,3.57,-3.58,-3.63,-3.69,-5.32,-5.31,-5.31
231.25,-1.73,3.57,-1.73,3.57,-3.57,-3.62,-3.74,-5.30,-5.30,-5.30
233.57,-1.72,3.56,-1.72,3.57,-3.56,-3.61,-3.79,-5.28,-5.28,-5.28
235.90,-1.71,3.56,-1.71,3.56,-3.56,-3.58,-3.83,-5.27,-5.26,-5.27
238.26,-1.69,3.56,-1.69,3.55,-3.55,-3.56,-3.87,-5.24,-5.24,-5.25
240.64,-1.68,3.54,-1.68,3.54,-3.54,-3.53,-3.91,-5.22,-5.22,-5.22
243.05,-1.67,3.52,-1.66,3.53,-3.54,-3.50,-3.93,-5.21,-5.20,-5.19
245.48,-1.64,3.52,-1.64,3.52,-3.53,-3.48,-3.96,-5.17,-5.17,-5.16
247.93,-1.61,3.53,-1.62,3.52,-3.52,-3.45,-3.97,-5.13,-5.14,-5.14
250.41,-1.60,3.52,-1.59,3.52,-3.51,-3.42,-3.98,-5.11,-5.11,-5.12
252.92,-1.58,3.51,-1.58,3.51,-3.51,-3.40,-3.99,-5.09,-5.09,-5.09
255.45,-1.57,3.49,-1.57,3.50,-3.50,-3.37,-3.99,-5.07,-5.07,-5.06
258.00,-1.56,3.49,-1.56,3.49,-3.49,-3.35,-3.98,-5.04,-5.04,-5.04
260.58,-1.55,3.48,-1.55,3.47,-3.47,-3.33,-3.97,-5.02,-5.02,-5.03
263.19,-1.55,3.45,-1.55,3.46,-3.45,-3.30,-3.95,-5.00,-5.00,-5.00
265.82,-1.55,3.44,-1.55,3.43,-3.43,-3.28,-3.93,-4.98,-4.98,-4.99
268.48,-1.56,3.40,-1.55,3.41,-3.41,-3.27,-3.90,-4.96,-4.96,-4.96
271.16,-1.56,3.37,-1.56,3.38,-3.38,-3.25,-3.87,-4.94,-4.94,-4.93
273.87,-1.56,3.36,-1.56,3.35,-3.35,-3.23,-3.83,-4.91,-4.92,-4.92
276.61,-1.57,3.32,-1.57,3.33,-3.33,-3.21,-3.79,-4.90,-4.89,-4.89
279.38,-1.57,3.29,-1.57,3.30,-3.30,-3.20,-3.75,-4.87,-4.87,-4.86
282.17,-1.56,3.29,-1.56,3.28,-3.28,-3.18,-3.71,-4.84,-4.84,-4.85
284.99,-1.56,3.25,-1.56,3.25,-3.25,-3.16,-3.66,-4.81,-4.81,-4.81
287.84,-1.55,3.23,-1.55,3.23,-3.23,-3.15,-3.61,-4.78,-4.78,-4.78
290.72,-1.54,3.21,-1.54,3.21,-3.21,-3.13,-3.56,-4.75,-4.75,-4.74
293.63,-1.53,3.19,-1.53,3.19,-3.20,-3.12,-3.50,-4.73,-4.72,-4.72
296.57,-1.51,3.17,-1.51,3.17,-3.18,-3.10,-3.45,-4.69,-4.69,-4.68
299.53,-1.50,3.16,-1.50,3.16,-3.16,-3.09,-3.40,-4.66,-4.66,-4.66
302.53,-1.49,3.15,-1.49,3.14,-3.14,-3.07,-3.34,-4.63,-4.63,-4.63
305.55,-1.48,3.12,-1.48,3.13,-3.12,-3.05,-3.29,-4.60,-4.60,-4.60
308.61,-1.47,3.11,-1.47,3.11,-3.10,-3.04,-3.23,-4.57,-4.57,-4.58
311.69,-1.46,3.10,-1.47,3.08,-3.07,-3.02,-3.18,-4.53,-4.55,-4.56
314.81,-1.49,3.03,-1.50,3.04,-3.04,-3.01,-3.13,-4.53,-4.54,-4.52
317.96,-1.54,2.98,-1.52,2.99,-3.00,-2.99,-3.08,-4.54,-4.52,-4.51
321.14,-1.56,2.94,-1.55,2.95,-2.96,-2.98,-3.03,-4.51,-4.51,-4.50
324.35,-1.56,2.93,-1.59,2.90,-2.90,-2.96,-2.98,-4.46,-4.49,-4.49
327.59,-1.64,2.83,-1.63,2.85,-2.83,-2.95,-2.93,-4.47,-4.46,-4.47
330.87,-1.70,2.76,-1.69,2.77,-2.76,-2.93,-2.89,-4.45,-4.44,-4.46
334.18,-1.75,2.70,-1.77,2.69,-2.67,-2.91,-2.84,-4.42,-4.43,-4.45
337.52,-1.85,2.60,-1.84,2.60,-2.57,-2.90,-2.80,-4.42,-4.41,-4.44
340.90,-1.94,2.49,-1.94,2.49,-2.47,-2.88,-2.76,-4.41,-4.41,-4.43
344.30,-2.04,2.38,-2.05,2.37,-2.37,-2.86,-2.72,-4.41,-4.42,-4.42
347.75,-2.16,2.25,-2.15,2.26,-2.28,-2.85,-2.69,-4.43,-4.42,-4.41
351.23,-2.25,2.15,-2.24,2.16,-2.19,-2.83,-2.65,-4.44,-4.43,-4.40
354.74,-2.29,2.11,-2.30,2.09,-2.12,-2.82,-2.62,-4.41,-4.43,-4.40
358.28,-2.35,2.04,-2.34,2.05,-2.07,-2.80,-2.59,-4.42,-4.41,-4.39
361.87,-2.36,2.03,-2.35,2.04,-2.04,-2.78,-2.56,-4.40,-4.40,-4.39
365.49,-2.35,2.04,-2.36,2.03,-2.04,-2.77,-2.53,-4.39,-4.40,-4.38
369.14,-2.34,2.05,-2.35,2.04,-2.04,-2.75,-2.51,-4.38,-4.40,-4.39
372.83,-2.34,2.05,-2.32,2.07,-2.06,-2.73,-2.49,-4.40,-4.38,-4.39
376.56,-2.29,2.10,-2.27,2.11,-2.09,-2.72,-2.47,-4.38,-4.36,-4.39
380.33,-2.18,2.19,-2.23,2.15,-2.13,-2.70,-2.45,-4.31,-4.36,-4.37
384.13,-2.19,2.19,-2.19,2.19,-2.18,-2.68,-2.43,-4.37,-4.37,-4.38
387.97,-2.19,2.19,-2.16,2.22,-2.24,-2.67,-2.42,-4.43,-4.40,-4.38
391.85,-2.13,2.25,-2.13,2.25,-2.29,-2.65,-2.41,-4.42,-4.42,-4.38
395.77,-2.05,2.32,-2.05,2.32,-2.34,-2.64,-2.40,-4.39,-4.39,-4.37
399.73,-1.99,2.38,-1.96,2.42,-2.38,-2.62,-2.39,-4.37,-4.34,-4.37
403.72,-1.87,2.51,-1.90,2.48,-2.42,-2.60,-2.38,-4.29,-4.32,-4.38
