frequency,raw,error,smoothed,error_smoothed,equalization,parametric_eq,fixed_band_eq,equalized_raw,equalized_smoothed,target
20.00,14.25,10.45,14.25,10.45,-10.46,-10.10,-4.59,3.79,3.79,3.80
20.20,14.28,10.48,14.28,10.48,-10.48,-10.13,-4.71,3.80,3.80,3.80
20.40,14.32,10.51,14.32,10.51,-10.51,-10.16,-4.84,3.81,3.81,3.81
20.61,14.35,10.54,14.35,10.54,-10.53,-10.19,-4.97,3.82,3.82,3.81
20.81,14.38,10.57,14.38,10.57,-10.56,-10.23,-5.09,3.82,3.82,3.81
21.02,14.41,10.60,14.41,10.59,-10.58,-10.27,-5.23,3.83,3.82,3.81
21.23,14.43,10.61,14.43,10.62,-10.61,-10.30,-5.37,3.82,3.82,3.82
21.44,14.46,10.63,14.46,10.63,-10.64,-10.35,-5.51,3.82,3.82,3.83
21.66,14.48,10.65,14.48,10.65,-10.66,-10.40,-5.66,3.82,3.82,3.83
21.87,14.51,10.67,14.51,10.68,-10.69,-10.45,-5.81,3.82,3.83,3.84
22.09,14.54,10.71,14.54,10.71,-10.71,-10.50,-5.96,3.83,3.83,3.83
22.31,14.58,10.74,14.58,10.75,-10.74,-10.56,-6.12,3.84,3.83,3.84
22.54,14.61,10.78,14.61,10.78,-10.78,-10.63,-6.28,3.83,3.83,3.83
22.76,14.64,10.81,14.64,10.81,-10.81,-10.69,-6.45,3.83,3.83,3.83
22.99,14.67,10.84,14.67,10.84,-10.85,-10.76,-6.62,3.82,3.83,3.83
23.22,14.71,10.89,14.71,10.88,-10.88,-10.84,-6.79,3.83,3.82,3.82
23.45,14.74,10.92,14.74,10.92,-10.91,-10.92,-6.97,3.83,3.83,3.82
23.69,14.77,10.95,14.77,10.95,-10.94,-11.00,-7.16,3.83,3.83,3.82
23.92,14.80,10.98,14.80,10.98,-10.97,-11.08,-7.34,3.83,3.83,3.82
24.16,14.83,11.01,14.82,11.00,-11.00,-11.16,-7.54,3.83,3.83,3.82
24.40,14.84,11.01,14.84,11.02,-11.02,-11.23,-7.73,3.82,3.82,3.83
24.65,14.86,11.03,14.86,11.03,-11.04,-11.30,-7.93,3.82,3.82,3.83
24.89,14.88,11.05,14.88,11.05,-11.06,-11.37,-8.13,3.82,3.82,3.83
25.14,14.89,11.07,14.89,11.07,-11.07,-11.41,-8.34,3.82,3.82,3.82
25.39,14.90,11.08,14.90,11.09,-11.08,-11.46,-8.55,3.82,3.82,3.82
25.65,14.91,11.10,14.91,11.09,-11.09,-11.47,-8.76,3.82,3.82,3.81
25.91,14.91,11.10,14.91,11.09,-11.09,-11.48,-8.98,3.82,3.82,3.81
26.16,14.91,11.09,14.91,11.09,-11.09,-11.46,-9.19,3.82,3.82,3.82
26.43,14.90,11.08,14.90,11.08,-11.09,-11.43,-9.41,3.81,3.81,3.82
26.69,14.89,11.08,14.89,11.07,-11.08,-11.38,-9.63,3.81,3.81,3.81
26.96,14.87,11.06,14.87,11.06,-11.06,-11.32,-9.85,3.81,3.81,3.81
27.23,14.85,11.04,14.85,11.04,-11.04,-11.24,-10.06,3.81,3.81,3.81
27.50,14.82,11.01,14.82,11.01,-11.01,-11.16,-10.27,3.81,3.81,3.81
27.77,14.79,10.97,14.79,10.98,-10.98,-11.06,-10.48,3.81,3.81,3.81
28.05,14.76,10.95,14.76,10.95,-10.95,-10.97,-10.69,3.81,3.81,3.81
28.33,14.71,10.91,14.71,10.91,-10.91,-10.87,-10.88,3.80,3.81,3.80
28.62,14.67,10.87,14.67,10.86,-10.86,-10.77,-11.07,3.81,3.81,3.80
28.90,14.61,10.80,14.61,10.81,-10.81,-10.67,-11.24,3.80,3.80,3.81
29.19,14.55,10.74,14.55,10.75,-10.75,-10.57,-11.41,3.80,3.80,3.81
29.48,14.48,10.68,14.49,10.68,-10.69,-10.48,-11.56,3.79,3.80,3.79
29.78,14.42,10.63,14.41,10.62,-10.62,-10.39,-11.70,3.80,3.80,3.79
30.08,14.34,10.54,14.34,10.54,-10.54,-10.30,-11.82,3.80,3.80,3.80
30.38,14.25,10.46,14.26,10.46,-10.46,-10.21,-11.92,3.79,3.80,3.79
30.68,14.17,10.37,14.17,10.37,-10.37,-10.13,-12.00,3.80,3.80,3.80
30.99,14.08,10.29,14.08,10.28,-10.28,-10.04,-12.07,3.80,3.79,3.80
31.30,13.98,10.19,13.98,10.19,-10.19,-9.97,-12.11,3.79,3.80,3.79
31.61,13.88,10.08,13.88,10.09,-10.09,-9.89,-12.14,3.79,3.79,3.80
31.93,13.78,9.99,13.78,9.98,-9.98,-9.81,-12.13,3.80,3.79,3.79
32.24,13.67,9.87,13.67,9.88,-9.88,-9.74,-12.12,3.79,3.79,3.80
32.57,13.56,9.77,13.56,9.77,-9.77,-9.66,-12.08,3.79,3.80,3.79
32.89,13.45,9.66,13.45,9.66,-9.66,-9.59,-12.03,3.79,3.79,3.79
33.22,13.34,9.55,13.33,9.54,-9.54,-9.51,-11.96,3.80,3.79,3.79
33.55,13.21,9.42,13.22,9.43,-9.43,-9.44,-11.88,3.78,3.79,3.79
33.89,13.10,9.32,13.10,9.32,-9.32,-9.36,-11.78,3.78,3.78,3.78
34.23,12.98,9.21,12.98,9.21,-9.21,-9.28,-11.68,3.77,3.77,3.77
34.57,12.86,9.10,12.86,9.10,-9.10,-9.21,-11.56,3.76,3.76,3.76
34.92,12.74,9.00,12.74,9.00,-9.00,-9.13,-11.44,3.74,3.75,3.74
35.27,12.63,8.89,12.63,8.90,-8.90,-9.04,-11.31,3.73,3.73,3.74
35.62,12.52,8.81,12.52,8.80,-8.80,-8.96,-11.18,3.72,3.71,3.71
35.97,12.40,8.71,12.40,8.71,-8.72,-8.88,-11.04,3.68,3.69,3.69
36.33,12.30,8.63,12.30,8.63,-8.63,-8.80,-10.90,3.66,3.66,3.67
36.70,12.20,8.56,12.20,8.56,-8.56,-8.71,-10.77,3.64,3.64,3.65
37.06,12.12,8.50,12.11,8.49,-8.49,-8.63,-10.63,3.63,3.62,3.62
37.43,12.03,8.43,12.03,8.43,-8.43,-8.55,-10.50,3.60,3.60,3.60
37.81,11.95,8.38,11.95,8.38,-8.38,-8.47,-10.36,3.57,3.58,3.57
38.19,11.88,8.32,11.88,8.32,-8.33,-8.40,-10.24,3.55,3.55,3.56
38.57,11.82,8.29,11.82,8.28,-8.29,-8.33,-10.11,3.53,3.53,3.53
38.95,11.76,8.25,11.76,8.26,-8.26,-8.27,-9.99,3.50,3.51,3.51
39.34,11.72,8.24,11.72,8.23,-8.23,-8.22,-9.87,3.49,3.49,3.48
39.74,11.68,8.22,11.68,8.21,-8.21,-8.18,-9.76,3.47,3.46,3.46
40.14,11.64,8.20,11.64,8.20,-8.20,-8.15,-9.66,3.44,3.44,3.44
40.54,11.61,8.18,11.61,8.19,-8.19,-8.13,-9.56,3.42,3.42,3.43
40.94,11.60,8.20,11.59,8.19,-8.19,-8.13,-9.46,3.41,3.40,3.40
41.35,11.58,8.19,11.58,8.20,-8.20,-8.14,-9.38,3.38,3.38,3.39
41.76,11.57,8.21,11.57,8.21,-8.21,-8.15,-9.29,3.36,3.36,3.36
42.18,11.57,8.23,11.57,8.22,-8.23,-8.18,-9.22,3.34,3.34,3.34
42.60,11.56,8.24,11.56,8.25,-8.25,-8.22,-9.15,3.31,3.32,3.32
43.03,11.57,8.27,11.57,8.27,-8.27,-8.26,-9.09,3.30,3.30,3.30
43.46,11.57,8.30,11.57,8.30,-8.29,-8.31,-9.03,3.28,3.28,3.27
43.90,11.58,8.33,11.58,8.33,-8.32,-8.36,-8.98,3.26,3.25,3.25
44.33,11.58,8.35,11.58,8.35,-8.35,-8.42,-8.94,3.23,3.23,3.23
44.78,11.59,8.38,11.59,8.38,-8.39,-8.47,-8.90,3.20,3.21,3.21
45.23,11.61,8.41,11.61,8.42,-8.42,-8.53,-8.87,3.19,3.19,3.20
45.68,11.62,8.46,11.62,8.46,-8.46,-8.58,-8.85,3.16,3.16,3.16
46.13,11.64,8.51,11.63,8.50,-8.50,-8.63,-8.83,3.14,3.14,3.13
46.60,11.64,8.54,11.65,8.54,-8.54,-8.68,-8.82,3.10,3.11,3.10
47.06,11.66,8.58,11.66,8.58,-8.58,-8.73,-8.81,3.08,3.08,3.08
47.53,11.67,8.62,11.67,8.62,-8.63,-8.77,-8.81,3.04,3.04,3.05
48.01,11.68,8.68,11.68,8.67,-8.67,-8.81,-8.82,3.01,3.01,3.00
48.49,11.69,8.72,11.69,8.72,-8.72,-8.85,-8.83,2.97,2.97,2.97
48.97,11.70,8.77,11.70,8.77,-8.77,-8.88,-8.84,2.93,2.93,2.93
49.46,11.71,8.81,11.71,8.82,-8.81,-8.91,-8.86,2.90,2.89,2.90
49.96,11.71,8.87,11.71,8.86,-8.86,-8.94,-8.89,2.85,2.85,2.84
50.46,11.71,8.90,11.71,8.90,-8.90,-8.96,-8.92,2.81,2.81,2.81
50.96,11.71,8.94,11.71,8.94,-8.94,-8.98,-8.95,2.77,2.77,2.77
51.47,11.72,8.98,11.72,8.98,-8.98,-9.00,-8.99,2.74,2.74,2.74
51.99,11.72,9.02,11.72,9.02,-9.02,-9.01,-9.03,2.70,2.70,2.70
52.51,11.72,9.06,11.72,9.05,-9.05,-9.03,-9.07,2.66,2.66,2.66
53.03,11.71,9.08,11.71,9.08,-9.09,-9.04,-9.12,2.62,2.62,2.63
53.56,11.69,9.11,11.70,9.11,-9.12,-9.04,-9.16,2.57,2.58,2.58
54.10,11.69,9.15,11.68,9.14,-9.14,-9.05,-9.21,2.55,2.54,2.54
54.64,11.67,9.17,11.67,9.17,-9.16,-9.05,-9.26,2.51,2.51,2.50
55.18,11.65,9.18,11.65,9.19,-9.18,-9.05,-9.30,2.47,2.47,2.47
55.74,11.63,9.20,11.63,9.19,-9.19,-9.05,-9.35,2.44,2.43,2.43
56.29,11.60,9.20,11.60,9.20,-9.20,-9.05,-9.39,2.40,2.40,2.40
56.86,11.57,9.19,11.57,9.20,-9.20,-9.05,-9.43,2.37,2.37,2.38
57.42,11.54,9.21,11.54,9.20,-9.20,-9.04,-9.47,2.34,2.34,2.33
58.00,11.51,9.20,11.51,9.20,-9.19,-9.04,-9.50,2.32,2.32,2.31
58.58,11.47,9.18,11.47,9.19,-9.18,-9.03,-9.52,2.29,2.29,2.29
59.16,11.42,9.16,11.42,9.17,-9.17,-9.02,-9.54,2.25,2.25,2.25
59.76,11.37,9.15,11.37,9.15,-9.17,-9.01,-9.56,2.20,2.20,2.22
60.35,11.32,9.15,11.32,9.14,-9.16,-8.99,-9.56,2.16,2.16,2.17
60.96,11.27,9.14,11.27,9.14,-9.15,-8.98,-9.56,2.12,2.12,2.13
61.57,11.21,9.14,11.21,9.14,-9.14,-8.96,-9.55,2.07,2.07,2.07
62.18,11.15,9.14,11.15,9.14,-9.13,-8.94,-9.53,2.02,2.03,2.01
62.80,11.09,9.12,11.09,9.12,-9.11,-8.93,-9.51,1.98,1.98,1.97
63.43,11.02,9.10,11.02,9.10,-9.09,-8.91,-9.47,1.93,1.93,1.92
64.07,10.95,9.06,10.95,9.06,-9.06,-8.89,-9.43,1.89,1.89,1.89
64.71,10.88,9.03,10.87,9.03,-9.03,-8.86,-9.38,1.85,1.84,1.85
65.35,10.79,8.99,10.80,8.99,-8.99,-8.84,-9.32,1.80,1.81,1.80
66.01,10.72,8.96,10.72,8.95,-8.95,-8.81,-9.25,1.77,1.77,1.76
66.67,10.64,8.90,10.63,8.90,-8.91,-8.79,-9.18,1.73,1.73,1.74
67.33,10.54,8.85,10.55,8.86,-8.86,-8.76,-9.10,1.68,1.69,1.69
68.01,10.46,8.81,10.46,8.81,-8.81,-8.73,-9.01,1.65,1.65,1.65
68.69,10.37,8.77,10.37,8.76,-8.76,-8.70,-8.92,1.61,1.61,1.60
69.37,10.28,8.71,10.28,8.70,-8.71,-8.67,-8.83,1.57,1.57,1.57
70.07,10.18,8.64,10.18,8.65,-8.65,-8.64,-8.73,1.53,1.53,1.54
70.77,10.09,8.59,10.09,8.59,-8.60,-8.61,-8.63,1.49,1.49,1.50
71.48,10.00,8.55,10.00,8.54,-8.55,-8.58,-8.53,1.45,1.45,1.45
72.19,9.90,8.49,9.90,8.50,-8.50,-8.54,-8.43,1.40,1.41,1.41
72.91,9.81,8.45,9.81,8.45,-8.44,-8.51,-8.32,1.37,1.36,1.36
73.64,9.71,8.40,9.71,8.39,-8.39,-8.47,-8.22,1.32,1.32,1.31
74.38,9.61,8.33,9.61,8.34,-8.34,-8.43,-8.12,1.27,1.28,1.28
75.12,9.52,8.28,9.52,8.28,-8.28,-8.40,-8.02,1.24,1.24,1.24
75.87,9.43,8.22,9.43,8.22,-8.22,-8.36,-7.92,1.21,1.21,1.21
76.63,9.34,8.17,9.34,8.17,-8.16,-8.32,-7.82,1.18,1.18,1.17
77.40,9.24,8.09,9.24,8.10,-8.10,-8.28,-7.73,1.14,1.14,1.15
78.17,9.16,8.05,9.15,8.04,-8.04,-8.24,-7.63,1.12,1.11,1.10
78.95,9.06,7.98,9.06,7.98,-7.99,-8.19,-7.55,1.07,1.08,1.08
79.74,8.98,7.92,8.98,7.93,-7.93,-8.15,-7.46,1.05,1.05,1.06
80.54,8.90,7.87,8.90,7.87,-7.87,-8.11,-7.38,1.03,1.02,1.02
81.35,8.82,7.83,8.82,7.82,-7.82,-8.06,-7.31,1.00,1.00,0.99
82.16,8.74,7.77,8.74,7.77,-7.77,-8.02,-7.23,0.97,0.97,0.97
82.98,8.66,7.72,8.66,7.72,-7.73,-7.97,-7.17,0.93,0.94,0.94
83.81,8.59,7.68,8.59,7.68,-7.68,-7.92,-7.11,0.91,0.91,0.91
84.65,8.52,7.65,8.52,7.64,-7.64,-7.88,-7.05,0.88,0.88,0.87
85.50,8.44,7.60,8.45,7.60,-7.60,-7.83,-6.99,0.84,0.85,0.84
86.35,8.38,7.56,8.38,7.56,-7.56,-7.78,-6.95,0.82,0.82,0.82
87.22,8.31,7.51,8.31,7.52,-7.52,-7.73,-6.90,0.79,0.79,0.80
88.09,8.25,7.49,8.25,7.49,-7.49,-7.69,-6.86,0.76,0.76,0.76
88.97,8.18,7.45,8.19,7.46,-7.46,-7.64,-6.83,0.72,0.73,0.73
89.86,8.13,7.44,8.13,7.43,-7.43,-7.59,-6.80,0.70,0.70,0.69
90.76,8.07,7.40,8.07,7.40,-7.40,-7.54,-6.78,0.67,0.67,0.67
91.66,8.01,7.38,8.01,7.38,-7.37,-7.49,-6.76,0.64,0.64,0.63
92.58,7.95,7.35,7.95,7.35,-7.34,-7.44,-6.75,0.61,0.61,0.60
93.51,7.89,7.32,7.89,7.32,-7.32,-7.39,-6.74,0.57,0.57,0.57
94.44,7.83,7.28,7.83,7.29,-7.30,-7.34,-6.74,0.53,0.53,0.55
95.39,7.77,7.27,7.77,7.27,-7.27,-7.29,-6.74,0.50,0.50,0.50
96.34,7.71,7.25,7.71,7.24,-7.25,-7.24,-6.74,0.46,0.46,0.46
97.30,7.64,7.22,7.64,7.22,-7.22,-7.19,-6.75,0.42,0.42,0.42
98.28,7.58,7.20,7.58,7.20,-7.20,-7.14,-6.76,0.38,0.38,0.38
99.26,7.51,7.18,7.51,7.18,-7.17,-7.09,-6.78,0.34,0.34,0.33
100.25,7.45,7.15,7.44,7.14,-7.14,-7.04,-6.80,0.31,0.31,0.30
101.25,7.37,7.10,7.37,7.10,-7.10,-6.99,-6.82,0.27,0.27,0.27
102.27,7.29,7.06,7.29,7.06,-7.06,-6.95,-6.85,0.23,0.23,0.23
103.29,7.22,7.02,7.22,7.02,-7.02,-6.90,-6.88,0.20,0.20,0.20
104.32,7.14,6.98,7.14,6.98,-6.98,-6.85,-6.91,0.16,0.16,0.16
105.37,7.06,6.94,7.06,6.93,-6.93,-6.81,-6.94,0.13,0.13,0.12
106.42,6.98,6.88,6.98,6.89,-6.89,-6.76,-6.97,0.09,0.09,0.10
107.48,6.90,6.85,6.90,6.84,-6.84,-6.71,-7.01,0.06,0.06,0.05
108.56,6.82,6.79,6.82,6.80,-6.80,-6.67,-7.04,0.02,0.02,0.03
109.64,6.75,6.76,6.75,6.76,-6.76,-6.63,-7.07,-0.01,-0.01,-0.01
110.74,6.67,6.72,6.67,6.72,-6.72,-6.58,-7.11,-0.05,-0.05,-0.05
111.85,6.60,6.68,6.60,6.68,-6.68,-6.54,-7.14,-0.08,-0.08,-0.08
112.97,6.53,6.66,6.53,6.65,-6.66,-6.50,-7.17,-0.13,-0.13,-0.13
114.10,6.46,6.62,6.46,6.63,-6.63,-6.46,-7.20,-0.17,-0.17,-0.16
115.24,6.39,6.61,6.39,6.61,-6.62,-6.42,-7.22,-0.23,-0.22,-0.22
116.39,6.33,6.60,6.33,6.60,-6.61,-6.38,-7.24,-0.28,-0.27,-0.27
117.55,6.28,6.61,6.28,6.60,-6.60,-6.35,-7.26,-0.32,-0.32,-0.33
118.73,6.23,6.61,6.23,6.60,-6.60,-6.31,-7.27,-0.37,-0.38,-0.38
119.92,6.17,6.60,6.18,6.61,-6.61,-6.28,-7.27,-0.44,-0.43,-0.43
121.12,6.13,6.61,6.13,6.61,-6.62,-6.24,-7.28,-0.49,-0.49,-0.48
122.33,6.09,6.63,6.09,6.62,-6.63,-6.21,-7.27,-0.54,-0.54,-0.54
123.55,6.05,6.64,6.05,6.64,-6.64,-6.18,-7.26,-0.59,-0.59,-0.59
124.79,6.01,6.66,6.00,6.66,-6.66,-6.15,-7.24,-0.65,-0.65,-0.65
126.03,5.95,6.66,5.96,6.67,-6.67,-6.12,-7.22,-0.72,-0.71,-0.71
127.29,5.91,6.68,5.91,6.68,-6.68,-6.10,-7.19,-0.77,-0.77,-0.77
128.57,5.86,6.69,5.85,6.69,-6.68,-6.07,-7.16,-0.82,-0.83,-0.83
129.85,5.79,6.68,5.80,6.69,-6.68,-6.05,-7.11,-0.89,-0.88,-0.89
131.15,5.73,6.68,5.73,6.67,-6.66,-6.02,-7.07,-0.93,-0.94,-0.95
132.46,5.65,6.64,5.65,6.65,-6.64,-6.00,-7.01,-0.99,-0.99,-0.99
133.79,5.57,6.61,5.57,6.61,-6.61,-5.98,-6.96,-1.04,-1.04,-1.04
135.12,5.49,6.58,5.49,6.57,-6.57,-5.97,-6.89,-1.08,-1.08,-1.09
136.48,5.40,6.51,5.40,6.52,-6.53,-5.95,-6.83,-1.13,-1.12,-1.11
137.84,5.32,6.48,5.32,6.47,-6.48,-5.93,-6.76,-1.16,-1.16,-1.16
139.22,5.23,6.43,5.23,6.42,-6.42,-5.92,-6.69,-1.19,-1.19,-1.20
140.61,5.14,6.36,5.14,6.37,-6.37,-5.91,-6.61,-1.23,-1.22,-1.22
142.02,5.06,6.32,5.06,6.31,-6.31,-5.89,-6.53,-1.25,-1.26,-1.25
143.44,4.97,6.26,4.97,6.25,-6.26,-5.88,-6.45,-1.29,-1.29,-1.29
144.87,4.89,6.20,4.89,6.20,-6.20,-5.87,-6.37,-1.31,-1.31,-1.31
146.32,4.81,6.15,4.81,6.15,-6.15,-5.87,-6.29,-1.34,-1.34,-1.34
147.78,4.74,6.10,4.74,6.10,-6.10,-5.86,-6.21,-1.36,-1.37,-1.36
149.26,4.67,6.06,4.67,6.06,-6.06,-5.86,-6.13,-1.39,-1.39,-1.39
150.75,4.59,6.02,4.59,6.02,-6.02,-5.85,-6.05,-1.43,-1.42,-1.43
152.26,4.53,5.98,4.53,5.98,-5.98,-5.85,-5.98,-1.45,-1.45,-1.45
153.78,4.46,5.94,4.46,5.94,-5.95,-5.85,-5.90,-1.49,-1.48,-1.48
155.32,4.41,5.92,4.40,5.91,-5.92,-5.84,-5.83,-1.51,-1.51,-1.51
156.88,4.34,5.88,4.35,5.89,-5.89,-5.84,-5.76,-1.55,-1.55,-1.54
158.44,4.29,5.87,4.29,5.87,-5.87,-5.84,-5.69,-1.58,-1.58,-1.58
160.03,4.24,5.86,4.23,5.85,-5.85,-5.84,-5.62,-1.61,-1.62,-1.62
161.63,4.18,5.83,4.18,5.83,-5.83,-5.85,-5.56,-1.65,-1.65,-1.65
163.24,4.13,5.82,4.13,5.82,-5.82,-5.85,-5.50,-1.69,-1.69,-1.69
164.88,4.08,5.81,4.08,5.81,-5.80,-5.85,-5.44,-1.72,-1.73,-1.73
166.53,4.03,5.80,4.03,5.79,-5.79,-5.85,-5.39,-1.76,-1.76,-1.77
168.19,3.98,5.78,3.98,5.78,-5.77,-5.86,-5.34,-1.79,-1.79,-1.80
169.87,3.93,5.76,3.93,5.76,-5.76,-5.86,-5.29,-1.83,-1.83,-1.83
171.57,3.88,5.74,3.88,5.74,-5.74,-5.86,-5.25,-1.86,-1.86,-1.86
173.29,3.83,5.73,3.83,5.73,-5.73,-5.86,-5.21,-1.90,-1.90,-1.90
175.02,3.78,5.71,3.78,5.71,-5.71,-5.87,-5.18,-1.93,-1.93,-1.93
176.77,3.73,5.70,3.73,5.69,-5.70,-5.87,-5.15,-1.97,-1.97,-1.97
178.54,3.68,5.67,3.68,5.68,-5.68,-5.87,-5.13,-2.00,-2.00,-1.99
180.32,3.64,5.67,3.64,5.67,-5.67,-5.87,-5.10,-2.03,-2.03,-2.03
182.13,3.59,5.66,3.59,5.65,-5.65,-5.87,-5.08,-2.06,-2.06,-2.07
183.95,3.54,5.64,3.55,5.64,-5.64,-5.87,-5.07,-2.10,-2.09,-2.10
185.79,3.50,5.63,3.50,5.63,-5.63,-5.87,-5.06,-2.13,-2.13,-2.13
187.65,3.46,5.62,3.45,5.61,-5.62,-5.87,-5.05,-2.16,-2.16,-2.16
189.52,3.40,5.60,3.41,5.60,-5.60,-5.86,-5.04,-2.20,-2.19,-2.20
191.42,3.36,5.58,3.36,5.59,-5.59,-5.86,-5.04,-2.23,-2.23,-2.22
193.33,3.32,5.58,3.31,5.57,-5.58,-5.85,-5.04,-2.26,-2.26,-2.26
195.27,3.26,5.56,3.27,5.56,-5.56,-5.85,-5.05,-2.30,-2.29,-2.30
197.22,3.22,5.55,3.22,5.55,-5.54,-5.84,-5.06,-2.32,-2.33,-2.33
199.19,3.17,5.53,3.17,5.53,-5.53,-5.83,-5.07,-2.36,-2.36,-2.36
201.18,3.12,5.51,3.12,5.51,-5.51,-5.82,-5.08,-2.39,-2.39,-2.39
203.19,3.07,5.48,3.07,5.48,-5.49,-5.80,-5.09,-2.42,-2.41,-2.41
205.23,3.02,5.46,3.02,5.46,-5.46,-5.79,-5.11,-2.44,-2.44,-2.44
207.28,2.97,5.43,2.97,5.43,-5.44,-5.77,-5.13,-2.47,-2.47,-2.46
209.35,2.91,5.41,2.91,5.41,-5.41,-5.75,-5.15,-2.50,-2.50,-2.50
211.44,2.86,5.38,2.86,5.38,-5.38,-5.73,-5.17,-2.53,-2.52,-2.52
213.56,2.81,5.36,2.81,5.36,-5.36,-5.71,-5.19,-2.55,-2.55,-2.55
215.69,2.76,5.33,2.76,5.33,-5.33,-5.68,-5.21,-2.57,-2.57,-2.57
217.85,2.70,5.29,2.70,5.30,-5.30,-5.66,-5.23,-2.60,-2.59,-2.59
220.03,2.65,5.28,2.65,5.27,-5.27,-5.63,-5.25,-2.62,-2.62,-2.63
222.23,2.59,5.24,2.59,5.24,-5.23,-5.60,-5.27,-2.64,-2.64,-2.65
224.45,2.53,5.20,2.53,5.20,-5.20,-5.56,-5.29,-2.67,-2.67,-2.67
226.70,2.47,5.16,2.47,5.16,-5.16,-5.53,-5.30,-2.69,-2.69,-2.69
228.96,2.42,5.12,2.42,5.12,-5.12,-5.49,-5.32,-2.70,-2.71,-2.70
231.25,2.36,5.08,2.36,5.08,-5.08,-5.45,-5.33,-2.72,-2.72,-2.72
233.57,2.30,5.04,2.30,5.05,-5.04,-5.42,-5.33,-2.74,-2.74,-2.74
235.90,2.24,5.01,2.24,5.01,-5.00,-5.37,-5.34,-2.76,-2.76,-2.77
238.26,2.18,4.97,2.18,4.96,-4.96,-5.33,-5.34,-2.78,-2.78,-2.79
240.64,2.12,4.91,2.12,4.92,-4.92,-5.28,-5.33,-2.80,-2.80,-2.79
243.05,2.07,4.88,2.07,4.88,-4.88,-5.24,-5.32,-2.81,-2.82,-2.81
245.48,2.01,4.84,2.01,4.84,-4.84,-5.19,-5.30,-2.83,-2.83,-2.83
247.93,1.96,4.80,1.96,4.80,-4.80,-5.14,-5.28,-2.84,-2.84,-2.84
250.41,1.91,4.76,1.91,4.76,-4.76,-5.09,-5.25,-2.85,-2.85,-2.85
252.92,1.85,4.71,1.85,4.72,-4.71,-5.04,-5.22,-2.86,-2.86,-2.86
255.45,1.80,4.68,1.80,4.67,-4.67,-4.99,-5.18,-2.87,-2.87,-2.88
258.00,1.74,4.62,1.74,4.63,-4.63,-4.93,-5.14,-2.89,-2.89,-2.88
260.58,1.69,4.58,1.69,4.59,-4.59,-4.88,-5.09,-2.90,-2.90,-2.89
263.19,1.64,4.55,1.64,4.54,-4.55,-4.82,-5.04,-2.91,-2.91,-2.91
265.82,1.59,4.50,1.59,4.51,-4.51,-4.77,-4.98,-2.92,-2.92,-2.91
268.48,1.54,4.47,1.54,4.47,-4.47,-4.71,-4.92,-2.93,-2.93,-2.93
271.16,1.49,4.43,1.49,4.43,-4.43,-4.65,-4.85,-2.94,-2.94,-2.94
273.87,1.44,4.39,1.44,4.39,-4.39,-4.60,-4.78,-2.95,-2.95,-2.95
276.61,1.39,4.36,1.39,4.36,-4.35,-4.54,-4.71,-2.96,-2.96,-2.97
279.38,1.34,4.32,1.34,4.32,-4.31,-4.48,-4.63,-2.97,-2.97,-2.98
282.17,1.29,4.28,1.29,4.27,-4.28,-4.42,-4.55,-2.99,-2.99,-2.99
284.99,1.24,4.23,1.24,4.23,-4.24,-4.36,-4.47,-3.00,-3.00,-2.99
287.84,1.19,4.18,1.19,4.19,-4.19,-4.30,-4.39,-3.01,-3.00,-2.99
290.72,1.15,4.16,1.15,4.15,-4.15,-4.25,-4.31,-3.00,-3.01,-3.01
293.63,1.10,4.12,1.10,4.11,-4.11,-4.19,-4.22,-3.01,-3.01,-3.02
296.57,1.05,4.07,1.05,4.07,-4.07,-4.13,-4.14,-3.02,-3.02,-3.02
299.53,1.00,4.02,1.00,4.03,-4.02,-4.07,-4.05,-3.02,-3.02,-3.02
302.53,0.95,3.98,0.95,3.98,-3.98,-4.01,-3.96,-3.03,-3.03,-3.03
305.55,0.91,3.94,0.91,3.94,-3.94,-3.96,-3.88,-3.03,-3.03,-3.03
308.61,0.86,3.89,0.86,3.89,-3.90,-3.90,-3.79,-3.04,-3.03,-3.03
311.69,0.82,3.85,0.82,3.85,-3.85,-3.85,-3.71,-3.03,-3.03,-3.03
314.81,0.78,3.81,0.78,3.81,-3.81,-3.79,-3.63,-3.03,-3.03,-3.03
317.96,0.73,3.77,0.73,3.77,-3.76,-3.74,-3.54,-3.03,-3.03,-3.04
321.14,0.69,3.72,0.69,3.72,-3.72,-3.69,-3.46,-3.03,-3.03,-3.03
324.35,0.64,3.67,0.64,3.67,-3.67,-3.63,-3.38,-3.03,-3.03,-3.03
327.59,0.60,3.62,0.60,3.62,-3.63,-3.58,-3.31,-3.03,-3.03,-3.02
330.87,0.55,3.58,0.55,3.58,-3.58,-3.53,-3.23,-3.03,-3.03,-3.03
334.18,0.52,3.55,0.52,3.54,-3.54,-3.49,-3.16,-3.02,-3.02,-3.03
337.52,0.47,3.49,0.47,3.50,-3.49,-3.44,-3.09,-3.02,-3.02,-3.02
340.90,0.44,3.46,0.43,3.45,-3.45,-3.39,-3.02,-3.01,-3.02,-3.02
344.30,0.39,3.41,0.39,3.41,-3.41,-3.35,-2.95,-3.02,-3.02,-3.02
347.75,0.35,3.36,0.35,3.37,-3.37,-3.31,-2.88,-3.02,-3.02,-3.01
351.23,0.32,3.34,0.31,3.33,-3.33,-3.26,-2.82,-3.01,-3.02,-3.02
354.74,0.28,3.29,0.28,3.30,-3.30,-3.22,-2.76,-3.02,-3.02,-3.01
358.28,0.24,3.26,0.25,3.26,-3.26,-3.19,-2.70,-3.02,-3.01,-3.02
361.87,0.22,3.24,0.21,3.23,-3.23,-3.15,-2.64,-3.01,-3.02,-3.02
365.49,0.18,3.19,0.18,3.19,-3.20,-3.11,-2.58,-3.02,-3.02,-3.01
369.14,0.14,3.15,0.15,3.16,-3.16,-3.08,-2.53,-3.02,-3.02,-3.01
372.83,0.12,3.14,0.11,3.13,-3.13,-3.05,-2.48,-3.01,-3.02,-3.02
376.56,0.08,3.11,0.08,3.10,-3.10,-3.02,-2.43,-3.02,-3.02,-3.03
380.33,0.05,3.07,0.05,3.07,-3.07,-2.99,-2.38,-3.02,-3.02,-3.02
384.13,0.02,3.04,0.02,3.03,-3.03,-2.96,-2.34,-3.01,-3.02,-3.02
387.97,-0.02,2.99,-0.02,3.00,-3.00,-2.93,-2.29,-3.02,-3.02,-3.01
391.85,-0.05,2.96,-0.05,2.97,-2.96,-2.91,-2.25,-3.01,-3.01,-3.01
395.77,-0.08,2.93,-0.08,2.93,-2.93,-2.88,-2.21,-3.01,-3.01,-3.01
399.73,-0.11,2.90,-0.11,2.89,-2.89,-2.85,-2.17,-3.00,-3.01,-3.01
403.72,-0.15,2.85,-0.15,2.86,-2.86,-2.83,-2.13,-3.01,-3.00,-3.00
407.76,-0.18,2.82,-0.18,2.82,-2.82,-2.80,-2.09,-3.00,-3.00,-3.00
411.84,-0.21,2.79,-0.21,2.78,-2.79,-2.77,-2.06,-3.00,-3.00,-3.00
415.96,-0.24,2.75,-0.24,2.76,-2.75,-2.73,-2.03,-2.99,-3.00,-2.99
420.12,-0.28,2.72,-0.28,2.72,-2.72,-2.70,-1.99,-3.00,-3.00,-3.00
424.32,-0.31,2.69,-0.31,2.69,-2.69,-2.66,-1.96,-3.00,-3.00,-3.00
428.56,-0.33,2.65,-0.33,2.66,-2.66,-2.62,-1.93,-2.99,-3.00,-2.98
432.85,-0.36,2.63,-0.36,2.63,-2.63,-2.57,-1.90,-2.99,-3.00,-2.99
437.18,-0.39,2.61,-0.39,2.60,-2.61,-2.52,-1.87,-3.00,-2.99,-3.00
441.55,-0.42,2.58,-0.42,2.58,-2.58,-2.47,-1.85,-3.00,-3.00,-3.00
445.96,-0.45,2.55,-0.45,2.55,-2.54,-2.42,-1.82,-2.99,-3.00,-3.00
450.42,-0.49,2.51,-0.49,2.51,-2.51,-2.36,-1.79,-3.00,-3.00,-3.00
454.93,-0.53,2.47,-0.53,2.47,-2.47,-2.30,-1.77,-3.00,-3.00,-3.00
459.48,-0.57,2.43,-0.57,2.43,-2.42,-2.24,-1.74,-2.99,-2.99,-3.00
464.07,-0.62,2.37,-0.62,2.37,-2.37,-2.18,-1.71,-2.99,-2.99,-2.99
