frequency,raw,error,smoothed,error_smoothed,equalization,parametric_eq,fixed_band_eq,equalized_raw,equalized_smoothed,target
20.00,-25.71,-25.39,-25.71,-25.38,6.00,6.63,2.63,-19.71,-19.71,-0.33
20.20,-25.67,-25.39,-25.67,-25.39,6.00,6.63,2.71,-19.67,-19.67,-0.29
20.40,-25.62,-25.38,-25.63,-25.38,6.00,6.63,2.78,-19.62,-19.63,-0.25
20.61,-25.58,-25.36,-25.59,-25.37,6.00,6.63,2.86,-19.58,-19.59,-0.23
20.81,-25.54,-25.36,-25.54,-25.36,6.00,6.63,2.94,-19.54,-19.54,-0.19
21.02,-25.49,-25.35,-25.48,-25.33,6.00,6.63,3.03,-19.49,-19.48,-0.15
21.23,-25.40,-25.27,-25.41,-25.27,6.00,6.62,3.11,-19.40,-19.41,-0.14
21.44,-25.31,-25.19,-25.33,-25.21,6.00,6.62,3.20,-19.31,-19.33,-0.12
21.66,-25.22,-25.12,-25.24,-25.13,6.00,6.62,3.29,-19.22,-19.24,-0.11
21.87,-25.13,-25.02,-25.11,-25.01,6.00,6.62,3.39,-19.13,-19.11,-0.11
22.09,-24.96,-24.86,-24.93,-24.83,6.00,6.61,3.48,-18.96,-18.93,-0.10
22.31,-24.67,-24.57,-24.69,-24.59,6.00,6.61,3.58,-18.67,-18.69,-0.10
22.54,-24.40,-24.30,-24.38,-24.28,6.00,6.61,3.68,-18.40,-18.38,-0.10
22.76,-24.10,-23.99,-24.09,-23.98,6.00,6.61,3.79,-18.10,-18.09,-0.11
22.99,-23.81,-23.69,-23.87,-23.75,6.00,6.61,3.89,-17.81,-17.87,-0.12
23.22,-23.70,-23.58,-23.70,-23.57,6.00,6.60,4.00,-17.70,-17.70,-0.12
23.45,-23.60,-23.47,-23.58,-23.45,6.00,6.60,4.11,-17.60,-17.58,-0.13
23.69,-23.51,-23.37,-23.49,-23.36,6.00,6.60,4.23,-17.51,-17.49,-0.13
23.92,-23.39,-23.26,-23.41,-23.29,6.00,6.59,4.34,-17.39,-17.41,-0.13
24.16,-23.36,-23.24,-23.37,-23.24,6.00,6.59,4.46,-17.36,-17.37,-0.12
24.40,-23.36,-23.24,-23.37,-23.25,6.00,6.59,4.58,-17.36,-17.37,-0.12
24.65,-23.37,-23.24,-23.38,-23.25,6.00,6.59,4.71,-17.37,-17.38,-0.13
24.89,-23.37,-23.24,-23.33,-23.20,6.00,6.58,4.83,-17.37,-17.33,-0.13
25.14,-23.21,-23.07,-23.19,-23.05,6.00,6.58,4.96,-17.21,-17.19,-0.14
25.39,-22.94,-22.80,-22.95,-22.81,6.00,6.58,5.08,-16.94,-16.95,-0.14
25.65,-22.68,-22.53,-22.68,-22.53,6.00,6.57,5.21,-16.68,-16.68,-0.15
25.91,-22.42,-22.26,-22.43,-22.28,6.00,6.57,5.34,-16.42,-16.43,-0.16
26.16,-22.23,-22.07,-22.25,-22.10,6.00,6.57,5.47,-16.23,-16.25,-0.16
26.43,-22.14,-21.98,-22.12,-21.96,6.00,6.56,5.59,-16.14,-16.12,-0.16
26.69,-22.03,-21.87,-22.03,-21.86,6.00,6.56,5.72,-16.03,-16.03,-0.16
26.96,-21.93,-21.76,-21.93,-21.76,6.00,6.56,5.85,-15.93,-15.93,-0.17
27.23,-21.82,-21.64,-21.82,-21.64,6.00,6.55,5.97,-15.82,-15.82,-0.17
27.50,-21.69,-21.52,-21.70,-21.52,6.00,6.55,6.09,-15.69,-15.70,-0.17
27.77,-21.58,-21.40,-21.58,-21.40,6.00,6.55,6.21,-15.58,-15.58,-0.18
28.05,-21.46,-21.28,-21.47,-21.28,6.00,6.54,6.33,-15.46,-15.47,-0.18
28.33,-21.36,-21.17,-21.36,-21.17,6.00,6.54,6.43,-15.36,-15.36,-0.20
28.62,-21.27,-21.07,-21.26,-21.06,6.00,6.53,6.54,-15.27,-15.26,-0.20
28.90,-21.16,-20.97,-21.18,-20.98,6.00,6.53,6.64,-15.16,-15.18,-0.20
29.19,-21.12,-20.93,-21.14,-20.94,6.00,6.52,6.73,-15.12,-15.14,-0.20
29.48,-21.12,-20.93,-21.14,-20.94,6.00,6.52,6.81,-15.12,-15.14,-0.19
29.78,-21.11,-20.91,-21.10,-20.91,6.00,6.51,6.89,-15.11,-15.10,-0.20
30.08,-21.04,-20.84,-20.98,-20.78,6.00,6.51,6.96,-15.04,-14.98,-0.19
30.38,-20.74,-20.53,-20.73,-20.53,6.00,6.51,7.02,-14.74,-14.73,-0.21
30.68,-20.44,-20.23,-20.45,-20.24,6.00,6.50,7.07,-14.44,-14.45,-0.21
30.99,-20.15,-19.92,-20.21,-19.99,6.00,6.50,7.12,-14.15,-14.21,-0.23
31.30,-20.07,-19.85,-20.06,-19.84,6.00,6.49,7.15,-14.07,-14.06,-0.23
31.61,-20.01,-19.79,-19.99,-19.75,6.00,6.48,7.17,-14.01,-13.99,-0.23
31.93,-19.95,-19.71,-19.97,-19.72,6.00,6.48,7.18,-13.95,-13.97,-0.25
32.24,-19.95,-19.69,-19.96,-19.71,6.00,6.47,7.19,-13.95,-13.96,-0.26
32.57,-19.97,-19.71,-19.97,-19.71,6.00,6.47,7.19,-13.97,-13.97,-0.26
32.89,-19.99,-19.72,-19.97,-19.69,6.00,6.46,7.18,-13.99,-13.97,-0.27
33.22,-19.93,-19.64,-19.92,-19.63,6.00,6.46,7.15,-13.93,-13.92,-0.30
33.55,-19.83,-19.53,-19.83,-19.53,6.00,6.45,7.13,-13.83,-13.83,-0.30
33.89,-19.72,-19.40,-19.75,-19.44,6.00,6.44,7.09,-13.72,-13.75,-0.32
34.23,-19.70,-19.38,-19.75,-19.42,6.00,6.44,7.06,-13.70,-13.75,-0.32
34.57,-19.72,-19.38,-19.74,-19.40,6.00,6.43,7.01,-13.72,-13.74,-0.34
34.92,-19.74,-19.39,-19.64,-19.29,6.00,6.42,6.96,-13.74,-13.64,-0.36
35.27,-19.39,-19.03,-19.32,-18.95,6.00,6.41,6.91,-13.39,-13.32,-0.36
35.62,-18.91,-18.53,-18.92,-18.54,6.00,6.41,6.85,-12.91,-12.92,-0.38
35.97,-18.42,-18.03,-18.60,-18.21,6.00,6.40,6.80,-12.42,-12.60,-0.39
36.33,-18.51,-18.11,-18.52,-18.12,6.00,6.39,6.74,-12.51,-12.52,-0.40
36.70,-18.62,-18.22,-18.57,-18.16,6.00,6.38,6.68,-12.62,-12.57,-0.41
37.06,-18.68,-18.26,-18.59,-18.18,6.00,6.38,6.62,-12.68,-12.59,-0.42
37.43,-18.42,-18.01,-18.45,-18.02,6.00,6.37,6.56,-12.42,-12.45,-0.41
37.81,-18.16,-17.74,-18.19,-17.77,6.00,6.36,6.50,-12.16,-12.19,-0.43
38.19,-17.90,-17.46,-17.86,-17.43,6.00,6.35,6.45,-11.90,-11.86,-0.44
38.57,-17.59,-17.16,-17.59,-17.15,6.00,6.34,6.39,-11.59,-11.59,-0.43
38.95,-17.30,-16.86,-17.38,-16.94,6.00,6.33,6.34,-11.30,-11.38,-0.44
39.34,-17.26,-16.82,-17.27,-16.82,6.00,6.32,6.29,-11.26,-11.27,-0.45
39.74,-17.25,-16.79,-17.22,-16.76,6.00,6.31,6.24,-11.25,-11.22,-0.46
40.14,-17.19,-16.73,-17.18,-16.72,6.00,6.30,6.20,-11.19,-11.18,-0.46
40.54,-17.06,-16.60,-17.08,-16.61,6.00,6.30,6.16,-11.06,-11.08,-0.47
40.94,-16.93,-16.46,-16.92,-16.45,6.00,6.28,6.12,-10.93,-10.92,-0.47
41.35,-16.74,-16.26,-16.75,-16.26,6.00,6.27,6.09,-10.74,-10.75,-0.49
41.76,-16.55,-16.05,-16.56,-16.06,6.00,6.26,6.06,-10.55,-10.56,-0.50
42.18,-16.36,-15.86,-16.36,-15.86,6.00,6.25,6.04,-10.36,-10.36,-0.50
42.60,-16.16,-15.64,-16.17,-15.65,6.00,6.24,6.02,-10.16,-10.17,-0.52
43.03,-15.96,-15.44,-15.93,-15.41,6.00,6.23,6.00,-9.96,-9.93,-0.52
43.46,-15.70,-15.16,-15.70,-15.15,6.00,6.22,5.99,-9.70,-9.70,-0.55
43.90,-15.45,-14.87,-15.49,-14.92,6.00,6.21,5.98,-9.45,-9.49,-0.57
44.33,-15.31,-14.72,-15.32,-14.73,6.00,6.20,5.98,-9.31,-9.32,-0.59
44.78,-15.21,-14.60,-15.20,-14.59,6.00,6.18,5.99,-9.21,-9.20,-0.61
45.23,-15.09,-14.47,-15.11,-14.48,6.00,6.17,5.99,-9.09,-9.11,-0.63
45.68,-14.94,-14.30,-14.93,-14.28,6.00,6.16,6.01,-8.94,-8.93,-0.64
46.13,-14.72,-14.06,-14.62,-13.96,6.00,6.15,6.02,-8.72,-8.62,-0.66
46.60,-14.30,-13.63,-14.31,-13.65,6.00,6.13,6.04,-8.30,-8.31,-0.67
47.06,-13.94,-13.27,-14.14,-13.47,6.00,6.12,6.07,-7.94,-8.14,-0.67
47.53,-14.08,-13.41,-14.07,-13.39,6.00,6.11,6.10,-8.08,-8.07,-0.68
48.01,-14.21,-13.53,-14.03,-13.34,6.00,6.10,6.13,-8.21,-8.03,-0.68
48.49,-13.96,-13.26,-13.97,-13.27,6.00,6.08,6.17,-7.96,-7.97,-0.70
48.97,-13.72,-13.01,-13.90,-13.18,6.00,6.07,6.21,-7.72,-7.90,-0.72
49.46,-13.83,-13.11,-13.85,-13.12,6.00,6.06,6.25,-7.83,-7.85,-0.73
49.96,-13.96,-13.22,-13.80,-13.06,6.00,6.04,6.30,-7.96,-7.80,-0.74
50.46,-13.66,-12.92,-13.65,-12.92,6.00,6.03,6.35,-7.66,-7.65,-0.73
50.96,-13.30,-12.56,-13.36,-12.62,6.00,6.02,6.40,-7.30,-7.36,-0.74
51.47,-13.06,-12.31,-13.06,-12.31,6.00,6.00,6.45,-7.06,-7.06,-0.75
51.99,-12.85,-12.09,-12.88,-12.13,6.00,5.99,6.51,-6.85,-6.88,-0.76
52.51,-12.78,-12.03,-12.78,-12.03,6.00,5.98,6.57,-6.78,-6.78,-0.76
53.03,-12.73,-11.98,-12.74,-11.98,6.00,5.97,6.62,-6.73,-6.74,-0.76
53.56,-12.67,-11.91,-12.66,-11.89,6.00,5.95,6.68,-6.67,-6.66,-0.77
54.10,-12.57,-11.80,-12.49,-11.72,6.00,5.94,6.73,-6.57,-6.49,-0.78
54.64,-12.29,-11.51,-12.34,-11.56,6.00,5.93,6.79,-6.29,-6.34,-0.78
55.18,-12.12,-11.34,-12.24,-11.45,6.00,5.92,6.84,-6.12,-6.24,-0.79
55.74,-12.22,-11.43,-12.12,-11.32,6.00,5.91,6.89,-6.22,-6.12,-0.80
56.29,-12.12,-11.32,-12.03,-11.23,6.00,5.90,6.93,-6.12,-6.03,-0.80
56.86,-11.86,-11.03,-12.02,-11.21,6.00,5.89,6.97,-5.86,-6.02,-0.82
57.42,-11.94,-11.10,-11.99,-11.16,6.00,5.88,7.00,-5.94,-5.99,-0.83
58.00,-12.14,-11.30,-11.93,-11.09,6.00,5.88,7.03,-6.14,-5.93,-0.85
58.58,-11.83,-10.98,-11.85,-10.99,6.00,5.87,7.05,-5.83,-5.85,-0.86
59.16,-11.60,-10.73,-11.70,-10.83,6.00,5.86,7.06,-5.60,-5.70,-0.87
59.76,-11.58,-10.69,-11.63,-10.73,6.00,5.86,7.07,-5.58,-5.63,-0.90
60.35,-11.63,-10.71,-11.64,-10.72,6.00,5.86,7.06,-5.63,-5.64,-0.92
60.96,-11.73,-10.79,-11.57,-10.62,6.00,5.85,7.05,-5.73,-5.57,-0.94
61.57,-11.39,-10.40,-11.42,-10.43,6.00,5.85,7.02,-5.39,-5.42,-0.99
62.18,-11.11,-10.09,-11.24,-10.22,6.00,5.85,6.98,-5.11,-5.24,-1.03
62.80,-11.12,-10.06,-11.08,-10.02,6.00,5.85,6.94,-5.12,-5.08,-1.06
63.43,-11.05,-9.96,-11.01,-9.91,6.00,5.85,6.88,-5.05,-5.01,-1.10
64.07,-10.94,-9.81,-10.94,-9.81,6.00,5.86,6.81,-4.94,-4.94,-1.14
64.71,-10.82,-9.65,-10.87,-9.70,6.00,5.86,6.73,-4.82,-4.87,-1.17
65.35,-10.78,-9.58,-10.80,-9.59,6.00,5.87,6.64,-4.78,-4.80,-1.20
66.01,-10.80,-9.56,-10.70,-9.46,6.00,5.87,6.54,-4.80,-4.70,-1.24
66.67,-10.55,-9.28,-10.60,-9.32,6.00,5.88,6.44,-4.55,-4.60,-1.28
67.33,-10.44,-9.14,-10.51,-9.20,6.00,5.89,6.32,-4.44,-4.51,-1.31
68.01,-10.47,-9.13,-10.46,-9.11,6.00,5.90,6.19,-4.47,-4.46,-1.35
68.69,-10.48,-9.09,-10.45,-9.06,6.00,5.92,6.06,-4.48,-4.45,-1.39
69.37,-10.40,-8.97,-10.37,-8.94,6.00,5.94,5.92,-4.40,-4.37,-1.43
70.07,-10.24,-8.77,-10.26,-8.79,6.00,5.96,5.78,-4.24,-4.26,-1.47
70.77,-10.12,-8.62,-10.19,-8.68,6.00,5.98,5.63,-4.12,-4.19,-1.50
71.48,-10.16,-8.62,-10.17,-8.62,6.00,6.00,5.47,-4.16,-4.17,-1.55
72.19,-10.21,-8.62,-10.16,-8.57,6.00,6.03,5.32,-4.21,-4.16,-1.59
72.91,-10.11,-8.47,-10.09,-8.45,6.00,6.05,5.16,-4.11,-4.09,-1.64
73.64,-9.91,-8.22,-9.93,-8.24,6.00,6.07,4.99,-3.91,-3.93,-1.69
74.38,-9.69,-7.96,-9.70,-7.96,6.00,6.08,4.83,-3.69,-3.70,-1.73
75.12,-9.47,-7.69,-9.44,-7.67,6.01,6.09,4.66,-3.46,-3.43,-1.78
75.87,-9.17,-7.36,-9.20,-7.39,6.04,6.06,4.49,-3.13,-3.16,-1.82
76.63,-8.96,-7.11,-8.99,-7.13,6.07,6.03,4.33,-2.89,-2.92,-1.85
77.40,-8.78,-6.89,-8.76,-6.87,6.08,5.95,4.16,-2.71,-2.68,-1.89
78.17,-8.58,-6.65,-8.55,-6.63,6.04,5.86,3.99,-2.54,-2.51,-1.93
78.95,-8.28,-6.33,-8.35,-6.39,5.95,5.72,3.82,-2.33,-2.40,-1.96
79.74,-8.13,-6.15,-8.13,-6.14,5.80,5.56,3.65,-2.33,-2.33,-1.99
80.54,-7.90,-5.89,-7.84,-5.82,5.60,5.36,3.49,-2.31,-2.24,-2.02
81.35,-7.52,-5.48,-7.50,-5.46,5.34,5.14,3.32,-2.18,-2.16,-2.05
82.16,-7.03,-4.96,-7.09,-5.02,5.05,4.90,3.16,-1.99,-2.05,-2.08
82.98,-6.70,-4.61,-6.69,-4.59,4.73,4.64,2.99,-1.98,-1.97,-2.10
83.81,-6.36,-4.22,-6.36,-4.22,4.39,4.38,2.83,-1.97,-1.97,-2.14
84.65,-6.08,-3.91,-6.10,-3.94,4.05,4.11,2.67,-2.03,-2.05,-2.17
85.50,-5.87,-3.68,-5.89,-3.69,3.73,3.84,2.51,-2.15,-2.16,-2.19
86.35,-5.70,-3.48,-5.68,-3.45,3.42,3.57,2.36,-2.28,-2.26,-2.23
87.22,-5.50,-3.24,-5.47,-3.21,3.13,3.31,2.20,-2.37,-2.34,-2.26
88.09,-5.20,-2.91,-5.25,-2.96,2.86,3.04,2.04,-2.35,-2.39,-2.29
88.97,-4.99,-2.67,-4.99,-2.66,2.60,2.79,1.89,-2.40,-2.39,-2.32
89.86,-4.77,-2.42,-4.72,-2.36,2.36,2.53,1.74,-2.42,-2.36,-2.35
90.76,-4.40,-2.01,-4.44,-2.05,2.13,2.28,1.59,-2.27,-2.31,-2.39
91.66,-4.19,-1.78,-4.17,-1.75,1.91,2.04,1.44,-2.28,-2.26,-2.42
92.58,-3.95,-1.50,-4.01,-1.57,1.70,1.80,1.29,-2.25,-2.32,-2.45
93.51,-3.92,-1.45,-3.97,-1.49,1.49,1.56,1.14,-2.44,-2.48,-2.48
94.44,-3.99,-1.49,-3.92,-1.41,1.28,1.33,1.00,-2.71,-2.63,-2.50
95.39,-3.84,-1.31,-3.81,-1.27,1.09,1.10,0.86,-2.76,-2.72,-2.53
96.34,-3.56,-1.00,-3.57,-1.00,0.90,0.88,0.71,-2.67,-2.67,-2.57
97.30,-3.25,-0.66,-3.27,-0.67,0.71,0.66,0.57,-2.54,-2.56,-2.60
98.28,-2.98,-0.36,-3.02,-0.39,0.52,0.45,0.43,-2.47,-2.50,-2.62
99.26,-2.82,-0.18,-2.85,-0.20,0.31,0.24,0.29,-2.52,-2.54,-2.64
100.25,-2.75,-0.08,-2.73,-0.06,0.09,0.05,0.16,-2.66,-2.64,-2.67
101.25,-2.64,0.05,-2.62,0.08,-0.12,-0.14,0.02,-2.76,-2.74,-2.70
102.27,-2.47,0.25,-2.50,0.24,-0.31,-0.31,-0.11,-2.79,-2.81,-2.73
103.29,-2.34,0.43,-2.34,0.43,-0.48,-0.48,-0.24,-2.83,-2.82,-2.77
104.32,-2.19,0.60,-2.17,0.62,-0.63,-0.64,-0.37,-2.83,-2.81,-2.79
105.37,-2.01,0.82,-2.02,0.81,-0.78,-0.78,-0.50,-2.79,-2.80,-2.83
106.42,-1.87,0.99,-1.89,0.97,-0.91,-0.91,-0.62,-2.79,-2.81,-2.86
107.48,-1.80,1.09,-1.80,1.10,-1.03,-1.04,-0.74,-2.84,-2.84,-2.90
108.56,-1.76,1.17,-1.75,1.18,-1.14,-1.15,-0.86,-2.90,-2.89,-2.94
109.64,-1.72,1.25,-1.73,1.24,-1.24,-1.26,-0.97,-2.96,-2.97,-2.97
110.74,-1.70,1.30,-1.71,1.29,-1.33,-1.35,-1.09,-3.03,-3.04,-3.00
111.85,-1.70,1.33,-1.68,1.36,-1.42,-1.44,-1.19,-3.12,-3.10,-3.03
112.97,-1.62,1.45,-1.63,1.44,-1.50,-1.52,-1.30,-3.13,-3.13,-3.08
114.10,-1.53,1.56,-1.55,1.55,-1.59,-1.59,-1.40,-3.12,-3.14,-3.09
115.24,-1.46,1.67,-1.44,1.69,-1.67,-1.66,-1.49,-3.13,-3.11,-3.13
116.39,-1.34,1.82,-1.33,1.83,-1.75,-1.73,-1.59,-3.09,-3.08,-3.16
117.55,-1.23,1.95,-1.27,1.92,-1.84,-1.79,-1.67,-3.07,-3.11,-3.19
118.73,-1.20,2.01,-1.26,1.95,-1.94,-1.86,-1.75,-3.14,-3.20,-3.21
119.92,-1.32,1.90,-1.26,1.97,-2.03,-1.92,-1.83,-3.35,-3.29,-3.22
121.12,-1.27,1.97,-1.22,2.02,-2.11,-1.98,-1.90,-3.39,-3.33,-3.24
122.33,-1.10,2.16,-1.15,2.10,-2.18,-2.04,-1.96,-3.29,-3.34,-3.26
123.55,-0.98,2.28,-1.01,2.26,-2.23,-2.09,-2.03,-3.22,-3.25,-3.26
124.79,-0.99,2.30,-0.90,2.39,-2.28,-2.15,-2.08,-3.27,-3.17,-3.29
126.03,-0.79,2.51,-0.89,2.42,-2.32,-2.21,-2.13,-3.11,-3.21,-3.30
127.29,-0.87,2.44,-0.94,2.39,-2.35,-2.26,-2.17,-3.23,-3.29,-3.32
128.57,-1.08,2.26,-0.98,2.36,-2.38,-2.31,-2.21,-3.46,-3.35,-3.34
129.85,-1.06,2.29,-1.03,2.32,-2.39,-2.36,-2.24,-3.46,-3.43,-3.35
131.15,-0.96,2.40,-1.05,2.32,-2.40,-2.41,-2.27,-3.36,-3.44,-3.37
132.46,-1.00,2.37,-0.97,2.40,-2.39,-2.45,-2.29,-3.39,-3.36,-3.38
133.79,-1.02,2.36,-0.97,2.42,-2.39,-2.48,-2.30,-3.41,-3.36,-3.38
135.12,-0.87,2.54,-1.01,2.39,-2.40,-2.51,-2.32,-3.28,-3.41,-3.41
136.48,-1.06,2.35,-0.96,2.45,-2.44,-2.54,-2.33,-3.50,-3.40,-3.41
137.84,-1.00,2.43,-0.92,2.51,-2.48,-2.56,-2.33,-3.48,-3.40,-3.43
139.22,-0.81,2.65,-1.02,2.43,-2.50,-2.58,-2.33,-3.31,-3.52,-3.46
140.61,-1.00,2.47,-1.00,2.47,-2.51,-2.58,-2.33,-3.51,-3.50,-3.48
142.02,-1.23,2.24,-0.94,2.54,-2.50,-2.59,-2.33,-3.73,-3.44,-3.48
143.44,-0.74,2.75,-0.90,2.60,-2.51,-2.59,-2.32,-3.26,-3.41,-3.49
144.87,-0.74,2.78,-0.90,2.61,-2.54,-2.58,-2.32,-3.29,-3.45,-3.52
146.32,-1.00,2.54,-1.02,2.53,-2.57,-2.58,-2.31,-3.58,-3.59,-3.55
147.78,-1.33,2.24,-1.14,2.44,-2.60,-2.57,-2.30,-3.94,-3.74,-3.57
149.26,-1.21,2.39,-1.09,2.52,-2.64,-2.58,-2.29,-3.85,-3.73,-3.61
150.75,-0.75,2.91,-0.99,2.66,-2.65,-2.59,-2.28,-3.40,-3.65,-3.66
152.26,-0.86,2.84,-0.89,2.82,-2.66,-2.63,-2.27,-3.52,-3.54,-3.71
153.78,-1.07,2.69,-0.94,2.82,-2.66,-2.66,-2.26,-3.73,-3.60,-3.76
155.32,-1.03,2.79,-1.12,2.70,-2.66,-2.72,-2.25,-3.70,-3.79,-3.82
156.88,-1.24,2.63,-1.21,2.67,-2.69,-2.78,-2.23,-3.93,-3.90,-3.88
158.44,-1.31,2.63,-1.28,2.66,-2.72,-2.86,-2.23,-4.03,-4.00,-3.95
160.03,-1.30,2.71,-1.35,2.66,-2.76,-2.94,-2.22,-4.07,-4.12,-4.01
161.63,-1.37,2.69,-1.35,2.71,-2.83,-3.01,-2.21,-4.20,-4.18,-4.06
163.24,-1.30,2.82,-1.30,2.82,-2.91,-3.09,-2.20,-4.22,-4.21,-4.12
164.88,-1.21,2.94,-1.16,2.99,-3.03,-3.16,-2.20,-4.24,-4.19,-4.15
166.53,-0.95,3.24,-0.97,3.22,-3.13,-3.22,-2.19,-4.09,-4.11,-4.19
168.19,-0.78,3.43,-0.84,3.38,-3.24,-3.27,-2.19,-4.02,-4.08,-4.22
169.87,-0.76,3.48,-0.78,3.47,-3.34,-3.32,-2.19,-4.10,-4.12,-4.25
171.57,-0.83,3.43,-0.80,3.46,-3.42,-3.36,-2.19,-4.26,-4.22,-4.26
173.29,-0.85,3.42,-0.84,3.43,-3.49,-3.39,-2.20,-4.34,-4.33,-4.27
175.02,-0.85,3.42,-0.88,3.40,-3.51,-3.41,-2.20,-4.37,-4.39,-4.28
176.77,-0.86,3.42,-0.87,3.41,-3.50,-3.42,-2.21,-4.36,-4.37,-4.28
178.54,-0.86,3.43,-0.73,3.55,-3.46,-3.43,-2.22,-4.33,-4.20,-4.29
180.32,-0.69,3.58,-0.72,3.56,-3.44,-3.43,-2.23,-4.13,-4.16,-4.28
182.13,-0.48,3.79,-0.79,3.48,-3.43,-3.42,-2.24,-3.91,-4.22,-4.27
183.95,-1.14,3.13,-0.86,3.41,-3.43,-3.41,-2.25,-4.57,-4.29,-4.27
185.79,-1.04,3.23,-0.99,3.29,-3.43,-3.39,-2.27,-4.48,-4.42,-4.28
187.65,-0.85,3.44,-1.04,3.25,-3.43,-3.38,-2.29,-4.28,-4.46,-4.29
189.52,-1.02,3.27,-0.86,3.43,-3.41,-3.35,-2.31,-4.43,-4.27,-4.30
191.42,-0.79,3.51,-0.83,3.47,-3.37,-3.32,-2.33,-4.17,-4.21,-4.31
193.33,-0.74,3.58,-0.88,3.44,-3.35,-3.29,-2.35,-4.09,-4.23,-4.32
195.27,-1.00,3.33,-0.91,3.43,-3.33,-3.26,-2.37,-4.33,-4.24,-4.33
197.22,-1.07,3.28,-1.02,3.33,-3.32,-3.22,-2.40,-4.39,-4.34,-4.35
199.19,-1.05,3.32,-1.14,3.23,-3.31,-3.18,-2.43,-4.36,-4.45,-4.37
201.18,-1.19,3.19,-1.22,3.17,-3.28,-3.14,-2.45,-4.47,-4.50,-4.39
203.19,-1.33,3.06,-1.24,3.16,-3.23,-3.10,-2.48,-4.56,-4.47,-4.40
205.23,-1.28,3.14,-1.22,3.20,-3.20,-3.06,-2.51,-4.48,-4.41,-4.43
207.28,-1.07,3.35,-1.22,3.21,-3.17,-3.01,-2.54,-4.25,-4.39,-4.43
209.35,-1.18,3.27,-1.22,3.24,-3.15,-2.97,-2.57,-4.33,-4.36,-4.46
211.44,-1.43,3.04,-1.27,3.20,-3.13,-2.92,-2.60,-4.57,-4.40,-4.47
213.56,-1.29,3.19,-1.41,3.08,-3.12,-2.87,-2.63,-4.41,-4.52,-4.48
215.69,-1.42,3.07,-1.48,3.02,-3.08,-2.83,-2.66,-4.51,-4.56,-4.49
217.85,-1.61,2.89,-1.45,3.06,-3.05,-2.78,-2.69,-4.66,-4.50,-4.50
220.03,-1.46,3.05,-1.50,3.02,-3.03,-2.73,-2.72,-4.49,-4.52,-4.52
222.23,-1.37,3.15,-1.55,2.97,-3.01,-2.68,-2.75,-4.39,-4.57,-4.53
224.45,-1.65,2.86,-1.54,2.98,-3.00,-2.63,-2.77,-4.66,-4.54,-4.51
226.70,-1.70,2.81,-1.58,2.93,-2.97,-2.59,-2.79,-4.68,-4.56,-4.51
228.96,-1.42,3.08,-1.59,2.91,-2.92,-2.54,-2.82,-4.34,-4.51,-4.51
231.25,-1.59,2.90,-1.52,2.97,-2.83,-2.49,-2.83,-4.42,-4.35,-4.49
233.57,-1.55,2.93,-1.54,2.95,-2.74,-2.44,-2.85,-4.29,-4.28,-4.48
235.90,-1.62,2.84,-1.71,2.76,-2.67,-2.40,-2.86,-4.30,-4.38,-4.47
238.26,-1.86,2.58,-1.92,2.52,-2.62,-2.35,-2.88,-4.49,-4.55,-4.44
240.64,-2.19,2.23,-2.10,2.31,-2.57,-2.31,-2.88,-4.77,-4.68,-4.42
243.05,-2.24,2.14,-2.08,2.31,-2.53,-2.26,-2.89,-4.77,-4.61,-4.38
245.48,-1.87,2.49,-1.95,2.41,-2.47,-2.22,-2.88,-4.34,-4.42,-4.36
247.93,-1.60,2.73,-1.75,2.58,-2.41,-2.17,-2.88,-4.02,-4.17,-4.34
250.41,-1.79,2.53,-1.68,2.63,-2.38,-2.13,-2.87,-4.18,-4.06,-4.32
252.92,-1.70,2.58,-1.78,2.51,-2.38,-2.09,-2.86,-4.08,-4.16,-4.29
255.45,-1.94,2.32,-1.93,2.34,-2.38,-2.05,-2.85,-4.32,-4.31,-4.26
258.00,-2.06,2.18,-2.03,2.21,-2.36,-2.00,-2.83,-4.42,-4.39,-4.24
260.58,-2.08,2.15,-2.07,2.15,-2.31,-1.96,-2.80,-4.39,-4.38,-4.23
263.19,-2.06,2.14,-1.99,2.22,-2.23,-1.92,-2.78,-4.30,-4.22,-4.20
265.82,-1.85,2.33,-1.94,2.25,-2.16,-1.89,-2.75,-4.01,-4.09,-4.19
268.48,-1.88,2.28,-1.96,2.20,-2.10,-1.85,-2.71,-3.98,-4.06,-4.16
271.16,-2.10,2.03,-2.04,2.10,-2.05,-1.81,-2.68,-4.15,-4.09,-4.14
273.87,-2.19,1.92,-2.15,1.96,-2.00,-1.77,-2.64,-4.19,-4.15,-4.12
276.61,-2.19,1.90,-2.21,1.88,-1.93,-1.74,-2.60,-4.12,-4.14,-4.09
279.38,-2.19,1.87,-2.22,1.85,-1.85,-1.70,-2.55,-4.04,-4.07,-4.07
282.17,-2.26,1.79,-2.25,1.79,-1.77,-1.67,-2.51,-4.04,-4.02,-4.05
284.99,-2.28,1.73,-2.30,1.72,-1.72,-1.63,-2.46,-4.00,-4.01,-4.01
287.84,-2.35,1.63,-2.34,1.65,-1.68,-1.60,-2.41,-4.04,-4.02,-3.99
290.72,-2.35,1.59,-2.37,1.58,-1.66,-1.57,-2.36,-4.02,-4.03,-3.95
293.63,-2.34,1.58,-2.34,1.58,-1.64,-1.54,-2.31,-3.98,-3.98,-3.92
296.57,-2.33,1.55,-2.24,1.65,-1.60,-1.51,-2.26,-3.94,-3.84,-3.88
299.53,-2.11,1.75,-2.19,1.67,-1.56,-1.48,-2.20,-3.68,-3.75,-3.87
302.53,-2.10,1.74,-2.20,1.63,-1.53,-1.45,-2.15,-3.63,-3.73,-3.84
305.55,-2.35,1.45,-2.26,1.55,-1.51,-1.42,-2.10,-3.87,-3.77,-3.80
308.61,-2.38,1.40,-2.36,1.42,-1.50,-1.39,-2.04,-3.89,-3.86,-3.78
311.69,-2.38,1.38,-2.41,1.35,-1.48,-1.36,-1.99,-3.87,-3.89,-3.77
314.81,-2.37,1.35,-2.39,1.34,-1.44,-1.34,-1.94,-3.82,-3.84,-3.73
317.96,-2.37,1.35,-2.34,1.38,-1.38,-1.31,-1.89,-3.76,-3.72,-3.72
321.14,-2.31,1.39,-2.24,1.46,-1.32,-1.28,-1.83,-3.64,-3.56,-3.70
324.35,-2.14,1.55,-2.25,1.44,-1.27,-1.26,-1.78,-3.41,-3.52,-3.69
327.59,-2.25,1.42,-2.38,1.30,-1.22,-1.24,-1.73,-3.47,-3.60,-3.68
330.87,-2.67,0.99,-2.54,1.13,-1.17,-1.21,-1.68,-3.84,-3.71,-3.67
334.18,-2.76,0.90,-2.67,0.99,-1.13,-1.19,-1.63,-3.89,-3.80,-3.66
337.52,-2.60,1.05,-2.68,0.97,-1.09,-1.17,-1.59,-3.69,-3.77,-3.65
340.90,-2.57,1.06,-2.60,1.04,-1.07,-1.15,-1.54,-3.64,-3.67,-3.63
344.30,-2.57,1.05,-2.58,1.05,-1.06,-1.12,-1.49,-3.63,-3.64,-3.62
347.75,-2.57,1.04,-2.57,1.05,-1.06,-1.10,-1.45,-3.63,-3.63,-3.62
351.23,-2.57,1.03,-2.48,1.13,-1.07,-1.08,-1.40,-3.65,-3.56,-3.61
354.74,-2.38,1.22,-2.42,1.19,-1.09,-1.06,-1.36,-3.47,-3.51,-3.61
358.28,-2.29,1.31,-2.43,1.18,-1.09,-1.05,-1.32,-3.38,-3.51,-3.60
361.87,-2.55,1.05,-2.49,1.11,-1.07,-1.03,-1.28,-3.63,-3.56,-3.60
365.49,-2.65,0.94,-2.60,1.00,-1.04,-1.01,-1.24,-3.70,-3.64,-3.59
369.14,-2.64,0.95,-2.66,0.93,-1.01,-0.99,-1.20,-3.66,-3.68,-3.59
372.83,-2.63,0.96,-2.64,0.95,-0.99,-0.98,-1.16,-3.62,-3.63,-3.60
376.56,-2.62,0.97,-2.62,0.97,-0.97,-0.96,-1.13,-3.60,-3.60,-3.60
380.33,-2.61,0.96,-2.62,0.97,-0.97,-0.94,-1.09,-3.59,-3.59,-3.58
384.13,-2.61,0.97,-2.62,0.97,-0.99,-0.93,-1.06,-3.61,-3.61,-3.59
387.97,-2.60,0.99,-2.61,0.97,-1.01,-0.91,-1.03,-3.62,-3.62,-3.59
391.85,-2.60,0.99,-2.55,1.04,-1.03,-0.90,-0.99,-3.63,-3.58,-3.59
