frequency,raw,error,smoothed,error_smoothed,equalization,parametric_eq,fixed_band_eq,equalized_raw,equalized_smoothed,target
20.00,-12.62,-17.73,-12.61,-17.73,6.00,4.92,2.75,-6.62,-6.61,5.11
20.20,-12.48,-17.60,-12.48,-17.60,6.00,4.97,2.82,-6.48,-6.48,5.12
20.40,-12.33,-17.46,-12.34,-17.46,6.00,5.02,2.90,-6.33,-6.34,5.13
20.61,-12.20,-17.33,-12.20,-17.33,6.00,5.07,2.99,-6.20,-6.20,5.13
20.81,-12.05,-17.19,-12.06,-17.19,6.00,5.11,3.07,-6.05,-6.06,5.14
21.02,-11.92,-17.06,-11.91,-17.05,6.00,5.16,3.16,-5.92,-5.91,5.14
21.23,-11.77,-16.91,-11.76,-16.91,6.00,5.21,3.25,-5.77,-5.76,5.15
21.44,-11.61,-16.76,-11.62,-16.76,6.00,5.26,3.34,-5.61,-5.62,5.15
21.66,-11.47,-16.62,-11.47,-16.62,6.00,5.30,3.44,-5.47,-5.47,5.15
21.87,-11.32,-16.47,-11.32,-16.48,6.00,5.35,3.53,-5.32,-5.32,5.15
22.09,-11.18,-16.34,-11.19,-16.34,6.00,5.40,3.63,-5.18,-5.19,5.16
22.31,-11.05,-16.21,-11.05,-16.21,6.00,5.44,3.74,-5.05,-5.05,5.16
22.54,-10.93,-16.08,-10.92,-16.07,6.00,5.48,3.84,-4.93,-4.92,5.15
22.76,-10.79,-15.93,-10.79,-15.94,6.00,5.53,3.95,-4.79,-4.79,5.14
22.99,-10.67,-15.80,-10.67,-15.80,6.00,5.57,4.06,-4.67,-4.67,5.14
23.22,-10.54,-15.67,-10.54,-15.67,6.00,5.61,4.18,-4.54,-4.54,5.14
23.45,-10.41,-15.54,-10.42,-15.55,6.00,5.65,4.29,-4.41,-4.42,5.13
23.69,-10.30,-15.42,-10.30,-15.42,6.00,5.69,4.41,-4.30,-4.30,5.13
23.92,-10.17,-15.30,-10.17,-15.30,6.00,5.72,4.53,-4.17,-4.17,5.13
24.16,-10.04,-15.17,-10.04,-15.17,6.00,5.76,4.66,-4.04,-4.04,5.13
24.40,-9.91,-15.04,-9.92,-15.04,6.00,5.79,4.78,-3.91,-3.92,5.12
24.65,-9.79,-14.91,-9.79,-14.91,6.00,5.83,4.91,-3.79,-3.79,5.12
24.89,-9.66,-14.79,-9.66,-14.78,6.00,5.86,5.04,-3.66,-3.66,5.12
25.14,-9.53,-14.66,-9.54,-14.66,6.00,5.89,5.17,-3.53,-3.54,5.12
25.39,-9.41,-14.53,-9.41,-14.53,6.00,5.92,5.30,-3.41,-3.41,5.11
25.65,-9.30,-14.41,-9.29,-14.40,6.00,5.94,5.43,-3.30,-3.29,5.11
25.91,-9.17,-14.28,-9.17,-14.28,6.00,5.97,5.57,-3.17,-3.17,5.11
26.16,-9.04,-14.15,-9.04,-14.16,6.00,5.99,5.70,-3.04,-3.04,5.11
26.43,-8.92,-14.03,-8.92,-14.03,6.00,6.01,5.84,-2.92,-2.92,5.11
26.69,-8.80,-13.91,-8.79,-13.90,6.00,6.03,5.97,-2.80,-2.79,5.11
26.96,-8.67,-13.78,-8.67,-13.78,6.00,6.04,6.10,-2.67,-2.67,5.11
27.23,-8.54,-13.65,-8.53,-13.64,6.00,6.06,6.23,-2.54,-2.53,5.11
27.50,-8.40,-13.50,-8.40,-13.51,6.00,6.07,6.35,-2.40,-2.40,5.11
27.77,-8.26,-13.37,-8.26,-13.37,6.00,6.08,6.47,-2.26,-2.26,5.11
28.05,-8.13,-13.24,-8.13,-13.24,6.00,6.09,6.59,-2.13,-2.13,5.11
28.33,-8.00,-13.11,-8.01,-13.11,6.00,6.09,6.71,-2.00,-2.01,5.11
28.62,-7.89,-12.99,-7.88,-12.99,6.00,6.09,6.81,-1.89,-1.88,5.10
28.90,-7.75,-12.87,-7.76,-12.87,6.00,6.09,6.91,-1.75,-1.76,5.11
29.19,-7.63,-12.74,-7.62,-12.74,6.00,6.09,7.01,-1.63,-1.62,5.11
29.48,-7.48,-12.60,-7.48,-12.60,6.00,6.08,7.09,-1.48,-1.48,5.11
29.78,-7.35,-12.47,-7.35,-12.47,6.00,6.07,7.17,-1.35,-1.35,5.12
30.08,-7.22,-12.34,-7.22,-12.34,6.00,6.06,7.23,-1.22,-1.22,5.12
30.38,-7.11,-12.23,-7.11,-12.23,6.00,6.05,7.29,-1.11,-1.11,5.12
30.68,-7.00,-12.11,-7.00,-12.11,6.00,6.04,7.33,-1.00,-1.00,5.12
30.99,-6.89,-12.00,-6.88,-12.00,6.00,6.02,7.37,-0.89,-0.88,5.12
31.30,-6.77,-11.88,-6.76,-11.88,6.00,6.00,7.39,-0.77,-0.76,5.12
31.61,-6.64,-11.75,-6.64,-11.75,6.00,5.98,7.40,-0.64,-0.64,5.11
31.93,-6.51,-11.62,-6.51,-11.62,6.00,5.96,7.41,-0.51,-0.51,5.11
32.24,-6.37,-11.48,-6.38,-11.48,6.00,5.94,7.40,-0.37,-0.38,5.10
32.57,-6.26,-11.36,-6.25,-11.35,6.00,5.92,7.38,-0.26,-0.25,5.10
32.89,-6.12,-11.22,-6.13,-11.22,6.00,5.89,7.35,-0.12,-0.13,5.10
33.22,-6.00,-11.09,-6.00,-11.09,6.00,5.87,7.31,-0.00,-0.00,5.09
33.55,-5.87,-10.96,-5.88,-10.96,6.00,5.85,7.26,0.13,0.12,5.09
33.89,-5.76,-10.83,-5.76,-10.83,6.00,5.83,7.21,0.24,0.24,5.07
34.23,-5.64,-10.71,-5.63,-10.71,6.00,5.81,7.15,0.36,0.37,5.07
34.57,-5.51,-10.58,-5.51,-10.58,6.00,5.80,7.08,0.49,0.49,5.07
34.92,-5.39,-10.46,-5.38,-10.45,6.00,5.78,7.00,0.61,0.62,5.07
35.27,-5.26,-10.32,-5.26,-10.32,6.00,5.77,6.93,0.74,0.74,5.07
35.62,-5.13,-10.19,-5.13,-10.19,6.00,5.76,6.84,0.87,0.87,5.06
35.97,-4.99,-10.06,-4.99,-10.06,6.00,5.75,6.76,1.01,1.01,5.06
36.33,-4.86,-9.92,-4.86,-9.92,6.00,5.75,6.67,1.14,1.14,5.06
36.70,-4.74,-9.79,-4.74,-9.79,6.00,5.74,6.58,1.26,1.26,5.06
37.06,-4.61,-9.67,-4.61,-9.67,6.00,5.74,6.49,1.39,1.39,5.06
37.43,-4.49,-9.55,-4.50,-9.55,6.00,5.74,6.40,1.51,1.50,5.05
37.81,-4.38,-9.44,-4.38,-9.43,6.00,5.74,6.31,1.62,1.62,5.06
38.19,-4.26,-9.31,-4.25,-9.31,6.00,5.75,6.22,1.74,1.75,5.06
38.57,-4.13,-9.18,-4.12,-9.18,6.00,5.75,6.14,1.87,1.88,5.06
38.95,-3.99,-9.06,-4.00,-9.06,6.00,5.75,6.05,2.01,2.00,5.06
39.34,-3.89,-8.95,-3.90,-8.96,6.00,5.76,5.97,2.11,2.10,5.06
39.74,-3.81,-8.86,-3.80,-8.86,6.00,5.76,5.89,2.19,2.20,5.06
40.14,-3.73,-8.78,-3.73,-8.78,6.00,5.77,5.81,2.27,2.27,5.05
40.54,-3.65,-8.70,-3.65,-8.70,6.00,5.77,5.74,2.35,2.35,5.05
40.94,-3.57,-8.62,-3.56,-8.60,6.00,5.78,5.66,2.43,2.44,5.05
41.35,-3.43,-8.48,-3.43,-8.47,6.00,5.78,5.60,2.57,2.57,5.04
41.76,-3.28,-8.31,-3.29,-8.32,6.00,5.78,5.53,2.72,2.71,5.03
42.18,-3.13,-8.16,-3.14,-8.17,6.00,5.79,5.47,2.87,2.86,5.03
42.60,-3.01,-8.04,-3.01,-8.03,6.00,5.79,5.41,2.99,2.99,5.02
43.03,-2.89,-7.90,-2.88,-7.89,6.00,5.79,5.36,3.11,3.12,5.02
43.46,-2.76,-7.77,-2.75,-7.76,6.00,5.80,5.31,3.24,3.25,5.01
43.90,-2.62,-7.62,-2.64,-7.64,6.00,5.80,5.27,3.38,3.36,5.00
44.33,-2.55,-7.54,-2.55,-7.55,6.00,5.81,5.22,3.45,3.45,4.99
44.78,-2.50,-7.48,-2.48,-7.47,6.00,5.81,5.19,3.50,3.52,4.99
45.23,-2.42,-7.40,-2.40,-7.38,6.00,5.82,5.15,3.58,3.60,4.98
45.68,-2.30,-7.27,-2.31,-7.29,6.00,5.82,5.12,3.70,3.69,4.98
46.13,-2.21,-7.19,-2.23,-7.21,6.00,5.83,5.10,3.79,3.77,4.98
46.60,-2.17,-7.14,-2.16,-7.14,6.00,5.84,5.08,3.83,3.84,4.98
47.06,-2.11,-7.10,-2.07,-7.06,6.00,5.85,5.06,3.89,3.93,4.98
47.53,-1.97,-6.96,-1.98,-6.96,6.00,5.86,5.04,4.03,4.02,4.98
48.01,-1.84,-6.82,-1.88,-6.87,6.00,5.87,5.03,4.16,4.12,4.99
48.49,-1.82,-6.81,-1.81,-6.80,6.00,5.89,5.02,4.18,4.19,4.99
48.97,-1.79,-6.78,-1.75,-6.74,6.00,5.90,5.02,4.21,4.25,5.00
49.46,-1.70,-6.69,-1.69,-6.69,6.00,5.92,5.02,4.30,4.31,5.00
49.96,-1.60,-6.61,-1.64,-6.64,6.00,5.94,5.02,4.40,4.36,5.01
50.46,-1.59,-6.60,-1.59,-6.61,6.00,5.95,5.02,4.41,4.41,5.01
50.96,-1.59,-6.61,-1.54,-6.57,6.00,5.97,5.03,4.41,4.46,5.03
51.47,-1.50,-6.52,-1.49,-6.52,6.00,5.98,5.03,4.50,4.51,5.03
51.99,-1.40,-6.42,-1.44,-6.47,6.00,5.99,5.04,4.61,4.57,5.03
52.51,-1.39,-6.42,-1.39,-6.42,6.01,5.99,5.05,4.62,4.62,5.03
53.03,-1.39,-6.42,-1.37,-6.40,6.01,5.99,5.07,4.63,4.65,5.03
53.56,-1.33,-6.36,-1.32,-6.36,6.02,5.98,5.08,4.69,4.69,5.03
54.10,-1.25,-6.29,-1.23,-6.27,6.01,5.96,5.09,4.77,4.78,5.04
54.64,-1.11,-6.15,-1.11,-6.15,6.00,5.93,5.10,4.89,4.88,5.04
55.18,-0.99,-6.03,-1.00,-6.04,5.97,5.90,5.11,4.98,4.96,5.04
55.74,-0.92,-5.95,-0.92,-5.95,5.92,5.85,5.12,5.00,5.00,5.03
56.29,-0.85,-5.87,-0.85,-5.88,5.85,5.78,5.13,5.01,5.00,5.03
56.86,-0.79,-5.81,-0.77,-5.79,5.78,5.71,5.14,4.99,5.01,5.03
57.42,-0.67,-5.69,-0.67,-5.68,5.69,5.63,5.14,5.01,5.02,5.02
58.00,-0.55,-5.55,-0.56,-5.56,5.59,5.54,5.14,5.04,5.03,5.00
58.58,-0.45,-5.44,-0.45,-5.44,5.48,5.44,5.14,5.03,5.03,4.99
59.16,-0.36,-5.33,-0.36,-5.34,5.36,5.34,5.13,5.01,5.00,4.98
59.76,-0.30,-5.26,-0.29,-5.25,5.24,5.23,5.12,4.95,4.95,4.96
60.35,-0.22,-5.15,-0.21,-5.16,5.12,5.12,5.11,4.91,4.91,4.94
60.96,-0.14,-5.05,-0.12,-5.03,5.00,5.00,5.09,4.87,4.89,4.91
61.57,0.00,-4.89,-0.00,-4.89,4.88,4.89,5.06,4.89,4.88,4.89
62.18,0.12,-4.73,0.11,-4.75,4.76,4.77,5.04,4.89,4.87,4.85
62.80,0.20,-4.61,0.20,-4.61,4.64,4.66,5.00,4.85,4.84,4.82
63.43,0.26,-4.51,0.27,-4.50,4.52,4.55,4.96,4.78,4.79,4.77
64.07,0.33,-4.40,0.33,-4.40,4.40,4.43,4.92,4.74,4.74,4.73
64.71,0.39,-4.29,0.40,-4.29,4.29,4.33,4.87,4.68,4.69,4.69
65.35,0.46,-4.18,0.46,-4.19,4.18,4.22,4.81,4.65,4.64,4.65
66.01,0.52,-4.09,0.53,-4.08,4.08,4.11,4.75,4.60,4.60,4.61
66.67,0.59,-3.98,0.59,-3.98,3.98,4.01,4.69,4.57,4.57,4.57
67.33,0.65,-3.89,0.66,-3.88,3.87,3.91,4.62,4.53,4.53,4.54
68.01,0.72,-3.78,0.73,-3.78,3.77,3.82,4.54,4.50,4.50,4.50
68.69,0.79,-3.68,0.80,-3.68,3.68,3.72,4.47,4.47,4.47,4.47
69.37,0.86,-3.58,0.87,-3.57,3.59,3.63,4.39,4.45,4.45,4.44
70.07,0.93,-3.47,0.93,-3.48,3.50,3.54,4.31,4.44,4.43,4.41
70.77,0.97,-3.40,0.97,-3.41,3.42,3.45,4.22,4.39,4.39,4.38
71.48,1.00,-3.35,1.01,-3.34,3.34,3.36,4.13,4.34,4.35,4.35
72.19,1.04,-3.27,1.04,-3.28,3.26,3.27,4.05,4.31,4.30,4.32
72.91,1.07,-3.21,1.08,-3.21,3.18,3.19,3.96,4.26,4.26,4.28
73.64,1.12,-3.13,1.13,-3.12,3.11,3.11,3.86,4.23,4.24,4.25
74.38,1.18,-3.03,1.18,-3.03,3.03,3.02,3.77,4.22,4.21,4.21
75.12,1.23,-2.94,1.23,-2.95,2.96,2.94,3.68,4.19,4.19,4.18
75.87,1.26,-2.87,1.27,-2.86,2.89,2.86,3.59,4.15,4.16,4.13
76.63,1.30,-2.79,1.30,-2.79,2.81,2.79,3.50,4.11,4.11,4.09
77.40,1.33,-2.71,1.32,-2.73,2.73,2.71,3.41,4.07,4.05,4.05
78.17,1.33,-2.67,1.33,-2.67,2.65,2.63,3.32,3.99,3.99,4.01
78.95,1.33,-2.63,1.35,-2.61,2.58,2.56,3.23,3.91,3.93,3.96
79.74,1.38,-2.54,1.39,-2.53,2.50,2.48,3.14,3.89,3.89,3.92
80.54,1.44,-2.43,1.44,-2.43,2.43,2.41,3.05,3.87,3.87,3.87
81.35,1.49,-2.34,1.49,-2.34,2.36,2.34,2.96,3.86,3.85,3.83
82.16,1.53,-2.25,1.52,-2.26,2.30,2.27,2.88,3.83,3.82,3.79
82.98,1.53,-2.21,1.54,-2.21,2.24,2.20,2.79,3.77,3.78,3.75
83.81,1.53,-2.17,1.54,-2.17,2.18,2.13,2.71,3.72,3.72,3.70
84.65,1.53,-2.14,1.53,-2.13,2.13,2.06,2.63,3.66,3.66,3.67
85.50,1.53,-2.09,1.53,-2.09,2.07,2.00,2.55,3.61,3.61,3.63
86.35,1.53,-2.05,1.52,-2.06,2.02,1.93,2.47,3.56,3.55,3.58
87.22,1.53,-2.01,1.54,-2.00,1.97,1.87,2.40,3.50,3.51,3.54
88.09,1.54,-1.95,1.58,-1.92,1.91,1.81,2.32,3.46,3.49,3.49
88.97,1.65,-1.81,1.62,-1.84,1.86,1.75,2.25,3.51,3.47,3.46
89.86,1.65,-1.76,1.64,-1.77,1.80,1.70,2.18,3.45,3.44,3.41
90.76,1.63,-1.73,1.65,-1.72,1.74,1.64,2.11,3.37,3.40,3.37
91.66,1.64,-1.69,1.64,-1.69,1.69,1.59,2.04,3.33,3.33,3.33
92.58,1.64,-1.65,1.64,-1.65,1.64,1.54,1.97,3.28,3.28,3.29
93.51,1.64,-1.60,1.65,-1.60,1.60,1.50,1.91,3.24,3.24,3.25
94.44,1.64,-1.56,1.64,-1.57,1.56,1.46,1.85,3.21,3.20,3.21
95.39,1.64,-1.53,1.64,-1.53,1.53,1.42,1.79,3.17,3.17,3.17
96.34,1.63,-1.50,1.64,-1.49,1.50,1.38,1.73,3.13,3.13,3.13
97.30,1.63,-1.46,1.63,-1.46,1.46,1.35,1.67,3.10,3.09,3.09
98.28,1.62,-1.42,1.62,-1.43,1.43,1.32,1.61,3.06,3.05,3.05
99.26,1.60,-1.40,1.61,-1.40,1.40,1.29,1.56,3.00,3.01,3.01
100.25,1.59,-1.37,1.59,-1.37,1.37,1.27,1.50,2.97,2.96,2.97
101.25,1.57,-1.35,1.58,-1.35,1.34,1.25,1.45,2.92,2.92,2.93
102.27,1.56,-1.32,1.56,-1.32,1.31,1.23,1.40,2.88,2.88,2.88
103.29,1.54,-1.29,1.54,-1.29,1.28,1.22,1.35,2.83,2.83,2.83
104.32,1.52,-1.26,1.53,-1.26,1.26,1.20,1.31,2.78,2.78,2.78
105.37,1.50,-1.24,1.50,-1.24,1.23,1.19,1.26,2.74,2.73,2.74
106.42,1.47,-1.22,1.48,-1.21,1.21,1.18,1.22,2.69,2.69,2.69
107.48,1.45,-1.19,1.46,-1.18,1.20,1.18,1.17,2.65,2.66,2.64
108.56,1.43,-1.16,1.44,-1.16,1.19,1.17,1.13,2.62,2.63,2.59
109.64,1.41,-1.13,1.39,-1.16,1.18,1.17,1.09,2.59,2.57,2.54
110.74,1.33,-1.17,1.33,-1.17,1.17,1.16,1.06,2.50,2.50,2.51
111.85,1.24,-1.22,1.28,-1.18,1.16,1.16,1.02,2.40,2.44,2.47
112.97,1.25,-1.17,1.25,-1.18,1.14,1.16,0.99,2.39,2.39,2.43
114.10,1.25,-1.13,1.24,-1.15,1.12,1.16,0.95,2.37,2.36,2.39
115.24,1.25,-1.11,1.26,-1.10,1.10,1.16,0.92,2.35,2.36,2.36
116.39,1.25,-1.07,1.26,-1.07,1.08,1.16,0.89,2.33,2.34,2.32
117.55,1.26,-1.04,1.26,-1.04,1.06,1.17,0.87,2.32,2.32,2.30
118.73,1.26,-1.01,1.28,-1.00,1.04,1.17,0.84,2.31,2.32,2.28
119.92,1.27,-0.99,1.27,-0.99,1.02,1.17,0.82,2.30,2.29,2.26
121.12,1.26,-0.98,1.23,-1.01,1.01,1.17,0.80,2.27,2.24,2.24
122.33,1.17,-1.05,1.20,-1.03,1.00,1.17,0.78,2.17,2.20,2.23
123.55,1.15,-1.06,1.18,-1.03,0.99,1.18,0.76,2.14,2.17,2.21
124.79,1.19,-1.00,1.18,-1.02,0.98,1.18,0.75,2.18,2.16,2.20
126.03,1.20,-0.98,1.21,-0.97,0.98,1.18,0.74,2.18,2.19,2.18
127.29,1.21,-0.95,1.22,-0.95,0.98,1.18,0.72,2.19,2.20,2.17
128.57,1.22,-0.93,1.21,-0.95,0.99,1.18,0.72,2.21,2.19,2.15
129.85,1.16,-0.97,1.17,-0.97,1.00,1.19,0.71,2.16,2.17,2.14
131.15,1.12,-1.00,1.13,-1.00,1.02,1.19,0.70,2.14,2.14,2.13
132.46,1.06,-1.04,1.08,-1.03,1.03,1.19,0.70,2.09,2.11,2.10
133.79,1.04,-1.05,1.02,-1.07,1.04,1.19,0.70,2.09,2.06,2.09
135.12,0.97,-1.10,0.97,-1.10,1.05,1.19,0.70,2.03,2.02,2.07
136.48,0.91,-1.14,0.94,-1.12,1.06,1.20,0.70,1.98,2.00,2.06
137.84,0.93,-1.10,0.93,-1.11,1.08,1.20,0.70,2.01,2.00,2.04
139.22,0.95,-1.06,0.97,-1.05,1.09,1.20,0.71,2.04,2.06,2.02
140.61,0.98,-1.02,1.00,-1.00,1.10,1.20,0.71,2.08,2.10,2.00
142.02,1.03,-0.95,0.94,-1.04,1.10,1.20,0.72,2.14,2.05,1.98
143.44,0.83,-1.12,0.85,-1.10,1.10,1.20,0.73,1.94,1.95,1.95
144.87,0.68,-1.24,0.76,-1.16,1.10,1.20,0.74,1.79,1.86,1.93
146.32,0.72,-1.17,0.71,-1.19,1.10,1.21,0.75,1.82,1.81,1.90
147.78,0.75,-1.11,0.73,-1.13,1.09,1.21,0.77,1.85,1.82,1.86
149.26,0.75,-1.07,0.76,-1.07,1.09,1.21,0.78,1.84,1.85,1.83
150.75,0.75,-1.03,0.75,-1.03,1.07,1.21,0.80,1.83,1.82,1.78
152.26,0.72,-1.00,0.72,-1.01,1.05,1.21,0.81,1.77,1.77,1.73
153.78,0.66,-1.01,0.66,-1.01,1.02,1.21,0.83,1.69,1.69,1.67
155.32,0.60,-1.01,0.62,-0.99,1.00,1.22,0.85,1.60,1.62,1.61
156.88,0.55,-1.00,0.56,-1.00,0.97,1.22,0.87,1.53,1.53,1.56
158.44,0.55,-0.94,0.51,-0.99,0.97,1.22,0.89,1.52,1.47,1.50
160.03,0.42,-1.02,0.48,-0.96,0.96,1.22,0.91,1.38,1.44,1.45
161.63,0.45,-0.95,0.45,-0.95,0.95,1.23,0.93,1.41,1.40,1.40
163.24,0.45,-0.90,0.41,-0.95,0.95,1.23,0.95,1.41,1.36,1.35
164.88,0.35,-0.97,0.40,-0.93,0.95,1.23,0.98,1.31,1.35,1.32
166.53,0.34,-0.95,0.35,-0.95,0.96,1.24,1.00,1.30,1.31,1.30
168.19,0.33,-0.94,0.29,-0.99,0.97,1.24,1.03,1.31,1.26,1.28
169.87,0.24,-1.02,0.27,-1.00,0.99,1.24,1.06,1.24,1.26,1.27
171.57,0.19,-1.07,0.23,-1.03,1.03,1.25,1.08,1.22,1.26,1.26
173.29,0.24,-1.02,0.20,-1.07,1.08,1.25,1.11,1.32,1.28,1.26
175.02,0.17,-1.10,0.18,-1.10,1.13,1.26,1.14,1.31,1.31,1.28
176.77,0.11,-1.18,0.14,-1.15,1.18,1.26,1.17,1.29,1.33,1.29
178.54,0.10,-1.20,0.08,-1.23,1.22,1.27,1.20,1.32,1.30,1.31
180.32,0.04,-1.29,0.02,-1.30,1.25,1.27,1.23,1.30,1.28,1.33
182.13,-0.05,-1.39,-0.02,-1.37,1.30,1.28,1.26,1.25,1.28,1.35
183.95,-0.04,-1.41,-0.01,-1.37,1.34,1.28,1.30,1.31,1.33,1.37
185.79,0.02,-1.35,0.05,-1.33,1.38,1.29,1.33,1.40,1.42,1.38
187.65,0.13,-1.25,0.07,-1.32,1.40,1.30,1.37,1.53,1.46,1.38
189.52,0.06,-1.33,0.01,-1.38,1.41,1.30,1.40,1.48,1.42,1.39
191.42,-0.15,-1.53,-0.08,-1.47,1.43,1.31,1.44,1.28,1.35,1.39
193.33,-0.18,-1.57,-0.14,-1.53,1.46,1.32,1.47,1.28,1.32,1.40
195.27,-0.12,-1.51,-0.10,-1.49,1.48,1.33,1.51,1.37,1.38,1.39
197.22,-0.02,-1.40,-0.06,-1.45,1.51,1.33,1.55,1.49,1.45,1.38
199.19,-0.03,-1.41,-0.10,-1.48,1.53,1.34,1.59,1.51,1.43,1.38
201.18,-0.24,-1.61,-0.19,-1.57,1.55,1.35,1.62,1.31,1.35,1.37
203.19,-0.34,-1.70,-0.27,-1.64,1.56,1.36,1.66,1.23,1.29,1.36
205.23,-0.29,-1.64,-0.28,-1.63,1.58,1.37,1.70,1.30,1.31,1.35
207.28,-0.21,-1.55,-0.23,-1.57,1.62,1.38,1.74,1.41,1.39,1.34
209.35,-0.19,-1.52,-0.23,-1.56,1.65,1.39,1.78,1.47,1.42,1.33
211.44,-0.32,-1.63,-0.32,-1.63,1.68,1.40,1.81,1.36,1.36,1.31
213.56,-0.45,-1.75,-0.43,-1.73,1.70,1.41,1.85,1.25,1.27,1.31
215.69,-0.55,-1.83,-0.51,-1.79,1.72,1.42,1.89,1.17,1.21,1.29
217.85,-0.51,-1.79,-0.51,-1.79,1.74,1.43,1.93,1.23,1.23,1.28
220.03,-0.49,-1.75,-0.50,-1.77,1.77,1.44,1.96,1.28,1.27,1.26
222.23,-0.48,-1.73,-0.49,-1.75,1.80,1.46,1.99,1.32,1.30,1.25
224.45,-0.55,-1.79,-0.54,-1.78,1.82,1.47,2.03,1.27,1.29,1.25
226.70,-0.58,-1.82,-0.59,-1.83,1.84,1.48,2.06,1.27,1.25,1.24
228.96,-0.67,-1.90,-0.64,-1.88,1.86,1.49,2.09,1.20,1.22,1.23
231.25,-0.67,-1.90,-0.65,-1.88,1.88,1.51,2.12,1.22,1.24,1.24
233.57,-0.66,-1.89,-0.67,-1.90,1.91,1.52,2.14,1.25,1.24,1.23
235.90,-0.65,-1.88,-0.71,-1.95,1.93,1.53,2.17,1.29,1.22,1.24
238.26,-0.81,-2.04,-0.76,-2.00,1.95,1.55,2.19,1.15,1.20,1.24
240.64,-0.81,-2.06,-0.75,-2.00,1.97,1.56,2.21,1.17,1.22,1.25
243.05,-0.72,-1.97,-0.71,-1.96,1.99,1.58,2.22,1.27,1.28,1.26
245.48,-0.60,-1.86,-0.69,-1.95,2.00,1.59,2.24,1.41,1.32,1.26
247.93,-0.69,-1.95,-0.72,-1.99,2.02,1.61,2.25,1.33,1.30,1.27
250.41,-0.89,-2.16,-0.78,-2.05,2.04,1.62,2.26,1.15,1.26,1.27
252.92,-0.82,-2.09,-0.83,-2.10,2.06,1.64,2.26,1.25,1.24,1.28
255.45,-0.81,-2.08,-0.82,-2.10,2.09,1.65,2.27,1.28,1.27,1.27
258.00,-0.80,-2.07,-0.83,-2.10,2.13,1.67,2.27,1.33,1.30,1.27
260.58,-0.89,-2.15,-0.89,-2.15,2.17,1.69,2.27,1.28,1.28,1.27
263.19,-1.00,-2.26,-0.94,-2.20,2.21,1.70,2.26,1.21,1.27,1.26
265.82,-0.97,-2.22,-0.99,-2.24,2.24,1.72,2.26,1.27,1.25,1.26
268.48,-0.99,-2.24,-1.02,-2.27,2.26,1.74,2.25,1.28,1.25,1.25
271.16,-1.07,-2.32,-1.05,-2.30,2.29,1.75,2.24,1.23,1.25,1.25
273.87,-1.11,-2.35,-1.09,-2.34,2.32,1.77,2.23,1.22,1.23,1.25
276.61,-1.11,-2.35,-1.11,-2.35,2.35,1.79,2.21,1.25,1.24,1.24
279.38,-1.11,-2.35,-1.11,-2.35,2.37,1.81,2.20,1.26,1.26,1.24
282.17,-1.11,-2.35,-1.12,-2.37,2.38,1.82,2.18,1.28,1.26,1.25
284.99,-1.13,-2.38,-1.13,-2.38,2.39,1.84,2.17,1.27,1.26,1.26
287.84,-1.18,-2.43,-1.14,-2.39,2.39,1.86,2.15,1.22,1.26,1.25
290.72,-1.10,-2.36,-1.14,-2.40,2.38,1.88,2.13,1.29,1.24,1.26
293.63,-1.13,-2.39,-1.11,-2.38,2.36,1.90,2.11,1.23,1.25,1.27
296.57,-1.10,-2.37,-1.07,-2.35,2.32,1.91,2.09,1.22,1.25,1.28
299.53,-1.01,-2.28,-1.05,-2.33,2.28,1.93,2.07,1.27,1.23,1.27
302.53,-1.01,-2.29,-0.98,-2.25,2.24,1.95,2.06,1.23,1.26,1.28
305.55,-0.93,-2.20,-0.89,-2.16,2.20,1.97,2.04,1.27,1.31,1.28
308.61,-0.79,-2.06,-0.83,-2.10,2.16,1.98,2.02,1.37,1.33,1.28
311.69,-0.76,-2.03,-0.80,-2.07,2.13,2.00,2.00,1.37,1.33,1.27
314.81,-0.86,-2.12,-0.83,-2.09,2.10,2.02,1.99,1.25,1.28,1.26
317.96,-0.90,-2.16,-0.87,-2.13,2.09,2.04,1.97,1.20,1.22,1.26
321.14,-0.89,-2.13,-0.88,-2.13,2.09,2.05,1.96,1.21,1.22,1.25
324.35,-0.87,-2.11,-0.88,-2.12,2.11,2.07,1.94,1.25,1.24,1.25
327.59,-0.86,-2.09,-0.90,-2.13,2.14,2.09,1.93,1.29,1.24,1.24
330.87,-0.97,-2.19,-0.93,-2.15,2.18,2.10,1.92,1.21,1.25,1.22
334.18,-1.00,-2.21,-0.97,-2.18,2.21,2.12,1.91,1.22,1.24,1.21
337.52,-0.99,-2.19,-1.04,-2.24,2.25,2.13,1.90,1.27,1.21,1.20
340.90,-1.10,-2.29,-1.09,-2.29,2.29,2.15,1.90,1.20,1.20,1.20
344.30,-1.21,-2.39,-1.16,-2.34,2.33,2.16,1.89,1.13,1.17,1.19
347.75,-1.21,-2.37,-1.23,-2.40,2.37,2.18,1.89,1.17,1.15,1.17
351.23,-1.25,-2.40,-1.26,-2.41,2.40,2.19,1.88,1.16,1.14,1.16
354.74,-1.30,-2.44,-1.28,-2.42,2.42,2.21,1.88,1.12,1.14,1.14
358.28,-1.30,-2.43,-1.30,-2.43,2.42,2.22,1.88,1.12,1.12,1.13
361.87,-1.30,-2.42,-1.31,-2.42,2.40,2.23,1.88,1.10,1.09,1.12
365.49,-1.29,-2.39,-1.29,-2.39,2.37,2.24,1.89,1.09,1.08,1.10
369.14,-1.29,-2.37,-1.25,-2.34,2.34,2.25,1.89,1.05,1.09,1.09
372.83,-1.20,-2.27,-1.21,-2.29,2.30,2.26,1.90,1.11,1.09,1.08
376.56,-1.15,-2.21,-1.17,-2.24,2.26,2.27,1.91,1.12,1.09,1.07
380.33,-1.16,-2.21,-1.15,-2.20,2.23,2.28,1.91,1.07,1.08,1.06
384.13,-1.16,-2.20,-1.15,-2.19,2.20,2.29,1.92,1.04,1.05,1.05
387.97,-1.15,-2.18,-1.15,-2.18,2.17,2.30,1.93,1.03,1.02,1.03
391.85,-1.15,-2.17,-1.15,-2.17,2.16,2.31,1.95,1.02,1.02,1.02
395.77,-1.15,-2.16,-1.14,-2.15,2.16,2.31,1.96,1.02,1.02,1.01
399.73,-1.15,-2.15,-1.14,-2.14,2.17,2.32,1.97,1.02,1.03,1.00
403.72,-1.15,-2.14,-1.17,-2.16,2.18,2.32,1.99,1.03,1.01,0.99
407.76,-1.21,-2.18,-1.21,-2.18,2.18,2.33,2.01,0.98,0.97,0.97
411.84,-1.28,-2.24,-1.25,-2.21,2.19,2.33,2.02,0.91,0.94,0.96
415.96,-1.27,-2.22,-1.27,-2.22,2.19,2.33,2.04,0.93,0.92,0.95
420.12,-1.26,-2.20,-1.26,-2.21,2.19,2.33,2.06,0.94,0.93,0.95
424.32,-1.25,-2.18,-1.25,-2.19,2.19,2.33,2.07,0.94,0.94,0.94
428.56,-1.24,-2.17,-1.24,-2.18,2.17,2.33,2.09,0.94,0.94,0.94
432.85,-1.23,-2.17,-1.22,-2.17,2.16,2.33,2.11,0.94,0.94,0.95
437.18,-1.20,-2.15,-1.19,-2.15,2.15,2.33,2.13,0.95,0.96,0.96
441.55,-1.15,-2.12,-1.14,-2.11,2.14,2.33,2.14,0.99,1.00,0.98
445.96,-1.09,-2.08,-1.10,-2.10,2.13,2.32,2.16,1.05,1.03,1.00
450.42,-1.07,-2.09,-1.08,-2.11,2.13,2.32,2.17,1.06,1.04,1.03
454.93,-1.09,-2.15,-1.06,-2.13,2.12,2.31,2.19,1.03,1.06,1.07
459.48,-1.05,-2.15,-1.04,-2.14,2.11,2.31,2.20,1.06,1.07,1.10
464.07,-0.99,-2.12,-0.99,-2.13,2.10,2.30,2.21,1.11,1.10,1.13
468.71,-0.94,-2.11,-0.93,-2.11,2.09,2.29,2.22,1.16,1.16,1.17
473.40,-0.87,-2.08,-0.87,-2.08,2.09,2.28,2.23,1.22,1.22,1.21
478.13,-0.82,-2.07,-0.81,-2.06,2.09,2.27,2.24,1.27,1.28,1.25
482.91,-0.76,-2.04,-0.76,-2.04,2.08,2.26,2.24,1.33,1.32,1.28
487.74,-0.72,-2.03,-0.74,-2.06,2.08,2.25,2.24,1.36,1.33,1.31
492.62,-0.76,-2.09,-0.74,-2.08,2.07,2.24,2.24,1.32,1.33,1.33
497.55,-0.77,-2.12,-0.75,-2.10,2.07,2.23,2.24,1.31,1.33,1.35
502.52,-0.74,-2.10,-0.74,-2.10,2.07,2.21,2.23,1.33,1.33,1.36
507.55,-0.72,-2.08,-0.72,-2.08,2.06,2.20,2.23,1.35,1.35,1.36
512.62,-0.70,-2.05,-0.70,-2.05,2.05,2.18,2.22,1.35,1.35,1.35
