frequency,raw,error,smoothed,error_smoothed,equalization,parametric_eq,fixed_band_eq,equalized_raw,equalized_smoothed,target
20.00,10.33,2.37,10.33,2.37,-2.36,-2.60,-1.28,7.97,7.97,7.96
20.20,10.35,2.40,10.35,2.40,-2.40,-2.61,-1.31,7.95,7.95,7.95
20.40,10.37,2.42,10.37,2.43,-2.43,-2.62,-1.35,7.94,7.94,7.95
20.61,10.39,2.45,10.39,2.45,-2.46,-2.62,-1.39,7.93,7.93,7.94
20.81,10.41,2.48,10.41,2.48,-2.49,-2.63,-1.43,7.92,7.92,7.93
21.02,10.43,2.51,10.43,2.51,-2.52,-2.64,-1.47,7.91,7.91,7.92
21.23,10.45,2.53,10.45,2.53,-2.54,-2.65,-1.51,7.91,7.91,7.92
21.44,10.47,2.54,10.47,2.56,-2.56,-2.66,-1.55,7.91,7.91,7.93
21.66,10.50,2.58,10.50,2.58,-2.58,-2.67,-1.59,7.92,7.92,7.91
21.87,10.52,2.61,10.52,2.60,-2.59,-2.68,-1.64,7.93,7.93,7.91
22.09,10.53,2.63,10.52,2.62,-2.60,-2.69,-1.69,7.93,7.93,7.90
22.31,10.52,2.62,10.52,2.62,-2.61,-2.70,-1.73,7.91,7.91,7.90
22.54,10.51,2.62,10.51,2.61,-2.62,-2.71,-1.78,7.89,7.89,7.89
22.76,10.51,2.61,10.50,2.61,-2.63,-2.72,-1.83,7.88,7.88,7.90
22.99,10.50,2.60,10.51,2.61,-2.64,-2.73,-1.88,7.86,7.87,7.90
23.22,10.53,2.64,10.53,2.63,-2.65,-2.74,-1.94,7.88,7.88,7.89
23.45,10.56,2.67,10.56,2.67,-2.67,-2.75,-1.99,7.89,7.89,7.89
23.69,10.59,2.70,10.59,2.70,-2.68,-2.76,-2.04,7.91,7.91,7.89
23.92,10.62,2.73,10.61,2.72,-2.70,-2.77,-2.10,7.92,7.92,7.89
24.16,10.63,2.73,10.63,2.73,-2.72,-2.78,-2.16,7.91,7.91,7.90
24.40,10.64,2.73,10.64,2.74,-2.74,-2.79,-2.21,7.90,7.90,7.91
24.65,10.65,2.74,10.65,2.74,-2.76,-2.81,-2.27,7.89,7.88,7.91
24.89,10.66,2.76,10.66,2.76,-2.79,-2.82,-2.33,7.87,7.88,7.90
25.14,10.68,2.79,10.69,2.79,-2.81,-2.83,-2.39,7.87,7.88,7.89
25.39,10.73,2.84,10.73,2.83,-2.84,-2.84,-2.45,7.89,7.89,7.89
25.65,10.77,2.88,10.77,2.88,-2.87,-2.85,-2.51,7.90,7.90,7.89
25.91,10.81,2.92,10.81,2.92,-2.90,-2.87,-2.57,7.91,7.91,7.89
26.16,10.83,2.94,10.82,2.94,-2.92,-2.88,-2.64,7.91,7.90,7.89
26.43,10.83,2.95,10.83,2.95,-2.94,-2.89,-2.70,7.89,7.89,7.88
26.69,10.83,2.95,10.83,2.96,-2.95,-2.91,-2.76,7.88,7.88,7.88
26.96,10.83,2.96,10.83,2.97,-2.96,-2.92,-2.82,7.87,7.87,7.87
27.23,10.83,2.98,10.82,2.97,-2.97,-2.93,-2.88,7.86,7.86,7.85
27.50,10.82,2.97,10.82,2.96,-2.97,-2.95,-2.94,7.84,7.84,7.85
27.77,10.81,2.96,10.82,2.96,-2.99,-2.96,-2.99,7.82,7.83,7.85
28.05,10.82,2.97,10.82,2.97,-3.00,-2.98,-3.05,7.82,7.82,7.85
28.33,10.85,3.00,10.85,3.00,-3.01,-2.99,-3.10,7.83,7.83,7.85
28.62,10.88,3.04,10.88,3.04,-3.03,-3.01,-3.15,7.85,7.85,7.84
28.90,10.92,3.07,10.91,3.07,-3.05,-3.02,-3.20,7.87,7.87,7.85
29.19,10.93,3.09,10.93,3.08,-3.06,-3.04,-3.25,7.87,7.87,7.84
29.48,10.93,3.08,10.93,3.08,-3.07,-3.05,-3.30,7.86,7.86,7.85
29.78,10.93,3.08,10.93,3.08,-3.08,-3.07,-3.34,7.85,7.85,7.85
30.08,10.93,3.07,10.93,3.08,-3.08,-3.08,-3.38,7.84,7.84,7.86
30.38,10.93,3.08,10.93,3.08,-3.08,-3.10,-3.41,7.84,7.84,7.85
30.68,10.93,3.08,10.93,3.09,-3.08,-3.12,-3.44,7.84,7.84,7.84
30.99,10.93,3.10,10.93,3.09,-3.09,-3.13,-3.48,7.84,7.84,7.83
31.30,10.93,3.10,10.93,3.10,-3.10,-3.15,-3.50,7.83,7.83,7.83
31.61,10.93,3.10,10.93,3.10,-3.12,-3.17,-3.52,7.81,7.81,7.83
31.93,10.93,3.11,10.94,3.12,-3.14,-3.18,-3.54,7.79,7.80,7.82
32.24,10.95,3.14,10.96,3.15,-3.16,-3.20,-3.56,7.79,7.80,7.81
32.57,10.99,3.19,10.99,3.19,-3.18,-3.22,-3.57,7.81,7.81,7.80
32.89,11.02,3.23,11.01,3.22,-3.20,-3.24,-3.58,7.82,7.81,7.79
33.22,11.03,3.24,11.03,3.24,-3.22,-3.26,-3.59,7.81,7.81,7.79
33.55,11.03,3.25,11.03,3.25,-3.24,-3.28,-3.60,7.79,7.79,7.78
33.89,11.03,3.25,11.03,3.25,-3.25,-3.29,-3.60,7.78,7.78,7.78
34.23,11.03,3.26,11.03,3.26,-3.26,-3.31,-3.60,7.76,7.76,7.77
34.57,11.03,3.27,11.03,3.27,-3.27,-3.33,-3.60,7.76,7.76,7.76
34.92,11.03,3.28,11.03,3.27,-3.28,-3.35,-3.60,7.75,7.75,7.75
35.27,11.03,3.27,11.03,3.28,-3.28,-3.37,-3.59,7.75,7.75,7.76
35.62,11.03,3.30,11.03,3.29,-3.29,-3.39,-3.59,7.74,7.74,7.73
35.97,11.03,3.31,11.03,3.31,-3.30,-3.41,-3.58,7.73,7.73,7.72
36.33,11.03,3.32,11.03,3.32,-3.32,-3.43,-3.58,7.71,7.71,7.71
36.70,11.03,3.34,11.03,3.34,-3.34,-3.46,-3.58,7.69,7.69,7.69
37.06,11.03,3.35,11.04,3.36,-3.37,-3.48,-3.57,7.66,7.67,7.68
37.43,11.05,3.39,11.05,3.39,-3.40,-3.50,-3.57,7.65,7.65,7.66
37.81,11.07,3.43,11.07,3.43,-3.44,-3.52,-3.56,7.63,7.63,7.64
38.19,11.09,3.47,11.09,3.48,-3.47,-3.54,-3.56,7.62,7.62,7.62
38.57,11.11,3.52,11.11,3.52,-3.51,-3.57,-3.56,7.60,7.60,7.59
38.95,11.13,3.56,11.12,3.56,-3.55,-3.59,-3.56,7.58,7.58,7.57
39.34,11.13,3.59,11.13,3.59,-3.58,-3.61,-3.57,7.55,7.55,7.54
39.74,11.13,3.61,11.13,3.62,-3.61,-3.64,-3.57,7.52,7.52,7.52
40.14,11.13,3.64,11.13,3.64,-3.64,-3.66,-3.58,7.49,7.49,7.49
40.54,11.13,3.66,11.13,3.66,-3.67,-3.68,-3.58,7.46,7.46,7.46
40.94,11.13,3.69,11.13,3.69,-3.69,-3.71,-3.60,7.44,7.44,7.44
41.35,11.13,3.71,11.13,3.71,-3.71,-3.73,-3.61,7.42,7.42,7.42
41.76,11.13,3.73,11.13,3.73,-3.73,-3.76,-3.62,7.40,7.40,7.40
42.18,11.13,3.75,11.13,3.75,-3.75,-3.78,-3.64,7.38,7.38,7.38
42.60,11.13,3.78,11.13,3.78,-3.78,-3.81,-3.66,7.35,7.35,7.35
43.03,11.13,3.80,11.13,3.80,-3.80,-3.83,-3.69,7.33,7.33,7.33
43.46,11.13,3.82,11.13,3.82,-3.82,-3.86,-3.71,7.31,7.31,7.31
43.90,11.13,3.85,11.13,3.85,-3.85,-3.89,-3.74,7.28,7.28,7.28
44.33,11.13,3.88,11.13,3.87,-3.87,-3.91,-3.78,7.25,7.25,7.25
44.78,11.13,3.90,11.13,3.90,-3.90,-3.94,-3.81,7.23,7.23,7.23
45.23,11.13,3.92,11.13,3.93,-3.93,-3.97,-3.85,7.20,7.20,7.21
45.68,11.13,3.96,11.13,3.96,-3.96,-3.99,-3.89,7.17,7.17,7.17
46.13,11.13,4.00,11.13,4.00,-3.99,-4.02,-3.93,7.14,7.14,7.13
46.60,11.13,4.03,11.13,4.03,-4.03,-4.05,-3.98,7.10,7.10,7.10
47.06,11.13,4.06,11.13,4.06,-4.06,-4.08,-4.03,7.07,7.07,7.07
47.53,11.13,4.09,11.13,4.10,-4.10,-4.10,-4.08,7.03,7.03,7.04
48.01,11.13,4.15,11.13,4.14,-4.14,-4.13,-4.13,6.99,6.99,6.98
48.49,11.13,4.18,11.13,4.18,-4.18,-4.16,-4.19,6.95,6.95,6.95
48.97,11.13,4.22,11.13,4.23,-4.22,-4.19,-4.25,6.91,6.91,6.91
49.46,11.13,4.26,11.13,4.26,-4.26,-4.22,-4.31,6.87,6.87,6.87
49.96,11.13,4.31,11.13,4.30,-4.30,-4.25,-4.37,6.83,6.83,6.82
50.46,11.13,4.34,11.13,4.34,-4.34,-4.28,-4.43,6.79,6.79,6.79
50.96,11.13,4.37,11.13,4.37,-4.37,-4.31,-4.50,6.76,6.76,6.76
51.47,11.13,4.40,11.13,4.40,-4.41,-4.34,-4.57,6.72,6.72,6.73
51.99,11.13,4.45,11.13,4.44,-4.45,-4.37,-4.63,6.68,6.68,6.68
52.51,11.13,4.48,11.13,4.48,-4.48,-4.40,-4.70,6.65,6.65,6.65
53.03,11.13,4.51,11.13,4.52,-4.52,-4.43,-4.77,6.61,6.61,6.62
53.56,11.13,4.56,11.13,4.56,-4.56,-4.46,-4.84,6.57,6.57,6.57
54.10,11.13,4.60,11.13,4.60,-4.60,-4.49,-4.91,6.53,6.53,6.53
54.64,11.13,4.64,11.13,4.64,-4.64,-4.53,-4.98,6.49,6.49,6.49
55.18,11.13,4.69,11.13,4.68,-4.68,-4.56,-5.05,6.45,6.45,6.44
55.74,11.13,4.72,11.13,4.72,-4.72,-4.59,-5.11,6.41,6.41,6.41
56.29,11.13,4.75,11.13,4.75,-4.76,-4.62,-5.18,6.37,6.37,6.38
56.86,11.13,4.78,11.13,4.79,-4.79,-4.65,-5.24,6.34,6.34,6.35
57.42,11.13,4.84,11.13,4.83,-4.81,-4.68,-5.30,6.32,6.32,6.29
58.00,11.13,4.86,11.13,4.86,-4.83,-4.72,-5.36,6.29,6.30,6.27
58.58,11.13,4.88,11.12,4.87,-4.85,-4.75,-5.41,6.28,6.27,6.25
59.16,11.11,4.89,11.10,4.87,-4.87,-4.78,-5.46,6.24,6.22,6.22
59.76,11.05,4.86,11.06,4.88,-4.89,-4.81,-5.50,6.16,6.17,6.19
60.35,11.03,4.89,11.04,4.89,-4.92,-4.85,-5.54,6.11,6.12,6.14
60.96,11.03,4.92,11.02,4.92,-4.95,-4.88,-5.58,6.08,6.08,6.11
61.57,11.03,4.98,11.03,4.98,-4.98,-4.91,-5.61,6.05,6.04,6.05
62.18,11.03,5.03,11.03,5.03,-5.02,-4.95,-5.63,6.01,6.01,6.00
62.80,11.03,5.08,11.03,5.08,-5.07,-4.98,-5.66,5.96,5.96,5.94
63.43,11.03,5.13,11.03,5.13,-5.12,-5.01,-5.67,5.91,5.91,5.90
64.07,11.03,5.18,11.03,5.17,-5.17,-5.05,-5.68,5.86,5.86,5.85
64.71,11.03,5.21,11.03,5.22,-5.22,-5.08,-5.69,5.81,5.81,5.82
65.35,11.03,5.26,11.03,5.26,-5.25,-5.11,-5.69,5.78,5.78,5.77
66.01,11.03,5.30,11.03,5.30,-5.28,-5.15,-5.69,5.74,5.75,5.73
66.67,11.03,5.34,11.02,5.33,-5.31,-5.18,-5.68,5.72,5.70,5.69
67.33,11.00,5.37,10.99,5.35,-5.34,-5.21,-5.67,5.66,5.64,5.63
68.01,10.93,5.34,10.95,5.36,-5.37,-5.25,-5.66,5.56,5.58,5.59
68.69,10.93,5.38,10.93,5.38,-5.40,-5.28,-5.65,5.53,5.53,5.55
69.37,10.93,5.42,10.92,5.42,-5.44,-5.31,-5.63,5.49,5.48,5.51
70.07,10.93,5.47,10.93,5.47,-5.48,-5.35,-5.61,5.45,5.45,5.46
70.77,10.93,5.52,10.93,5.51,-5.52,-5.38,-5.59,5.41,5.41,5.41
71.48,10.93,5.56,10.93,5.56,-5.56,-5.41,-5.56,5.37,5.37,5.37
72.19,10.93,5.61,10.93,5.61,-5.60,-5.45,-5.54,5.33,5.33,5.32
72.91,10.93,5.66,10.93,5.66,-5.64,-5.48,-5.52,5.29,5.30,5.27
73.64,10.93,5.71,10.92,5.70,-5.67,-5.51,-5.50,5.26,5.25,5.22
74.38,10.90,5.72,10.89,5.70,-5.70,-5.54,-5.47,5.20,5.19,5.18
75.12,10.84,5.70,10.85,5.71,-5.72,-5.58,-5.45,5.12,5.13,5.14
75.87,10.82,5.70,10.83,5.72,-5.75,-5.61,-5.43,5.07,5.08,5.11
76.63,10.83,5.76,10.82,5.75,-5.78,-5.64,-5.42,5.05,5.05,5.06
77.40,10.83,5.80,10.83,5.80,-5.80,-5.67,-5.40,5.02,5.02,5.03
78.17,10.83,5.84,10.83,5.83,-5.83,-5.71,-5.39,5.00,5.00,4.99
78.95,10.83,5.86,10.83,5.86,-5.86,-5.74,-5.38,4.97,4.97,4.97
79.74,10.83,5.89,10.83,5.90,-5.89,-5.77,-5.37,4.94,4.95,4.94
80.54,10.83,5.93,10.83,5.93,-5.90,-5.80,-5.37,4.93,4.93,4.90
81.35,10.82,5.95,10.82,5.95,-5.92,-5.83,-5.36,4.90,4.90,4.87
82.16,10.79,5.95,10.78,5.94,-5.93,-5.86,-5.37,4.86,4.85,4.84
82.98,10.73,5.93,10.72,5.92,-5.94,-5.89,-5.37,4.79,4.79,4.79
83.81,10.65,5.89,10.67,5.91,-5.94,-5.92,-5.38,4.71,4.73,4.76
84.65,10.63,5.91,10.63,5.91,-5.95,-5.95,-5.40,4.68,4.68,4.72
85.50,10.63,5.95,10.62,5.94,-5.95,-5.98,-5.41,4.68,4.67,4.68
86.35,10.63,5.99,10.64,6.00,-5.96,-6.01,-5.43,4.67,4.67,4.64
87.22,10.63,6.03,10.61,6.01,-5.98,-6.04,-5.46,4.65,4.63,4.60
88.09,10.61,6.05,10.58,6.01,-6.01,-6.07,-5.49,4.60,4.57,4.56
88.97,10.49,5.97,10.54,6.02,-6.04,-6.10,-5.52,4.45,4.50,4.52
89.86,10.52,6.04,10.52,6.04,-6.08,-6.13,-5.56,4.44,4.44,4.48
90.76,10.53,6.09,10.52,6.08,-6.11,-6.16,-5.60,4.42,4.41,4.44
91.66,10.54,6.15,10.54,6.15,-6.13,-6.19,-5.65,4.41,4.41,4.38
92.58,10.54,6.20,10.55,6.20,-6.16,-6.22,-5.70,4.38,4.38,4.34
93.51,10.54,6.24,10.53,6.23,-6.20,-6.24,-5.75,4.34,4.33,4.30
94.44,10.51,6.26,10.49,6.24,-6.24,-6.27,-5.81,4.27,4.25,4.25
95.39,10.43,6.23,10.45,6.25,-6.28,-6.30,-5.87,4.15,4.17,4.20
96.34,10.39,6.24,10.42,6.27,-6.31,-6.32,-5.94,4.08,4.10,4.14
97.30,10.42,6.33,10.41,6.32,-6.34,-6.35,-6.01,4.08,4.07,4.09
98.28,10.42,6.38,10.41,6.38,-6.36,-6.37,-6.08,4.06,4.05,4.03
99.26,10.40,6.43,10.40,6.43,-6.38,-6.40,-6.15,4.02,4.02,3.97
100.25,10.37,6.46,10.35,6.43,-6.41,-6.43,-6.23,3.96,3.94,3.91
101.25,10.29,6.42,10.29,6.42,-6.43,-6.45,-6.31,3.86,3.85,3.87
102.27,10.19,6.38,10.24,6.42,-6.45,-6.47,-6.39,3.74,3.79,3.81
103.29,10.21,6.45,10.19,6.43,-6.45,-6.50,-6.48,3.76,3.74,3.75
104.32,10.18,6.47,10.16,6.46,-6.44,-6.52,-6.56,3.74,3.71,3.71
105.37,10.10,6.46,10.13,6.48,-6.44,-6.54,-6.65,3.66,3.69,3.64
106.42,10.07,6.47,10.05,6.46,-6.44,-6.57,-6.74,3.63,3.60,3.60
107.48,9.99,6.46,9.97,6.43,-6.46,-6.59,-6.83,3.53,3.51,3.53
108.56,9.87,6.39,9.91,6.43,-6.47,-6.61,-6.91,3.40,3.44,3.48
109.64,9.87,6.44,9.87,6.45,-6.48,-6.63,-7.00,3.39,3.39,3.43
110.74,9.88,6.51,9.86,6.49,-6.49,-6.65,-7.08,3.39,3.37,3.37
111.85,9.87,6.54,9.88,6.55,-6.51,-6.67,-7.16,3.36,3.37,3.33
112.97,9.86,6.58,9.85,6.57,-6.54,-6.69,-7.24,3.32,3.31,3.28
114.10,9.84,6.60,9.80,6.57,-6.58,-6.71,-7.31,3.26,3.22,3.23
115.24,9.71,6.54,9.76,6.58,-6.62,-6.73,-7.38,3.09,3.14,3.17
116.39,9.72,6.59,9.72,6.59,-6.65,-6.75,-7.45,3.07,3.07,3.13
117.55,9.74,6.66,9.74,6.66,-6.68,-6.77,-7.50,3.06,3.06,3.08
118.73,9.76,6.72,9.79,6.75,-6.70,-6.79,-7.56,3.06,3.09,3.04
119.92,9.84,6.84,9.78,6.78,-6.71,-6.80,-7.60,3.13,3.07,2.99
121.12,9.74,6.77,9.72,6.76,-6.72,-6.82,-7.64,3.02,3.00,2.97
122.33,9.60,6.67,9.65,6.71,-6.72,-6.83,-7.67,2.88,2.92,2.93
123.55,9.56,6.66,9.59,6.69,-6.72,-6.85,-7.69,2.83,2.87,2.90
124.79,9.59,6.72,9.57,6.71,-6.73,-6.86,-7.70,2.86,2.85,2.87
126.03,9.60,6.77,9.54,6.71,-6.73,-6.88,-7.71,2.87,2.81,2.83
127.29,9.47,6.68,9.50,6.71,-6.73,-6.89,-7.70,2.74,2.77,2.79
128.57,9.41,6.66,9.47,6.72,-6.74,-6.90,-7.69,2.67,2.72,2.75
129.85,9.49,6.77,9.47,6.75,-6.77,-6.92,-7.67,2.72,2.70,2.72
131.15,9.52,6.84,9.49,6.81,-6.79,-6.93,-7.65,2.73,2.70,2.68
132.46,9.48,6.84,9.49,6.85,-6.81,-6.94,-7.61,2.67,2.68,2.64
133.79,9.44,6.84,9.44,6.84,-6.82,-6.95,-7.57,2.62,2.62,2.60
135.12,9.39,6.83,9.40,6.83,-6.82,-6.96,-7.52,2.57,2.58,2.56
136.48,9.35,6.82,9.37,6.84,-6.82,-6.97,-7.47,2.53,2.54,2.52
137.84,9.34,6.85,9.31,6.83,-6.83,-6.98,-7.41,2.51,2.49,2.49
139.22,9.27,6.83,9.24,6.79,-6.83,-6.98,-7.35,2.44,2.41,2.44
140.61,9.15,6.74,9.19,6.78,-6.84,-6.99,-7.29,2.31,2.35,2.41
142.02,9.14,6.77,9.18,6.81,-6.85,-7.00,-7.22,2.29,2.32,2.37
143.44,9.22,6.89,9.19,6.86,-6.86,-7.00,-7.15,2.36,2.33,2.33
144.87,9.25,6.95,9.21,6.92,-6.87,-7.01,-7.08,2.38,2.35,2.30
146.32,9.18,6.92,9.19,6.93,-6.86,-7.01,-7.01,2.32,2.33,2.26
147.78,9.12,6.90,9.14,6.92,-6.86,-7.01,-6.94,2.26,2.28,2.22
149.26,9.07,6.89,9.07,6.89,-6.86,-7.02,-6.87,2.21,2.21,2.18
150.75,9.04,6.90,8.98,6.84,-6.87,-7.02,-6.80,2.17,2.12,2.14
152.26,8.88,6.77,8.90,6.80,-6.87,-7.02,-6.74,2.01,2.03,2.11
153.78,8.80,6.73,8.86,6.79,-6.88,-7.02,-6.67,1.92,1.98,2.07
155.32,8.89,6.85,8.87,6.84,-6.89,-7.02,-6.61,2.00,1.98,2.04
156.88,8.95,6.95,8.92,6.93,-6.90,-7.02,-6.55,2.05,2.03,2.00
158.44,8.95,7.00,8.95,6.99,-6.91,-7.01,-6.49,2.04,2.04,1.95
160.03,8.92,7.01,8.92,7.01,-6.92,-7.01,-6.44,1.99,1.99,1.91
161.63,8.85,6.98,8.86,7.00,-6.95,-7.01,-6.39,1.90,1.92,1.87
163.24,8.78,6.96,8.75,6.93,-6.97,-7.00,-6.34,1.81,1.78,1.82
164.88,8.68,6.90,8.64,6.86,-6.97,-7.00,-6.30,1.71,1.67,1.78
166.53,8.50,6.77,8.62,6.89,-6.96,-6.99,-6.26,1.54,1.67,1.73
168.19,8.62,6.93,8.65,6.96,-6.93,-6.98,-6.23,1.69,1.72,1.69
169.87,8.79,7.15,8.64,7.00,-6.90,-6.97,-6.19,1.89,1.74,1.64
171.57,8.60,7.00,8.56,6.96,-6.87,-6.97,-6.17,1.72,1.69,1.60
173.29,8.34,6.78,8.46,6.90,-6.86,-6.96,-6.15,1.48,1.59,1.56
175.02,8.27,6.75,8.32,6.80,-6.87,-6.95,-6.13,1.40,1.45,1.52
176.77,8.39,6.92,8.24,6.77,-6.88,-6.93,-6.12,1.51,1.36,1.47
178.54,8.16,6.72,8.21,6.78,-6.88,-6.92,-6.12,1.28,1.33,1.44
180.32,8.16,6.77,8.24,6.85,-6.87,-6.91,-6.11,1.29,1.37,1.39
182.13,8.27,6.92,8.29,6.93,-6.86,-6.90,-6.12,1.41,1.42,1.35
183.95,8.44,7.12,8.31,6.99,-6.87,-6.88,-6.12,1.57,1.44,1.32
185.79,8.29,7.01,8.27,6.99,-6.89,-6.87,-6.14,1.40,1.37,1.28
187.65,8.02,6.77,8.17,6.92,-6.92,-6.86,-6.15,1.10,1.25,1.25
189.52,8.11,6.90,8.02,6.80,-6.93,-6.84,-6.17,1.18,1.09,1.21
191.42,8.00,6.81,7.98,6.80,-6.92,-6.82,-6.19,1.08,1.05,1.19
193.33,7.91,6.76,8.06,6.91,-6.90,-6.81,-6.22,1.01,1.16,1.15
195.27,8.13,7.02,8.08,6.97,-6.89,-6.79,-6.25,1.24,1.19,1.11
197.22,8.22,7.15,8.05,6.97,-6.89,-6.77,-6.29,1.33,1.16,1.07
199.19,7.90,6.85,7.96,6.92,-6.89,-6.75,-6.33,1.01,1.08,1.05
201.18,7.72,6.71,7.84,6.83,-6.88,-6.73,-6.37,0.84,0.96,1.01
203.19,7.82,6.84,7.77,6.79,-6.87,-6.71,-6.41,0.95,0.90,0.98
205.23,7.85,6.89,7.80,6.84,-6.85,-6.69,-6.46,1.00,0.95,0.96
207.28,7.78,6.85,7.82,6.89,-6.82,-6.67,-6.51,0.96,1.00,0.93
209.35,7.74,6.85,7.73,6.83,-6.80,-6.65,-6.56,0.94,0.92,0.89
211.44,7.68,6.82,7.58,6.72,-6.78,-6.63,-6.61,0.89,0.80,0.86
213.56,7.44,6.61,7.57,6.74,-6.77,-6.61,-6.66,0.67,0.80,0.83
215.69,7.46,6.65,7.57,6.77,-6.76,-6.59,-6.71,0.70,0.81,0.81
217.85,7.80,7.02,7.53,6.76,-6.75,-6.56,-6.76,1.05,0.78,0.78
220.03,7.46,6.72,7.50,6.76,-6.73,-6.54,-6.81,0.73,0.78,0.74
222.23,7.28,6.56,7.42,6.70,-6.70,-6.52,-6.86,0.58,0.72,0.72
224.45,7.37,6.67,7.31,6.62,-6.66,-6.49,-6.90,0.71,0.65,0.70
226.70,7.35,6.67,7.33,6.65,-6.62,-6.47,-6.94,0.73,0.70,0.68
228.96,7.31,6.64,7.33,6.67,-6.58,-6.44,-6.98,0.73,0.75,0.67
231.25,7.24,6.59,7.21,6.57,-6.54,-6.42,-7.01,0.70,0.67,0.65
233.57,7.15,6.51,7.08,6.45,-6.50,-6.39,-7.04,0.65,0.58,0.64
235.90,6.89,6.27,7.00,6.38,-6.47,-6.37,-7.06,0.42,0.54,0.62
238.26,6.96,6.35,6.99,6.38,-6.45,-6.34,-7.07,0.51,0.55,0.61
240.64,7.10,6.48,7.03,6.42,-6.43,-6.31,-7.08,0.67,0.60,0.62
243.05,7.10,6.49,7.09,6.48,-6.41,-6.29,-7.08,0.69,0.68,0.61
245.48,7.04,6.43,7.01,6.40,-6.38,-6.26,-7.07,0.66,0.63,0.61
247.93,6.96,6.36,6.97,6.36,-6.36,-6.23,-7.05,0.60,0.62,0.60
250.41,6.81,6.20,6.98,6.37,-6.33,-6.20,-7.03,0.48,0.65,0.61
252.92,7.12,6.50,6.94,6.33,-6.31,-6.17,-6.99,0.81,0.64,0.62
255.45,6.94,6.34,6.86,6.25,-6.26,-6.14,-6.95,0.68,0.60,0.60
258.00,6.64,6.05,6.78,6.19,-6.21,-6.11,-6.90,0.43,0.57,0.59
260.58,6.63,6.04,6.68,6.09,-6.16,-6.08,-6.84,0.47,0.51,0.59
263.19,6.75,6.17,6.67,6.09,-6.12,-6.05,-6.78,0.63,0.55,0.58
265.82,6.72,6.15,6.72,6.16,-6.08,-6.01,-6.70,0.64,0.64,0.57
268.48,6.65,6.09,6.64,6.08,-6.04,-5.98,-6.62,0.61,0.60,0.56
271.16,6.59,6.05,6.50,5.96,-6.00,-5.95,-6.54,0.59,0.50,0.54
273.87,6.30,5.76,6.49,5.96,-5.97,-5.91,-6.45,0.33,0.53,0.53
276.61,6.46,5.94,6.45,5.93,-5.93,-5.87,-6.35,0.53,0.52,0.52
279.38,6.63,6.13,6.38,5.87,-5.89,-5.84,-6.25,0.74,0.49,0.50
282.17,6.22,5.71,6.38,5.87,-5.85,-5.80,-6.14,0.37,0.53,0.51
284.99,6.20,5.70,6.30,5.80,-5.81,-5.76,-6.04,0.39,0.49,0.50
287.84,6.37,5.86,6.23,5.72,-5.77,-5.72,-5.93,0.60,0.45,0.51
290.72,6.23,5.73,6.23,5.73,-5.72,-5.68,-5.81,0.51,0.51,0.49
293.63,6.12,5.63,6.17,5.68,-5.64,-5.63,-5.70,0.48,0.53,0.49
296.57,6.09,5.59,6.09,5.59,-5.55,-5.59,-5.59,0.54,0.54,0.50
299.53,6.05,5.55,6.06,5.56,-5.47,-5.54,-5.47,0.58,0.58,0.50
302.53,5.98,5.48,5.94,5.44,-5.40,-5.49,-5.36,0.58,0.54,0.50
305.55,5.85,5.35,5.76,5.26,-5.34,-5.44,-5.24,0.51,0.41,0.49
308.61,5.52,5.02,5.65,5.15,-5.29,-5.39,-5.13,0.23,0.35,0.50
311.69,5.53,5.03,5.63,5.13,-5.24,-5.34,-5.02,0.29,0.38,0.50
314.81,5.79,5.30,5.67,5.17,-5.20,-5.29,-4.91,0.59,0.47,0.49
317.96,5.78,5.29,5.74,5.25,-5.16,-5.23,-4.80,0.62,0.58,0.49
321.14,5.68,5.19,5.72,5.23,-5.11,-5.18,-4.69,0.57,0.61,0.49
324.35,5.61,5.12,5.64,5.15,-5.07,-5.12,-4.59,0.54,0.57,0.48
327.59,5.55,5.06,5.50,5.02,-5.02,-5.06,-4.49,0.53,0.48,0.49
330.87,5.46,4.97,5.39,4.90,-4.96,-5.00,-4.39,0.50,0.43,0.49
334.18,5.15,4.67,5.33,4.85,-4.87,-4.93,-4.29,0.28,0.46,0.48
337.52,5.30,4.82,5.25,4.76,-4.79,-4.87,-4.20,0.51,0.46,0.48
340.90,5.31,4.82,5.15,4.66,-4.70,-4.80,-4.11,0.61,0.45,0.49
344.30,5.00,4.50,5.13,4.63,-4.63,-4.73,-4.02,0.37,0.50,0.50
347.75,4.99,4.49,5.07,4.58,-4.57,-4.67,-3.93,0.42,0.51,0.50
351.23,5.12,4.63,5.00,4.50,-4.50,-4.59,-3.85,0.61,0.50,0.49
354.74,5.03,4.52,4.94,4.44,-4.43,-4.52,-3.77,0.60,0.52,0.51
358.28,4.76,4.25,4.93,4.42,-4.35,-4.45,-3.70,0.41,0.58,0.51
361.87,4.78,4.26,4.83,4.31,-4.27,-4.38,-3.62,0.51,0.55,0.52
365.49,4.98,4.45,4.71,4.19,-4.20,-4.30,-3.55,0.77,0.51,0.53
369.14,4.50,3.97,4.64,4.11,-4.15,-4.22,-3.48,0.35,0.49,0.53
372.83,4.45,3.91,4.54,4.00,-4.09,-4.15,-3.42,0.36,0.45,0.54
376.56,4.54,4.01,4.47,3.93,-4.03,-4.07,-3.36,0.51,0.44,0.53
380.33,4.54,4.00,4.52,3.99,-3.95,-3.99,-3.30,0.58,0.57,0.54
384.13,4.51,3.97,4.52,3.98,-3.87,-3.91,-3.24,0.64,0.64,0.54
387.97,4.45,3.90,4.47,3.93,-3.81,-3.83,-3.18,0.64,0.67,0.55
391.85,4.38,3.84,4.36,3.82,-3.76,-3.75,-3.13,0.62,0.60,0.54
395.77,4.27,3.74,4.16,3.63,-3.69,-3.67,-3.08,0.58,0.47,0.53
399.73,3.93,3.41,4.01,3.48,-3.62,-3.59,-3.03,0.31,0.39,0.52
403.72,3.82,3.29,3.95,3.43,-3.54,-3.51,-2.98,0.28,0.42,0.53
407.76,4.05,3.53,3.98,3.46,-3.44,-3.42,-2.94,0.61,0.54,0.52
411.84,4.10,3.59,4.04,3.53,-3.38,-3.34,-2.89,0.72,0.66,0.51
415.96,3.97,3.46,3.91,3.41,-3.33,-3.26,-2.85,0.64,0.57,0.51
420.12,3.73,3.24,3.69,3.20,-3.29,-3.18,-2.81,0.44,0.41,0.49
424.32,3.39,2.89,3.67,3.16,-3.25,-3.09,-2.77,0.14,0.42,0.50
428.56,3.71,3.19,3.67,3.15,-3.19,-3.01,-2.73,0.52,0.48,0.52
432.85,4.00,3.46,3.67,3.13,-3.11,-2.93,-2.69,0.89,0.56,0.54
437.18,3.50,2.94,3.74,3.18,-3.02,-2.85,-2.65,0.48,0.72,0.56
441.55,3.52,2.93,3.61,3.02,-2.94,-2.76,-2.62,0.58,0.67,0.59
445.96,3.72,3.09,3.45,2.82,-2.88,-2.68,-2.58,0.84,0.57,0.63
450.42,3.29,2.61,3.43,2.76,-2.82,-2.60,-2.54,0.47,0.61,0.68
454.93,3.30,2.57,3.39,2.66,-2.76,-2.52,-2.50,0.54,0.63,0.73
459.48,3.46,2.68,3.38,2.60,-2.69,-2.44,-2.46,0.77,0.69,0.78
464.07,3.50,2.65,3.49,2.65,-2.61,-2.36,-2.42,0.89,0.88,0.84
468.71,3.52,2.62,3.53,2.63,-2.55,-2.28,-2.38,0.97,0.99,0.90
473.40,3.52,2.57,3.52,2.56,-2.50,-2.20,-2.34,1.01,1.01,0.95
478.13,3.50,2.49,3.50,2.48,-2.46,-2.12,-2.30,1.04,1.04,1.01
482.91,3.44,2.38,3.45,2.39,-2.40,-2.04,-2.25,1.04,1.06,1.06
487.74,3.40,2.29,3.34,2.23,-2.31,-1.96,-2.21,1.09,1.03,1.11
492.62,3.30,2.15,3.34,2.19,-2.21,-1.88,-2.16,1.09,1.14,1.15
497.55,3.19,2.01,3.38,2.20,-2.10,-1.80,-2.11,1.09,1.28,1.18
502.52,3.57,2.36,3.29,2.08,-2.02,-1.72,-2.06,1.55,1.27,1.21
507.55,3.24,2.00,3.15,1.92,-1.95,-1.65,-2.00,1.29,1.20,1.24
512.62,2.76,1.51,3.05,1.79,-1.88,-1.57,-1.95,0.88,1.16,1.25
517.75,2.92,1.66,2.92,1.67,-1.81,-1.49,-1.89,1.11,1.11,1.26
