frequency,raw,error,smoothed,error_smoothed,equalization,parametric_eq,fixed_band_eq,equalized_raw,equalized_smoothed,target
20.00,3.26,1.38,3.27,1.39,-1.32,-1.88,-1.36,1.94,1.95,1.87
20.20,3.32,1.40,3.31,1.40,-1.37,-1.91,-1.40,1.94,1.94,1.91
20.40,3.38,1.42,3.37,1.42,-1.43,-1.94,-1.44,1.95,1.94,1.95
20.61,3.44,1.46,3.43,1.45,-1.49,-1.97,-1.48,1.94,1.94,1.97
20.81,3.50,1.48,3.50,1.48,-1.55,-2.00,-1.53,1.95,1.95,2.01
21.02,3.57,1.51,3.58,1.54,-1.61,-2.02,-1.57,1.95,1.97,2.05
21.23,3.70,1.63,3.69,1.62,-1.68,-2.05,-1.61,2.02,2.01,2.06
21.44,3.82,1.74,3.82,1.73,-1.74,-2.08,-1.66,2.07,2.07,2.08
21.66,3.94,1.84,3.95,1.86,-1.83,-2.11,-1.71,2.11,2.12,2.09
21.87,4.07,1.98,4.05,1.96,-1.91,-2.14,-1.76,2.16,2.15,2.09
22.09,4.15,2.05,4.13,2.03,-1.98,-2.17,-1.81,2.17,2.15,2.10
22.31,4.17,2.07,4.18,2.08,-2.05,-2.20,-1.86,2.12,2.13,2.10
22.54,4.20,2.10,4.20,2.10,-2.11,-2.23,-1.91,2.09,2.09,2.10
22.76,4.22,2.13,4.22,2.13,-2.16,-2.27,-1.96,2.06,2.06,2.09
22.99,4.25,2.17,4.26,2.17,-2.20,-2.30,-2.02,2.04,2.05,2.08
23.22,4.31,2.23,4.30,2.23,-2.25,-2.33,-2.07,2.06,2.05,2.08
23.45,4.36,2.29,4.36,2.29,-2.29,-2.36,-2.13,2.07,2.07,2.07
23.69,4.42,2.35,4.42,2.35,-2.34,-2.39,-2.19,2.08,2.08,2.07
23.92,4.48,2.41,4.47,2.40,-2.39,-2.42,-2.25,2.09,2.09,2.07
24.16,4.52,2.44,4.52,2.44,-2.43,-2.46,-2.31,2.09,2.09,2.08
24.40,4.55,2.47,4.55,2.48,-2.47,-2.49,-2.37,2.08,2.08,2.08
24.65,4.58,2.51,4.58,2.51,-2.49,-2.52,-2.44,2.08,2.08,2.07
24.89,4.61,2.54,4.60,2.54,-2.52,-2.56,-2.50,2.09,2.08,2.07
25.14,4.63,2.56,4.63,2.56,-2.55,-2.59,-2.57,2.07,2.07,2.07
25.39,4.65,2.58,4.64,2.58,-2.60,-2.62,-2.63,2.05,2.04,2.06
25.65,4.67,2.61,4.66,2.61,-2.67,-2.66,-2.70,2.00,2.00,2.05
25.91,4.69,2.64,4.70,2.66,-2.74,-2.69,-2.76,1.95,1.97,2.04
26.16,4.78,2.74,4.78,2.74,-2.81,-2.72,-2.83,1.97,1.97,2.04
26.43,4.90,2.85,4.91,2.87,-2.87,-2.76,-2.90,2.03,2.04,2.04
26.69,5.03,2.99,5.03,2.99,-2.91,-2.79,-2.96,2.12,2.12,2.04
26.96,5.15,3.12,5.09,3.06,-2.93,-2.83,-3.03,2.21,2.16,2.03
27.23,5.08,3.05,5.08,3.05,-2.94,-2.86,-3.09,2.14,2.14,2.03
27.50,4.98,2.95,4.99,2.96,-2.92,-2.90,-3.15,2.06,2.06,2.03
27.77,4.87,2.85,4.87,2.85,-2.89,-2.93,-3.21,1.98,1.99,2.02
28.05,4.79,2.77,4.81,2.79,-2.85,-2.97,-3.27,1.94,1.96,2.02
28.33,4.78,2.77,4.76,2.76,-2.81,-3.00,-3.33,1.97,1.95,2.01
28.62,4.78,2.77,4.76,2.75,-2.80,-3.04,-3.39,1.98,1.96,2.00
28.90,4.77,2.76,4.79,2.79,-2.83,-3.07,-3.44,1.94,1.96,2.00
29.19,4.86,2.86,4.86,2.86,-2.91,-3.11,-3.49,1.95,1.96,2.00
29.48,4.99,2.98,4.98,2.97,-3.02,-3.15,-3.54,1.97,1.95,2.01
29.78,5.13,3.13,5.12,3.12,-3.16,-3.18,-3.59,1.97,1.96,2.00
30.08,5.26,3.26,5.27,3.27,-3.29,-3.22,-3.63,1.97,1.98,2.01
30.38,5.43,3.45,5.45,3.46,-3.41,-3.25,-3.67,2.03,2.04,1.99
30.68,5.60,3.61,5.61,3.62,-3.50,-3.29,-3.70,2.09,2.10,1.99
30.99,5.76,3.78,5.69,3.71,-3.57,-3.33,-3.74,2.18,2.12,1.98
31.30,5.69,3.71,5.68,3.71,-3.62,-3.36,-3.76,2.07,2.07,1.97
31.61,5.60,3.63,5.61,3.65,-3.65,-3.40,-3.79,1.95,1.96,1.97
31.93,5.52,3.57,5.55,3.59,-3.69,-3.43,-3.81,1.83,1.86,1.95
32.24,5.54,3.60,5.54,3.59,-3.73,-3.47,-3.83,1.81,1.81,1.94
32.57,5.60,3.66,5.58,3.65,-3.77,-3.51,-3.84,1.82,1.80,1.94
32.89,5.65,3.72,5.66,3.74,-3.82,-3.54,-3.85,1.83,1.85,1.93
33.22,5.77,3.86,5.79,3.88,-3.85,-3.58,-3.86,1.91,1.94,1.90
33.55,5.91,4.01,5.92,4.02,-3.89,-3.62,-3.87,2.02,2.03,1.90
33.89,6.05,4.17,5.99,4.11,-3.91,-3.65,-3.87,2.13,2.08,1.88
34.23,5.98,4.10,5.94,4.07,-3.94,-3.69,-3.87,2.04,2.00,1.88
34.57,5.81,3.95,5.81,3.95,-3.96,-3.73,-3.87,1.84,1.85,1.86
34.92,5.63,3.78,5.70,3.85,-4.00,-3.76,-3.87,1.63,1.70,1.84
35.27,5.67,3.82,5.67,3.83,-4.03,-3.80,-3.86,1.63,1.63,1.84
35.62,5.76,3.94,5.73,3.91,-4.07,-3.83,-3.86,1.69,1.67,1.82
35.97,5.86,4.05,5.87,4.06,-4.09,-3.87,-3.85,1.77,1.79,1.81
36.33,6.01,4.20,6.04,4.24,-4.11,-3.91,-3.85,1.90,1.93,1.81
36.70,6.17,4.37,6.16,4.36,-4.15,-3.94,-3.84,2.02,2.01,1.79
37.06,6.25,4.47,6.15,4.37,-4.20,-3.98,-3.84,2.06,1.96,1.78
37.43,6.04,4.26,6.04,4.26,-4.24,-4.01,-3.84,1.80,1.80,1.79
37.81,5.84,4.06,5.91,4.13,-4.27,-4.05,-3.83,1.57,1.64,1.77
38.19,5.81,4.05,5.87,4.10,-4.29,-4.08,-3.83,1.52,1.58,1.76
38.57,5.98,4.21,5.96,4.20,-4.29,-4.12,-3.83,1.68,1.67,1.77
38.95,6.15,4.39,6.09,4.33,-4.30,-4.15,-3.83,1.84,1.78,1.76
39.34,6.17,4.41,6.17,4.42,-4.33,-4.19,-3.84,1.84,1.84,1.75
39.74,6.18,4.44,6.19,4.45,-4.37,-4.22,-3.84,1.81,1.82,1.74
40.14,6.18,4.44,6.18,4.44,-4.41,-4.25,-3.85,1.77,1.77,1.74
40.54,6.18,4.45,6.18,4.45,-4.45,-4.29,-3.86,1.73,1.73,1.73
40.94,6.18,4.45,6.18,4.45,-4.47,-4.32,-3.87,1.71,1.71,1.73
41.35,6.18,4.46,6.18,4.46,-4.47,-4.35,-3.89,1.71,1.71,1.71
41.76,6.18,4.48,6.18,4.47,-4.48,-4.39,-3.90,1.70,1.70,1.70
42.18,6.18,4.48,6.17,4.48,-4.50,-4.42,-3.93,1.68,1.67,1.70
42.60,6.18,4.50,6.18,4.49,-4.53,-4.45,-3.95,1.65,1.64,1.68
43.03,6.19,4.51,6.22,4.54,-4.58,-4.48,-3.98,1.61,1.64,1.68
43.46,6.27,4.61,6.27,4.62,-4.63,-4.51,-4.01,1.64,1.64,1.65
43.90,6.35,4.72,6.31,4.68,-4.67,-4.54,-4.04,1.68,1.64,1.63
44.33,6.34,4.72,6.33,4.72,-4.69,-4.58,-4.07,1.64,1.64,1.61
44.78,6.31,4.72,6.33,4.74,-4.70,-4.61,-4.11,1.61,1.63,1.59
45.23,6.31,4.73,6.34,4.77,-4.70,-4.64,-4.16,1.61,1.64,1.57
45.68,6.35,4.79,6.33,4.77,-4.69,-4.66,-4.20,1.66,1.64,1.56
46.13,6.32,4.77,6.23,4.69,-4.68,-4.69,-4.25,1.64,1.55,1.54
46.60,6.11,4.57,6.12,4.59,-4.67,-4.72,-4.30,1.44,1.45,1.53
47.06,5.95,4.42,6.07,4.54,-4.67,-4.75,-4.35,1.28,1.41,1.53
47.53,6.12,4.60,6.10,4.58,-4.67,-4.78,-4.41,1.44,1.43,1.52
48.01,6.28,4.76,6.20,4.69,-4.69,-4.80,-4.47,1.59,1.51,1.52
48.49,6.28,4.78,6.29,4.79,-4.71,-4.83,-4.53,1.57,1.58,1.50
48.97,6.28,4.80,6.29,4.81,-4.74,-4.86,-4.60,1.54,1.55,1.48
49.46,6.28,4.80,6.28,4.81,-4.78,-4.88,-4.67,1.50,1.50,1.47
49.96,6.28,4.82,6.28,4.81,-4.81,-4.91,-4.73,1.47,1.47,1.46
50.46,6.28,4.81,6.28,4.81,-4.83,-4.93,-4.81,1.45,1.45,1.47
50.96,6.28,4.82,6.28,4.82,-4.84,-4.96,-4.88,1.44,1.44,1.46
51.47,6.28,4.83,6.28,4.82,-4.83,-4.98,-4.95,1.45,1.45,1.45
51.99,6.28,4.83,6.28,4.83,-4.83,-5.00,-5.03,1.45,1.45,1.44
52.51,6.28,4.83,6.28,4.83,-4.83,-5.02,-5.10,1.45,1.45,1.44
53.03,6.28,4.83,6.28,4.84,-4.84,-5.04,-5.18,1.44,1.44,1.44
53.56,6.28,4.84,6.28,4.84,-4.84,-5.06,-5.25,1.43,1.43,1.44
54.10,6.28,4.85,6.28,4.85,-4.85,-5.08,-5.33,1.43,1.43,1.43
54.64,6.28,4.85,6.28,4.86,-4.86,-5.10,-5.40,1.42,1.42,1.42
55.18,6.28,4.86,6.28,4.86,-4.86,-5.12,-5.47,1.41,1.41,1.41
55.74,6.28,4.87,6.28,4.87,-4.87,-5.14,-5.54,1.40,1.40,1.40
56.29,6.28,4.88,6.28,4.88,-4.88,-5.16,-5.61,1.39,1.39,1.40
56.86,6.28,4.90,6.28,4.89,-4.89,-5.17,-5.67,1.38,1.38,1.38
57.42,6.28,4.91,6.28,4.91,-4.90,-5.19,-5.73,1.37,1.37,1.37
58.00,6.28,4.92,6.28,4.92,-4.92,-5.21,-5.78,1.36,1.36,1.35
58.58,6.28,4.94,6.28,4.93,-4.93,-5.22,-5.83,1.34,1.34,1.34
59.16,6.28,4.95,6.28,4.95,-4.95,-5.23,-5.88,1.32,1.32,1.33
59.76,6.28,4.97,6.28,4.97,-4.98,-5.25,-5.92,1.30,1.30,1.30
60.35,6.28,5.00,6.28,5.00,-5.01,-5.26,-5.95,1.27,1.27,1.28
60.96,6.28,5.02,6.28,5.03,-5.04,-5.27,-5.98,1.23,1.23,1.26
61.57,6.28,5.07,6.28,5.06,-5.08,-5.28,-6.00,1.20,1.20,1.21
62.18,6.28,5.10,6.28,5.10,-5.11,-5.29,-6.01,1.16,1.16,1.17
62.80,6.28,5.14,6.28,5.14,-5.13,-5.30,-6.02,1.14,1.14,1.14
63.43,6.28,5.17,6.29,5.19,-5.14,-5.31,-6.02,1.14,1.15,1.10
64.07,6.28,5.21,6.29,5.22,-5.14,-5.31,-6.01,1.13,1.15,1.07
64.71,6.28,5.25,6.24,5.21,-5.15,-5.32,-6.00,1.13,1.09,1.03
65.35,6.18,5.18,6.15,5.15,-5.16,-5.33,-5.98,1.02,0.99,1.00
66.01,6.01,5.05,6.05,5.09,-5.17,-5.33,-5.95,0.84,0.88,0.96
66.67,5.98,5.06,6.01,5.08,-5.19,-5.34,-5.92,0.79,0.82,0.92
67.33,6.03,5.14,6.05,5.16,-5.21,-5.34,-5.88,0.82,0.84,0.89
68.01,6.18,5.32,6.12,5.27,-5.24,-5.34,-5.84,0.93,0.88,0.85
68.69,6.18,5.37,6.17,5.36,-5.30,-5.34,-5.79,0.88,0.87,0.81
69.37,6.18,5.41,6.19,5.42,-5.38,-5.35,-5.74,0.80,0.81,0.77
70.07,6.18,5.45,6.17,5.44,-5.47,-5.35,-5.69,0.71,0.70,0.73
70.77,6.18,5.48,6.16,5.46,-5.55,-5.35,-5.64,0.63,0.61,0.70
71.48,6.18,5.52,6.24,5.59,-5.60,-5.34,-5.58,0.58,0.64,0.65
72.19,6.25,5.64,6.31,5.70,-5.64,-5.34,-5.52,0.60,0.67,0.61
72.91,6.51,5.95,6.32,5.76,-5.67,-5.34,-5.46,0.83,0.64,0.56
73.64,6.24,5.73,6.27,5.76,-5.70,-5.34,-5.40,0.54,0.57,0.51
74.38,6.08,5.61,6.17,5.70,-5.71,-5.33,-5.34,0.36,0.46,0.47
75.12,6.08,5.66,6.06,5.64,-5.72,-5.33,-5.28,0.36,0.34,0.42
75.87,6.08,5.69,6.06,5.68,-5.71,-5.32,-5.22,0.37,0.35,0.38
76.63,6.06,5.71,6.05,5.71,-5.69,-5.31,-5.16,0.37,0.36,0.35
77.40,6.02,5.71,6.00,5.69,-5.68,-5.31,-5.11,0.34,0.33,0.31
78.17,5.95,5.67,5.94,5.67,-5.67,-5.30,-5.05,0.28,0.27,0.27
78.95,5.87,5.62,5.89,5.65,-5.67,-5.29,-5.00,0.19,0.22,0.24
79.74,5.87,5.65,5.87,5.65,-5.68,-5.28,-4.95,0.19,0.19,0.21
80.54,5.87,5.68,5.86,5.68,-5.68,-5.27,-4.90,0.19,0.18,0.19
81.35,5.86,5.70,5.86,5.70,-5.66,-5.26,-4.86,0.19,0.19,0.15
82.16,5.83,5.70,5.82,5.69,-5.65,-5.25,-4.81,0.18,0.17,0.12
82.98,5.77,5.66,5.76,5.67,-5.65,-5.23,-4.77,0.12,0.12,0.10
83.81,5.69,5.63,5.71,5.65,-5.66,-5.22,-4.74,0.03,0.05,0.06
84.65,5.67,5.64,5.66,5.62,-5.67,-5.21,-4.71,-0.01,-0.02,0.03
85.50,5.63,5.62,5.60,5.60,-5.68,-5.19,-4.68,-0.05,-0.08,0.01
86.35,5.57,5.59,5.59,5.61,-5.67,-5.18,-4.65,-0.10,-0.08,-0.03
87.22,5.56,5.62,5.63,5.69,-5.65,-5.16,-4.63,-0.09,-0.02,-0.06
88.09,5.69,5.78,5.65,5.75,-5.64,-5.14,-4.61,0.04,0.01,-0.09
88.97,5.73,5.85,5.60,5.72,-5.63,-5.13,-4.60,0.09,-0.03,-0.12
89.86,5.42,5.57,5.47,5.62,-5.61,-5.11,-4.59,-0.20,-0.14,-0.15
90.76,5.24,5.43,5.29,5.47,-5.57,-5.09,-4.58,-0.33,-0.28,-0.19
91.66,5.17,5.38,5.18,5.40,-5.50,-5.07,-4.57,-0.33,-0.32,-0.21
92.58,5.16,5.41,5.20,5.45,-5.40,-5.05,-4.57,-0.24,-0.20,-0.25
93.51,5.22,5.49,5.18,5.45,-5.30,-5.03,-4.58,-0.08,-0.12,-0.28
94.44,5.14,5.44,5.00,5.30,-5.22,-5.01,-4.58,-0.08,-0.22,-0.30
95.39,4.74,5.07,4.77,5.10,-5.16,-4.99,-4.59,-0.42,-0.39,-0.33
96.34,4.41,4.78,4.61,4.97,-5.12,-4.97,-4.60,-0.71,-0.52,-0.37
97.30,4.57,4.96,4.53,4.92,-5.09,-4.94,-4.62,-0.52,-0.57,-0.40
98.28,4.70,5.12,4.55,4.97,-5.05,-4.92,-4.64,-0.35,-0.49,-0.42
99.26,4.52,4.96,4.60,5.05,-4.98,-4.90,-4.65,-0.46,-0.38,-0.44
100.25,4.52,4.99,4.58,5.04,-4.91,-4.87,-4.68,-0.39,-0.33,-0.47
101.25,4.55,5.04,4.48,4.98,-4.83,-4.85,-4.70,-0.29,-0.35,-0.50
102.27,4.41,4.93,4.33,4.86,-4.75,-4.82,-4.73,-0.34,-0.42,-0.53
103.29,4.04,4.61,4.07,4.64,-4.63,-4.80,-4.75,-0.59,-0.56,-0.57
104.32,3.74,4.33,3.80,4.40,-4.48,-4.77,-4.78,-0.74,-0.68,-0.59
105.37,3.60,4.23,3.59,4.22,-4.32,-4.74,-4.81,-0.72,-0.73,-0.63
106.42,3.49,4.15,3.46,4.12,-4.17,-4.72,-4.84,-0.68,-0.71,-0.66
107.48,3.34,4.03,3.34,4.04,-4.03,-4.69,-4.87,-0.70,-0.69,-0.70
108.56,3.20,3.93,3.19,3.92,-3.92,-4.66,-4.89,-0.73,-0.74,-0.74
109.64,3.04,3.81,3.01,3.78,-3.83,-4.63,-4.92,-0.80,-0.82,-0.77
110.74,2.89,3.69,2.93,3.74,-3.76,-4.61,-4.95,-0.87,-0.82,-0.80
111.85,2.82,3.65,2.93,3.76,-3.68,-4.58,-4.97,-0.87,-0.76,-0.83
112.97,2.99,3.86,2.82,3.69,-3.61,-4.55,-4.99,-0.62,-0.79,-0.88
114.10,2.81,3.70,2.70,3.60,-3.54,-4.52,-5.01,-0.73,-0.84,-0.89
115.24,2.33,3.26,2.59,3.52,-3.48,-4.49,-5.02,-1.15,-0.90,-0.93
116.39,2.52,3.48,2.47,3.43,-3.47,-4.46,-5.03,-0.95,-1.00,-0.96
117.55,2.53,3.51,2.38,3.37,-3.49,-4.43,-5.04,-0.96,-1.10,-0.99
118.73,2.41,3.42,2.44,3.45,-3.53,-4.39,-5.04,-1.12,-1.09,-1.01
119.92,2.30,3.32,2.47,3.50,-3.60,-4.36,-5.03,-1.30,-1.13,-1.02
121.12,2.73,3.77,2.60,3.64,-3.70,-4.33,-5.02,-0.98,-1.11,-1.04
122.33,2.82,3.88,2.82,3.88,-3.83,-4.30,-5.01,-1.01,-1.00,-1.06
123.55,2.97,4.03,3.01,4.08,-3.96,-4.27,-4.99,-0.99,-0.94,-1.06
124.79,3.17,4.26,3.07,4.15,-4.07,-4.23,-4.96,-0.91,-1.01,-1.09
126.03,3.07,4.17,3.12,4.22,-4.17,-4.20,-4.92,-1.11,-1.05,-1.10
127.29,3.11,4.22,3.13,4.25,-4.24,-4.17,-4.88,-1.14,-1.12,-1.12
128.57,3.14,4.28,3.14,4.28,-4.28,-4.13,-4.84,-1.14,-1.14,-1.14
129.85,3.15,4.30,3.14,4.29,-4.28,-4.10,-4.78,-1.14,-1.15,-1.15
131.15,3.18,4.34,3.09,4.25,-4.27,-4.06,-4.72,-1.09,-1.18,-1.17
132.46,2.96,4.13,3.07,4.25,-4.25,-4.03,-4.66,-1.29,-1.18,-1.18
133.79,3.04,4.22,3.08,4.27,-4.26,-3.99,-4.59,-1.22,-1.18,-1.18
135.12,3.16,4.37,3.01,4.21,-4.28,-3.96,-4.51,-1.12,-1.27,-1.21
136.48,3.03,4.24,2.97,4.19,-4.29,-3.92,-4.43,-1.26,-1.31,-1.21
137.84,2.78,4.01,3.02,4.26,-4.29,-3.89,-4.34,-1.51,-1.27,-1.23
139.22,3.06,4.32,3.05,4.30,-4.29,-3.85,-4.26,-1.23,-1.24,-1.26
140.61,3.36,4.63,3.08,4.35,-4.27,-3.81,-4.16,-0.91,-1.19,-1.28
142.02,2.98,4.25,3.13,4.41,-4.24,-3.77,-4.07,-1.27,-1.11,-1.28
143.44,2.91,4.20,2.98,4.27,-4.21,-3.74,-3.97,-1.31,-1.24,-1.29
144.87,2.97,4.29,2.79,4.10,-4.19,-3.70,-3.87,-1.22,-1.40,-1.32
146.32,2.60,3.94,2.74,4.08,-4.16,-3.66,-3.77,-1.57,-1.43,-1.35
147.78,2.64,4.01,2.66,4.04,-4.13,-3.62,-3.67,-1.49,-1.47,-1.37
149.26,2.69,4.09,2.59,4.00,-4.09,-3.58,-3.56,-1.41,-1.51,-1.41
150.75,2.57,4.03,2.60,4.06,-4.05,-3.54,-3.46,-1.48,-1.45,-1.46
152.26,2.52,4.02,2.58,4.09,-4.01,-3.50,-3.35,-1.49,-1.43,-1.51
153.78,2.56,4.12,2.52,4.08,-3.99,-3.46,-3.25,-1.43,-1.47,-1.56
155.32,2.48,4.10,2.39,4.01,-3.95,-3.41,-3.14,-1.48,-1.56,-1.62
156.88,2.17,3.84,2.20,3.88,-3.90,-3.37,-3.03,-1.73,-1.70,-1.68
158.44,1.92,3.66,1.99,3.74,-3.81,-3.32,-2.93,-1.90,-1.82,-1.75
160.03,1.83,3.64,1.84,3.64,-3.70,-3.28,-2.82,-1.87,-1.86,-1.81
161.63,1.78,3.64,1.74,3.60,-3.55,-3.23,-2.72,-1.77,-1.81,-1.86
163.24,1.62,3.54,1.59,3.50,-3.39,-3.19,-2.62,-1.78,-1.80,-1.92
164.88,1.39,3.34,1.37,3.32,-3.24,-3.14,-2.52,-1.85,-1.86,-1.95
166.53,1.07,3.06,1.12,3.11,-3.10,-3.09,-2.41,-2.03,-1.97,-1.99
168.19,0.91,2.92,0.88,2.90,-2.98,-3.04,-2.32,-2.08,-2.10,-2.02
169.87,0.72,2.76,0.70,2.74,-2.89,-2.99,-2.22,-2.17,-2.19,-2.05
171.57,0.57,2.63,0.62,2.68,-2.81,-2.94,-2.12,-2.24,-2.19,-2.06
173.29,0.58,2.65,0.61,2.68,-2.74,-2.88,-2.02,-2.17,-2.13,-2.07
175.02,0.70,2.77,0.64,2.72,-2.69,-2.83,-1.93,-2.00,-2.06,-2.08
176.77,0.68,2.76,0.67,2.75,-2.65,-2.77,-1.84,-1.97,-1.98,-2.08
178.54,0.62,2.71,0.66,2.74,-2.61,-2.71,-1.74,-1.99,-1.95,-2.09
180.32,0.59,2.66,0.56,2.64,-2.56,-2.65,-1.65,-1.97,-2.00,-2.07
182.13,0.48,2.55,0.43,2.50,-2.49,-2.58,-1.56,-2.01,-2.06,-2.07
183.95,0.23,2.30,0.30,2.37,-2.40,-2.52,-1.47,-2.18,-2.11,-2.07
185.79,0.15,2.23,0.16,2.24,-2.31,-2.45,-1.39,-2.16,-2.15,-2.08
187.65,0.10,2.19,0.04,2.13,-2.20,-2.38,-1.30,-2.10,-2.16,-2.09
189.52,-0.05,2.04,-0.03,2.06,-2.09,-2.31,-1.22,-2.15,-2.13,-2.09
191.42,-0.14,1.96,-0.12,1.99,-1.99,-2.23,-1.14,-2.13,-2.10,-2.11
193.33,-0.19,1.93,-0.20,1.92,-1.88,-2.15,-1.06,-2.07,-2.08,-2.12
195.27,-0.27,1.86,-0.30,1.84,-1.77,-2.07,-0.97,-2.04,-2.07,-2.13
197.22,-0.43,1.72,-0.44,1.71,-1.66,-1.98,-0.90,-2.09,-2.10,-2.15
199.19,-0.62,1.55,-0.62,1.55,-1.54,-1.89,-0.82,-2.17,-2.16,-2.17
201.18,-0.81,1.37,-0.80,1.39,-1.43,-1.79,-0.74,-2.24,-2.23,-2.19
203.19,-0.95,1.24,-0.95,1.25,-1.31,-1.70,-0.67,-2.26,-2.26,-2.20
205.23,-1.06,1.16,-1.08,1.14,-1.19,-1.59,-0.60,-2.26,-2.27,-2.23
207.28,-1.18,1.04,-1.17,1.06,-1.08,-1.48,-0.53,-2.26,-2.25,-2.23
209.35,-1.27,0.98,-1.26,0.99,-0.97,-1.37,-0.46,-2.24,-2.23,-2.25
211.44,-1.34,0.93,-1.37,0.90,-0.86,-1.25,-0.39,-2.21,-2.23,-2.27
213.56,-1.48,0.80,-1.49,0.79,-0.76,-1.12,-0.33,-2.24,-2.25,-2.28
215.69,-1.63,0.66,-1.63,0.66,-0.65,-0.99,-0.26,-2.28,-2.28,-2.29
217.85,-1.79,0.51,-1.78,0.53,-0.54,-0.85,-0.20,-2.33,-2.31,-2.30
220.03,-1.90,0.42,-1.91,0.40,-0.42,-0.71,-0.14,-2.32,-2.33,-2.32
222.23,-2.03,0.29,-2.03,0.28,-0.30,-0.55,-0.09,-2.34,-2.34,-2.33
224.45,-2.15,0.16,-2.16,0.16,-0.18,-0.40,-0.03,-2.34,-2.34,-2.31
226.70,-2.27,0.04,-2.27,0.04,-0.06,-0.23,0.01,-2.33,-2.33,-2.31
228.96,-2.38,-0.08,-2.37,-0.06,0.07,-0.07,0.06,-2.32,-2.30,-2.31
231.25,-2.44,-0.15,-2.46,-0.16,0.20,0.11,0.11,-2.25,-2.26,-2.29
233.57,-2.55,-0.27,-2.56,-0.28,0.33,0.29,0.15,-2.22,-2.23,-2.28
235.90,-2.67,-0.41,-2.69,-0.42,0.46,0.47,0.18,-2.21,-2.23,-2.27
238.26,-2.84,-0.60,-2.84,-0.59,0.58,0.65,0.22,-2.26,-2.25,-2.24
240.64,-2.98,-0.76,-2.97,-0.76,0.71,0.82,0.25,-2.28,-2.27,-2.22
243.05,-3.07,-0.89,-3.07,-0.89,0.82,1.00,0.28,-2.25,-2.25,-2.18
245.48,-3.14,-0.98,-3.12,-0.96,0.94,1.17,0.30,-2.20,-2.18,-2.16
247.93,-3.15,-1.02,-3.16,-1.02,1.04,1.33,0.32,-2.11,-2.12,-2.13
250.41,-3.17,-1.05,-3.21,-1.10,1.14,1.47,0.34,-2.04,-2.08,-2.12
252.92,-3.29,-1.21,-3.27,-1.19,1.22,1.60,0.35,-2.08,-2.06,-2.08
255.45,-3.36,-1.30,-3.34,-1.28,1.28,1.71,0.36,-2.08,-2.06,-2.06
258.00,-3.39,-1.35,-3.41,-1.37,1.34,1.80,0.36,-2.05,-2.06,-2.04
260.58,-3.44,-1.41,-3.45,-1.42,1.40,1.86,0.36,-2.04,-2.04,-2.03
263.19,-3.48,-1.48,-3.47,-1.47,1.46,1.90,0.36,-2.02,-2.01,-2.00
265.82,-3.49,-1.51,-3.49,-1.51,1.51,1.90,0.35,-1.98,-1.98,-1.99
268.48,-3.49,-1.53,-3.50,-1.54,1.55,1.88,0.34,-1.94,-1.95,-1.96
271.16,-3.50,-1.57,-3.50,-1.56,1.58,1.83,0.33,-1.92,-1.92,-1.93
273.87,-3.50,-1.58,-3.50,-1.59,1.61,1.76,0.32,-1.90,-1.90,-1.92
276.61,-3.50,-1.61,-3.51,-1.62,1.62,1.66,0.30,-1.88,-1.89,-1.89
279.38,-3.50,-1.64,-3.50,-1.63,1.63,1.55,0.28,-1.87,-1.87,-1.87
282.17,-3.48,-1.63,-3.48,-1.63,1.62,1.42,0.25,-1.86,-1.86,-1.85
284.99,-3.42,-1.61,-3.42,-1.60,1.59,1.29,0.23,-1.83,-1.83,-1.81
287.84,-3.34,-1.56,-3.35,-1.57,1.55,1.14,0.20,-1.80,-1.80,-1.78
290.72,-3.24,-1.50,-3.26,-1.51,1.50,0.99,0.17,-1.75,-1.77,-1.75
293.63,-3.18,-1.46,-3.15,-1.43,1.44,0.84,0.14,-1.75,-1.71,-1.72
296.57,-3.00,-1.32,-3.00,-1.31,1.36,0.69,0.11,-1.64,-1.64,-1.68
299.53,-2.83,-1.17,-2.84,-1.18,1.26,0.54,0.07,-1.57,-1.58,-1.67
302.53,-2.67,-1.03,-2.71,-1.08,1.12,0.39,0.03,-1.55,-1.59,-1.64
305.55,-2.59,-0.99,-2.62,-1.01,0.95,0.25,-0.00,-1.65,-1.68,-1.60
308.61,-2.52,-0.94,-2.46,-0.88,0.73,0.11,-0.04,-1.79,-1.73,-1.58
311.69,-2.26,-0.70,-2.18,-0.63,0.49,-0.02,-0.08,-1.77,-1.69,-1.57
314.81,-1.76,-0.24,-1.83,-0.29,0.22,-0.15,-0.12,-1.54,-1.61,-1.53
317.96,-1.38,0.14,-1.44,0.08,-0.05,-0.27,-0.16,-1.44,-1.49,-1.52
321.14,-1.13,0.37,-1.08,0.42,-0.32,-0.38,-0.20,-1.46,-1.40,-1.50
324.35,-0.80,0.69,-0.80,0.69,-0.58,-0.48,-0.25,-1.38,-1.38,-1.49
327.59,-0.53,0.94,-0.57,0.91,-0.81,-0.58,-0.29,-1.35,-1.38,-1.48
330.87,-0.36,1.10,-0.38,1.09,-1.01,-0.67,-0.33,-1.37,-1.39,-1.47
334.18,-0.29,1.17,-0.27,1.19,-1.17,-0.76,-0.38,-1.46,-1.44,-1.46
337.52,-0.17,1.28,-0.19,1.25,-1.31,-0.84,-0.42,-1.48,-1.50,-1.45
340.90,-0.13,1.30,-0.11,1.32,-1.42,-0.92,-0.47,-1.55,-1.53,-1.43
344.30,-0.00,1.42,0.01,1.43,-1.52,-0.98,-0.52,-1.52,-1.51,-1.42
347.75,0.15,1.56,0.16,1.57,-1.62,-1.05,-0.56,-1.47,-1.46,-1.42
351.23,0.34,1.74,0.33,1.74,-1.71,-1.11,-0.61,-1.37,-1.38,-1.41
354.74,0.48,1.89,0.45,1.86,-1.80,-1.16,-0.66,-1.32,-1.34,-1.41
358.28,0.53,1.93,0.52,1.92,-1.87,-1.22,-0.70,-1.34,-1.35,-1.40
361.87,0.53,1.93,0.54,1.94,-1.92,-1.26,-0.75,-1.40,-1.38,-1.40
365.49,0.54,1.93,0.55,1.95,-1.95,-1.31,-0.80,-1.41,-1.39,-1.39
369.14,0.56,1.95,0.56,1.96,-1.94,-1.35,-0.85,-1.38,-1.38,-1.39
372.83,0.58,1.97,0.55,1.94,-1.92,-1.38,-0.90,-1.34,-1.36,-1.39
376.56,0.51,1.90,0.50,1.89,-1.88,-1.41,-0.95,-1.37,-1.38,-1.40
380.33,0.44,1.81,0.43,1.82,-1.85,-1.44,-1.00,-1.41,-1.41,-1.38
384.13,0.35,1.73,0.38,1.76,-1.82,-1.47,-1.05,-1.47,-1.44,-1.39
387.97,0.36,1.75,0.36,1.74,-1.80,-1.50,-1.10,-1.44,-1.44,-1.39
391.85,0.38,1.77,0.36,1.75,-1.77,-1.52,-1.15,-1.40,-1.41,-1.39
395.77,0.38,1.76,0.38,1.76,-1.75,-1.54,-1.20,-1.37,-1.37,-1.38
399.73,0.38,1.76,0.39,1.78,-1.73,-1.56,-1.25,-1.35,-1.34,-1.38
403.72,0.38,1.77,0.38,1.76,-1.71,-1.57,-1.30,-1.34,-1.33,-1.39
407.76,0.38,1.77,0.33,1.72,-1.70,-1.59,-1.35,-1.32,-1.37,-1.39
411.84,0.27,1.65,0.28,1.68,-1.69,-1.60,-1.40,-1.42,-1.41,-1.38
415.96,0.21,1.60,0.24,1.63,-1.68,-1.61,-1.45,-1.47,-1.44,-1.39
420.12,0.24,1.63,0.23,1.62,-1.67,-1.62,-1.50,-1.43,-1.44,-1.40
424.32,0.27,1.65,0.25,1.65,-1.66,-1.62,-1.55,-1.40,-1.41,-1.39
428.56,0.29,1.67,0.28,1.67,-1.66,-1.63,-1.59,-1.37,-1.37,-1.39
432.85,0.30,1.66,0.30,1.67,-1.65,-1.63,-1.64,-1.36,-1.35,-1.37
437.18,0.33,1.68,0.34,1.68,-1.65,-1.64,-1.68,-1.32,-1.31,-1.35
441.55,0.37,1.68,0.37,1.68,-1.65,-1.64,-1.72,-1.28,-1.28,-1.31
445.96,0.41,1.69,0.38,1.66,-1.64,-1.64,-1.76,-1.24,-1.27,-1.28
450.42,0.39,1.64,0.38,1.62,-1.64,-1.64,-1.80,-1.25,-1.26,-1.25
454.93,0.36,1.55,0.40,1.60,-1.64,-1.64,-1.84,-1.28,-1.23,-1.19
459.48,0.45,1.60,0.44,1.59,-1.63,-1.63,-1.87,-1.19,-1.19,-1.15
464.07,0.54,1.63,0.52,1.61,-1.64,-1.63,-1.90,-1.10,-1.12,-1.09
468.71,0.59,1.63,0.60,1.64,-1.64,-1.63,-1.93,-1.05,-1.04,-1.04
473.40,0.66,1.65,0.66,1.65,-1.63,-1.62,-1.95,-0.97,-0.97,-0.99
478.13,0.71,1.65,0.71,1.65,-1.62,-1.61,-1.97,-0.91,-0.91,-0.94
482.91,0.76,1.66,0.74,1.64,-1.60,-1.61,-1.99,-0.84,-0.86,-0.90
487.74,0.73,1.58,0.74,1.59,-1.56,-1.60,-2.00,-0.84,-0.82,-0.85
492.62,0.73,1.54,0.73,1.55,-1.52,-1.59,-2.01,-0.79,-0.79,-0.81
