frequency,raw,error,smoothed,error_smoothed,equalization,parametric_eq,fixed_band_eq,equalized_raw,equalized_smoothed,target
20.00,-20.51,-21.97,-20.51,-21.97,6.00,5.12,2.74,-14.51,-14.51,1.46
20.20,-20.37,-21.83,-20.37,-21.83,6.00,5.16,2.81,-14.37,-14.37,1.46
20.40,-20.23,-21.69,-20.23,-21.70,6.00,5.21,2.89,-14.23,-14.23,1.46
20.61,-20.09,-21.56,-20.09,-21.56,6.00,5.25,2.97,-14.09,-14.09,1.47
20.81,-19.96,-21.43,-19.96,-21.42,6.00,5.29,3.06,-13.96,-13.96,1.47
21.02,-19.82,-21.29,-19.82,-21.29,6.00,5.33,3.14,-13.82,-13.82,1.47
21.23,-19.67,-21.14,-19.67,-21.14,6.00,5.37,3.23,-13.67,-13.67,1.47
21.44,-19.52,-21.00,-19.52,-21.00,6.00,5.41,3.32,-13.52,-13.52,1.48
21.66,-19.37,-20.85,-19.37,-20.85,6.00,5.46,3.42,-13.37,-13.37,1.48
21.87,-19.22,-20.69,-19.21,-20.69,6.00,5.50,3.52,-13.22,-13.21,1.48
22.09,-19.04,-20.51,-19.03,-20.51,6.00,5.53,3.62,-13.04,-13.03,1.48
22.31,-18.83,-20.31,-18.83,-20.31,6.00,5.57,3.72,-12.83,-12.83,1.49
22.54,-18.62,-20.10,-18.62,-20.10,6.00,5.61,3.82,-12.62,-12.62,1.48
22.76,-18.41,-19.89,-18.41,-19.89,6.00,5.65,3.93,-12.41,-12.41,1.49
22.99,-18.20,-19.69,-18.22,-19.70,6.00,5.69,4.04,-12.20,-12.22,1.49
23.22,-18.05,-19.54,-18.05,-19.53,6.00,5.72,4.15,-12.05,-12.05,1.49
23.45,-17.90,-19.38,-17.90,-19.38,6.00,5.76,4.27,-11.90,-11.90,1.49
23.69,-17.75,-19.24,-17.75,-19.24,6.00,5.80,4.39,-11.75,-11.75,1.48
23.92,-17.60,-19.09,-17.60,-19.08,6.00,5.83,4.51,-11.60,-11.60,1.49
24.16,-17.44,-18.92,-17.44,-18.93,6.00,5.87,4.63,-11.44,-11.44,1.48
24.40,-17.28,-18.76,-17.28,-18.77,6.00,5.90,4.76,-11.28,-11.28,1.48
24.65,-17.13,-18.61,-17.13,-18.60,6.00,5.93,4.88,-11.13,-11.13,1.48
24.89,-16.97,-18.44,-16.97,-18.45,6.00,5.97,5.01,-10.97,-10.97,1.47
25.14,-16.82,-18.29,-16.82,-18.29,6.00,6.00,5.14,-10.82,-10.82,1.47
25.39,-16.67,-18.13,-16.67,-18.13,6.00,6.03,5.27,-10.67,-10.67,1.46
25.65,-16.53,-17.99,-16.53,-17.99,6.00,6.06,5.40,-10.53,-10.53,1.46
25.91,-16.38,-17.83,-16.38,-17.84,6.00,6.09,5.54,-10.38,-10.38,1.45
26.16,-16.24,-17.69,-16.24,-17.69,6.00,6.12,5.67,-10.24,-10.24,1.45
26.43,-16.10,-17.54,-16.10,-17.54,6.00,6.15,5.80,-10.10,-10.10,1.44
26.69,-15.96,-17.40,-15.96,-17.40,6.00,6.17,5.93,-9.96,-9.96,1.44
26.96,-15.81,-17.25,-15.82,-17.26,6.00,6.20,6.06,-9.81,-9.82,1.44
27.23,-15.68,-17.12,-15.68,-17.11,6.00,6.22,6.19,-9.68,-9.68,1.44
27.50,-15.54,-16.97,-15.54,-16.97,6.00,6.25,6.31,-9.54,-9.54,1.43
27.77,-15.40,-16.82,-15.40,-16.83,6.00,6.27,6.44,-9.40,-9.40,1.43
28.05,-15.26,-16.69,-15.26,-16.69,6.00,6.29,6.55,-9.26,-9.26,1.44
28.33,-15.13,-16.56,-15.13,-16.56,6.00,6.32,6.67,-9.13,-9.13,1.43
28.62,-14.99,-16.43,-15.00,-16.43,6.00,6.34,6.77,-8.99,-9.00,1.43
28.90,-14.86,-16.29,-14.85,-16.28,6.00,6.36,6.87,-8.86,-8.85,1.43
29.19,-14.68,-16.11,-14.68,-16.11,6.00,6.37,6.97,-8.68,-8.68,1.43
29.48,-14.49,-15.92,-14.49,-15.92,6.00,6.39,7.05,-8.49,-8.49,1.43
29.78,-14.30,-15.73,-14.30,-15.73,6.00,6.41,7.13,-8.30,-8.30,1.43
30.08,-14.12,-15.54,-14.14,-15.56,6.00,6.42,7.20,-8.12,-8.14,1.42
30.38,-14.00,-15.42,-14.00,-15.42,6.00,6.44,7.26,-8.00,-8.00,1.42
30.68,-13.88,-15.30,-13.88,-15.29,6.00,6.45,7.31,-7.88,-7.88,1.42
30.99,-13.76,-15.17,-13.75,-15.16,6.00,6.46,7.34,-7.76,-7.75,1.41
31.30,-13.59,-15.00,-13.60,-15.00,6.00,6.47,7.37,-7.59,-7.60,1.40
31.61,-13.43,-14.82,-13.43,-14.83,6.00,6.48,7.39,-7.43,-7.43,1.39
31.93,-13.26,-14.65,-13.27,-14.65,6.00,6.49,7.40,-7.26,-7.27,1.39
32.24,-13.11,-14.49,-13.11,-14.49,6.00,6.50,7.40,-7.11,-7.11,1.38
32.57,-12.97,-14.34,-12.97,-14.34,6.00,6.51,7.38,-6.97,-6.97,1.37
32.89,-12.83,-14.20,-12.82,-14.19,6.00,6.51,7.36,-6.83,-6.82,1.37
33.22,-12.67,-14.04,-12.67,-14.03,6.00,6.52,7.33,-6.67,-6.67,1.37
33.55,-12.52,-13.87,-12.51,-13.87,6.00,6.52,7.30,-6.52,-6.51,1.35
33.89,-12.36,-13.70,-12.38,-13.72,6.00,6.52,7.25,-6.36,-6.38,1.34
34.23,-12.26,-13.60,-12.27,-13.61,6.00,6.52,7.20,-6.26,-6.27,1.34
34.57,-12.18,-13.51,-12.18,-13.51,6.00,6.52,7.14,-6.18,-6.18,1.33
34.92,-12.10,-13.43,-12.08,-13.41,6.00,6.52,7.08,-6.10,-6.08,1.33
35.27,-11.96,-13.29,-11.95,-13.28,6.00,6.52,7.02,-5.96,-5.95,1.33
35.62,-11.80,-13.12,-11.80,-13.12,6.00,6.52,6.95,-5.80,-5.80,1.32
35.97,-11.64,-12.95,-11.66,-12.98,6.00,6.51,6.88,-5.64,-5.66,1.31
36.33,-11.54,-12.85,-11.55,-12.86,6.00,6.51,6.81,-5.54,-5.55,1.31
36.70,-11.45,-12.76,-11.44,-12.75,6.00,6.50,6.73,-5.45,-5.44,1.31
37.06,-11.34,-12.64,-11.32,-12.62,6.00,6.49,6.66,-5.34,-5.32,1.30
37.43,-11.16,-12.46,-11.16,-12.47,6.00,6.48,6.58,-5.16,-5.16,1.30
37.81,-10.98,-12.29,-10.99,-12.30,6.00,6.47,6.51,-4.98,-4.99,1.31
38.19,-10.81,-12.12,-10.80,-12.11,6.00,6.46,6.44,-4.81,-4.80,1.31
38.57,-10.66,-11.96,-10.65,-11.95,6.00,6.45,6.37,-4.66,-4.65,1.30
38.95,-10.50,-11.80,-10.54,-11.84,6.00,6.43,6.30,-4.50,-4.54,1.30
39.34,-10.47,-11.77,-10.48,-11.78,6.00,6.42,6.24,-4.47,-4.48,1.30
39.74,-10.46,-11.76,-10.43,-11.73,6.00,6.40,6.17,-4.46,-4.43,1.30
40.14,-10.39,-11.68,-10.36,-11.66,6.00,6.39,6.11,-4.39,-4.36,1.29
40.54,-10.22,-11.51,-10.23,-11.52,6.00,6.37,6.06,-4.22,-4.23,1.29
40.94,-10.05,-11.33,-10.05,-11.34,6.00,6.35,6.01,-4.05,-4.05,1.29
41.35,-9.88,-11.15,-9.87,-11.14,6.00,6.33,5.96,-3.88,-3.87,1.27
41.76,-9.72,-10.98,-9.73,-10.99,6.00,6.31,5.91,-3.72,-3.73,1.26
42.18,-9.61,-10.85,-9.65,-10.89,6.00,6.29,5.87,-3.61,-3.65,1.24
42.60,-9.59,-10.82,-9.58,-10.81,6.00,6.26,5.84,-3.59,-3.58,1.23
43.03,-9.56,-10.78,-9.50,-10.71,6.00,6.24,5.80,-3.56,-3.50,1.22
43.46,-9.36,-10.55,-9.37,-10.56,6.00,6.21,5.78,-3.36,-3.37,1.19
43.90,-9.17,-10.35,-9.20,-10.38,6.00,6.19,5.75,-3.17,-3.20,1.18
44.33,-9.04,-10.20,-9.04,-10.20,6.00,6.16,5.73,-3.04,-3.04,1.16
44.78,-8.94,-10.09,-8.95,-10.09,6.00,6.13,5.72,-2.94,-2.95,1.15
45.23,-8.88,-10.01,-8.90,-10.03,6.00,6.11,5.71,-2.88,-2.90,1.13
45.68,-8.85,-9.97,-8.84,-9.96,6.00,6.08,5.70,-2.85,-2.84,1.12
46.13,-8.78,-9.89,-8.73,-9.84,6.00,6.05,5.70,-2.78,-2.73,1.11
46.60,-8.59,-9.70,-8.60,-9.71,6.00,6.02,5.70,-2.59,-2.60,1.11
47.06,-8.43,-9.53,-8.49,-9.59,6.00,5.98,5.71,-2.43,-2.49,1.10
47.53,-8.41,-9.50,-8.41,-9.50,6.00,5.95,5.72,-2.41,-2.41,1.09
48.01,-8.39,-9.49,-8.33,-9.42,6.00,5.92,5.73,-2.39,-2.33,1.10
48.49,-8.23,-9.33,-8.23,-9.33,6.00,5.88,5.75,-2.23,-2.23,1.10
48.97,-8.08,-9.18,-8.13,-9.23,6.00,5.85,5.77,-2.08,-2.13,1.10
49.46,-8.03,-9.14,-8.03,-9.14,6.00,5.81,5.79,-2.03,-2.03,1.11
49.96,-7.98,-9.09,-7.95,-9.06,6.00,5.78,5.82,-1.98,-1.95,1.11
50.46,-7.85,-8.97,-7.85,-8.97,6.00,5.74,5.85,-1.85,-1.85,1.12
50.96,-7.71,-8.83,-7.71,-8.83,6.00,5.70,5.88,-1.71,-1.71,1.12
51.47,-7.57,-8.70,-7.56,-8.69,6.00,5.67,5.92,-1.57,-1.56,1.13
51.99,-7.42,-8.54,-7.45,-8.57,6.00,5.63,5.95,-1.42,-1.45,1.12
52.51,-7.35,-8.46,-7.35,-8.46,6.00,5.59,5.99,-1.35,-1.35,1.11
53.03,-7.28,-8.38,-7.25,-8.35,6.00,5.55,6.03,-1.28,-1.25,1.10
53.56,-7.17,-8.26,-7.17,-8.26,6.00,5.51,6.06,-1.17,-1.17,1.09
54.10,-7.07,-8.15,-7.11,-8.19,6.00,5.47,6.10,-1.07,-1.11,1.08
54.64,-7.07,-8.13,-7.06,-8.12,6.00,5.43,6.14,-1.07,-1.06,1.06
55.18,-7.03,-8.07,-7.00,-8.04,6.00,5.39,6.17,-1.03,-1.00,1.04
55.74,-6.90,-7.92,-6.91,-7.92,6.00,5.34,6.20,-0.90,-0.91,1.02
56.29,-6.77,-7.76,-6.78,-7.77,6.00,5.30,6.23,-0.77,-0.78,0.99
56.86,-6.64,-7.61,-6.64,-7.60,6.00,5.26,6.26,-0.64,-0.64,0.97
57.42,-6.51,-7.44,-6.51,-7.44,6.00,5.22,6.28,-0.51,-0.51,0.93
58.00,-6.38,-7.28,-6.37,-7.27,6.00,5.17,6.30,-0.38,-0.37,0.90
58.58,-6.25,-7.12,-6.26,-7.13,6.00,5.13,6.32,-0.25,-0.26,0.87
59.16,-6.15,-6.99,-6.19,-7.02,6.00,5.08,6.32,-0.15,-0.19,0.84
59.76,-6.15,-6.95,-6.12,-6.92,6.00,5.04,6.32,-0.15,-0.12,0.80
60.35,-6.07,-6.84,-6.05,-6.82,6.00,4.99,6.32,-0.07,-0.04,0.77
60.96,-5.94,-6.67,-5.94,-6.67,6.01,4.95,6.31,0.07,0.08,0.73
61.57,-5.80,-6.51,-5.82,-6.53,6.02,4.90,6.29,0.22,0.20,0.71
62.18,-5.70,-6.37,-5.74,-6.41,6.03,4.86,6.26,0.33,0.29,0.67
62.80,-5.70,-6.34,-5.66,-6.29,6.02,4.81,6.23,0.32,0.36,0.64
63.43,-5.60,-6.20,-5.59,-6.19,5.99,4.77,6.19,0.39,0.40,0.60
64.07,-5.47,-6.03,-5.51,-6.08,5.94,4.72,6.14,0.47,0.43,0.56
64.71,-5.43,-5.96,-5.43,-5.95,5.87,4.67,6.08,0.44,0.45,0.53
65.35,-5.36,-5.85,-5.34,-5.83,5.78,4.63,6.02,0.42,0.45,0.49
66.01,-5.24,-5.70,-5.23,-5.69,5.68,4.58,5.95,0.44,0.45,0.46
66.67,-5.09,-5.52,-5.11,-5.54,5.57,4.53,5.87,0.48,0.47,0.43
67.33,-4.98,-5.39,-4.99,-5.40,5.46,4.49,5.79,0.48,0.47,0.41
68.01,-4.92,-5.30,-4.90,-5.28,5.34,4.44,5.70,0.42,0.44,0.38
68.69,-4.83,-5.19,-4.85,-5.22,5.23,4.39,5.60,0.40,0.37,0.36
69.37,-4.79,-5.14,-4.79,-5.14,5.12,4.35,5.51,0.33,0.33,0.35
70.07,-4.77,-5.11,-4.72,-5.06,5.03,4.30,5.40,0.26,0.31,0.34
70.77,-4.61,-4.93,-4.66,-4.98,4.94,4.25,5.30,0.33,0.28,0.32
71.48,-4.56,-4.87,-4.56,-4.87,4.87,4.20,5.19,0.31,0.31,0.31
72.19,-4.51,-4.81,-4.46,-4.76,4.80,4.16,5.08,0.29,0.34,0.30
72.91,-4.35,-4.64,-4.40,-4.69,4.73,4.11,4.97,0.38,0.33,0.29
73.64,-4.33,-4.61,-4.34,-4.62,4.66,4.06,4.85,0.33,0.31,0.28
74.38,-4.33,-4.59,-4.32,-4.59,4.58,4.01,4.74,0.25,0.26,0.26
75.12,-4.32,-4.57,-4.31,-4.55,4.51,3.97,4.62,0.19,0.20,0.25
75.87,-4.28,-4.50,-4.26,-4.48,4.43,3.92,4.51,0.15,0.18,0.22
76.63,-4.16,-4.36,-4.18,-4.39,4.35,3.87,4.39,0.19,0.17,0.20
77.40,-4.08,-4.27,-4.08,-4.26,4.26,3.82,4.28,0.18,0.18,0.19
78.17,-4.01,-4.18,-3.99,-4.15,4.17,3.77,4.16,0.16,0.18,0.17
78.95,-3.88,-4.02,-3.92,-4.06,4.07,3.73,4.05,0.19,0.15,0.14
79.74,-3.87,-3.99,-3.85,-3.97,3.98,3.68,3.94,0.11,0.13,0.12
80.54,-3.79,-3.89,-3.77,-3.87,3.89,3.63,3.83,0.10,0.12,0.10
81.35,-3.70,-3.78,-3.72,-3.79,3.82,3.58,3.72,0.12,0.10,0.08
82.16,-3.65,-3.71,-3.66,-3.72,3.75,3.54,3.61,0.10,0.09,0.06
82.98,-3.65,-3.69,-3.65,-3.69,3.69,3.49,3.51,0.04,0.04,0.04
83.81,-3.65,-3.67,-3.65,-3.67,3.63,3.44,3.40,-0.02,-0.02,0.02
84.65,-3.65,-3.65,-3.63,-3.63,3.58,3.39,3.30,-0.07,-0.05,0.00
85.50,-3.59,-3.58,-3.57,-3.56,3.53,3.35,3.20,-0.06,-0.04,-0.01
86.35,-3.48,-3.45,-3.50,-3.47,3.48,3.30,3.10,0.00,-0.02,-0.03
87.22,-3.42,-3.38,-3.44,-3.40,3.44,3.25,3.01,0.01,-0.00,-0.04
88.09,-3.42,-3.36,-3.41,-3.36,3.39,3.20,2.92,-0.03,-0.02,-0.06
88.97,-3.42,-3.35,-3.41,-3.34,3.35,3.15,2.83,-0.07,-0.06,-0.07
89.86,-3.42,-3.32,-3.42,-3.33,3.32,3.11,2.74,-0.10,-0.10,-0.10
90.76,-3.42,-3.31,-3.42,-3.31,3.30,3.06,2.65,-0.12,-0.12,-0.11
91.66,-3.42,-3.29,-3.42,-3.29,3.28,3.01,2.57,-0.14,-0.14,-0.13
92.58,-3.42,-3.27,-3.42,-3.27,3.27,2.96,2.48,-0.15,-0.15,-0.15
93.51,-3.42,-3.26,-3.42,-3.26,3.26,2.91,2.40,-0.16,-0.16,-0.16
94.44,-3.42,-3.24,-3.42,-3.24,3.25,2.87,2.32,-0.17,-0.17,-0.18
95.39,-3.42,-3.22,-3.42,-3.22,3.23,2.82,2.25,-0.19,-0.19,-0.20
96.34,-3.42,-3.20,-3.42,-3.20,3.22,2.77,2.17,-0.20,-0.20,-0.22
97.30,-3.42,-3.18,-3.42,-3.19,3.19,2.72,2.10,-0.23,-0.23,-0.24
98.28,-3.42,-3.16,-3.43,-3.17,3.15,2.67,2.03,-0.27,-0.27,-0.26
99.26,-3.42,-3.15,-3.43,-3.15,3.11,2.62,1.96,-0.31,-0.32,-0.27
100.25,-3.41,-3.11,-3.38,-3.08,3.06,2.57,1.89,-0.35,-0.33,-0.30
101.25,-3.34,-3.02,-3.31,-2.99,2.99,2.52,1.83,-0.34,-0.32,-0.32
102.27,-3.19,-2.84,-3.25,-2.90,2.92,2.47,1.77,-0.27,-0.33,-0.35
103.29,-3.19,-2.81,-3.20,-2.82,2.83,2.42,1.70,-0.36,-0.37,-0.38
104.32,-3.19,-2.77,-3.15,-2.73,2.74,2.37,1.64,-0.45,-0.42,-0.42
105.37,-3.13,-2.67,-3.10,-2.65,2.63,2.32,1.59,-0.50,-0.48,-0.46
106.42,-3.00,-2.50,-3.05,-2.54,2.52,2.26,1.53,-0.48,-0.52,-0.50
107.48,-2.96,-2.41,-2.97,-2.42,2.42,2.21,1.48,-0.54,-0.56,-0.55
108.56,-2.96,-2.35,-2.90,-2.30,2.31,2.15,1.42,-0.65,-0.59,-0.61
109.64,-2.82,-2.16,-2.84,-2.18,2.21,2.10,1.37,-0.61,-0.63,-0.66
110.74,-2.74,-2.03,-2.78,-2.07,2.10,2.04,1.32,-0.64,-0.68,-0.71
111.85,-2.74,-1.98,-2.75,-1.99,1.99,1.98,1.28,-0.75,-0.76,-0.76
112.97,-2.74,-1.93,-2.71,-1.90,1.88,1.92,1.23,-0.86,-0.83,-0.81
114.10,-2.69,-1.83,-2.65,-1.79,1.77,1.86,1.19,-0.92,-0.88,-0.86
115.24,-2.51,-1.60,-2.59,-1.67,1.66,1.79,1.15,-0.85,-0.93,-0.91
116.39,-2.51,-1.55,-2.51,-1.55,1.55,1.73,1.11,-0.96,-0.96,-0.96
117.55,-2.50,-1.49,-2.43,-1.43,1.44,1.66,1.07,-1.06,-0.99,-1.01
118.73,-2.34,-1.30,-2.39,-1.34,1.33,1.59,1.04,-1.01,-1.06,-1.04
119.92,-2.28,-1.20,-2.30,-1.22,1.22,1.51,1.00,-1.06,-1.09,-1.08
121.12,-2.27,-1.15,-2.21,-1.09,1.11,1.44,0.97,-1.16,-1.10,-1.12
122.33,-2.13,-0.98,-2.14,-0.99,1.02,1.36,0.94,-1.12,-1.13,-1.15
123.55,-2.05,-0.87,-2.09,-0.91,0.92,1.27,0.91,-1.13,-1.17,-1.18
124.79,-2.05,-0.83,-2.05,-0.84,0.84,1.18,0.89,-1.21,-1.21,-1.22
126.03,-2.05,-0.81,-2.02,-0.78,0.76,1.09,0.86,-1.29,-1.26,-1.24
127.29,-1.98,-0.72,-1.96,-0.70,0.68,0.99,0.84,-1.30,-1.28,-1.26
128.57,-1.87,-0.57,-1.89,-0.60,0.60,0.89,0.82,-1.27,-1.29,-1.30
129.85,-1.82,-0.50,-1.85,-0.53,0.52,0.79,0.80,-1.30,-1.33,-1.32
131.15,-1.82,-0.47,-1.81,-0.46,0.44,0.68,0.78,-1.38,-1.37,-1.35
132.46,-1.82,-0.44,-1.76,-0.39,0.37,0.57,0.77,-1.45,-1.40,-1.38
133.79,-1.68,-0.27,-1.70,-0.29,0.29,0.46,0.76,-1.39,-1.41,-1.41
135.12,-1.60,-0.17,-1.63,-0.20,0.23,0.34,0.74,-1.37,-1.41,-1.43
136.48,-1.60,-0.14,-1.59,-0.13,0.17,0.23,0.73,-1.43,-1.42,-1.46
137.84,-1.60,-0.11,-1.59,-0.10,0.12,0.12,0.72,-1.48,-1.47,-1.49
139.22,-1.60,-0.09,-1.60,-0.08,0.08,0.02,0.72,-1.52,-1.52,-1.51
140.61,-1.60,-0.06,-1.60,-0.06,0.05,-0.07,0.71,-1.55,-1.55,-1.54
142.02,-1.60,-0.03,-1.60,-0.03,0.01,-0.15,0.71,-1.59,-1.59,-1.57
143.44,-1.60,-0.00,-1.60,-0.00,-0.02,-0.22,0.70,-1.62,-1.62,-1.60
144.87,-1.60,0.03,-1.60,0.03,-0.04,-0.26,0.70,-1.64,-1.64,-1.63
146.32,-1.60,0.06,-1.60,0.06,-0.07,-0.29,0.70,-1.67,-1.67,-1.66
147.78,-1.60,0.10,-1.60,0.10,-0.10,-0.30,0.70,-1.70,-1.70,-1.70
149.26,-1.60,0.13,-1.59,0.15,-0.12,-0.29,0.70,-1.72,-1.71,-1.73
150.75,-1.60,0.18,-1.60,0.17,-0.15,-0.27,0.70,-1.75,-1.75,-1.78
152.26,-1.61,0.21,-1.66,0.17,-0.17,-0.23,0.71,-1.78,-1.83,-1.82
153.78,-1.75,0.13,-1.72,0.15,-0.18,-0.19,0.71,-1.93,-1.91,-1.88
155.32,-1.81,0.12,-1.78,0.15,-0.19,-0.13,0.71,-2.00,-1.97,-1.93
156.88,-1.82,0.16,-1.82,0.16,-0.17,-0.07,0.72,-1.99,-1.99,-1.98
158.44,-1.82,0.20,-1.84,0.19,-0.14,-0.02,0.73,-1.96,-1.98,-2.02
160.03,-1.88,0.19,-1.91,0.16,-0.10,0.04,0.73,-1.98,-2.00,-2.07
161.63,-2.02,0.09,-2.03,0.08,-0.04,0.10,0.74,-2.06,-2.07,-2.11
163.24,-2.19,-0.05,-2.15,-0.01,0.01,0.15,0.75,-2.18,-2.14,-2.14
164.88,-2.28,-0.11,-2.27,-0.10,0.08,0.21,0.76,-2.20,-2.19,-2.17
166.53,-2.32,-0.13,-2.36,-0.17,0.14,0.25,0.77,-2.18,-2.22,-2.19
168.19,-2.44,-0.24,-2.43,-0.23,0.20,0.29,0.78,-2.24,-2.23,-2.20
169.87,-2.51,-0.30,-2.48,-0.27,0.25,0.33,0.79,-2.26,-2.23,-2.21
171.57,-2.51,-0.30,-2.52,-0.31,0.29,0.37,0.80,-2.22,-2.23,-2.21
173.29,-2.51,-0.30,-2.52,-0.31,0.31,0.40,0.82,-2.20,-2.21,-2.21
175.02,-2.51,-0.31,-2.51,-0.31,0.32,0.43,0.83,-2.19,-2.19,-2.20
176.77,-2.51,-0.32,-2.51,-0.32,0.32,0.45,0.84,-2.19,-2.19,-2.19
178.54,-2.51,-0.33,-2.51,-0.33,0.33,0.47,0.86,-2.18,-2.18,-2.18
180.32,-2.51,-0.35,-2.51,-0.35,0.36,0.49,0.87,-2.15,-2.15,-2.16
182.13,-2.51,-0.36,-2.49,-0.35,0.38,0.50,0.89,-2.13,-2.11,-2.15
183.95,-2.51,-0.37,-2.51,-0.37,0.42,0.52,0.91,-2.09,-2.09,-2.14
185.79,-2.51,-0.38,-2.57,-0.43,0.45,0.53,0.92,-2.06,-2.11,-2.13
187.65,-2.67,-0.54,-2.64,-0.51,0.49,0.54,0.94,-2.18,-2.15,-2.13
189.52,-2.73,-0.60,-2.71,-0.58,0.52,0.55,0.96,-2.21,-2.19,-2.13
191.42,-2.74,-0.61,-2.75,-0.61,0.55,0.55,0.98,-2.19,-2.20,-2.13
193.33,-2.74,-0.60,-2.74,-0.60,0.59,0.56,0.99,-2.15,-2.16,-2.14
195.27,-2.74,-0.59,-2.73,-0.58,0.62,0.56,1.01,-2.12,-2.11,-2.15
197.22,-2.74,-0.59,-2.74,-0.59,0.66,0.57,1.03,-2.08,-2.09,-2.15
199.19,-2.75,-0.59,-2.79,-0.63,0.68,0.57,1.05,-2.07,-2.12,-2.16
201.18,-2.87,-0.70,-2.86,-0.69,0.69,0.58,1.07,-2.18,-2.17,-2.17
203.19,-2.96,-0.78,-2.93,-0.75,0.70,0.58,1.09,-2.26,-2.23,-2.18
205.23,-2.96,-0.77,-2.97,-0.77,0.71,0.58,1.11,-2.25,-2.26,-2.19
207.28,-2.96,-0.75,-2.97,-0.76,0.73,0.59,1.13,-2.23,-2.24,-2.21
209.35,-2.96,-0.73,-2.96,-0.74,0.75,0.59,1.15,-2.21,-2.21,-2.23
211.44,-2.96,-0.72,-2.94,-0.70,0.76,0.60,1.16,-2.20,-2.18,-2.24
213.56,-2.96,-0.70,-2.97,-0.71,0.77,0.60,1.18,-2.19,-2.20,-2.26
215.69,-2.96,-0.70,-3.03,-0.77,0.78,0.61,1.20,-2.18,-2.25,-2.26
217.85,-3.17,-0.89,-3.11,-0.83,0.80,0.62,1.21,-2.37,-2.31,-2.28
220.03,-3.19,-0.90,-3.17,-0.88,0.83,0.63,1.23,-2.36,-2.34,-2.29
222.23,-3.19,-0.88,-3.19,-0.89,0.86,0.64,1.24,-2.33,-2.33,-2.31
224.45,-3.19,-0.88,-3.19,-0.88,0.90,0.66,1.25,-2.29,-2.29,-2.31
226.70,-3.19,-0.86,-3.24,-0.91,0.94,0.68,1.26,-2.25,-2.30,-2.33
228.96,-3.35,-1.01,-3.31,-0.97,0.98,0.70,1.27,-2.37,-2.33,-2.34
231.25,-3.40,-1.05,-3.37,-1.02,1.02,0.72,1.28,-2.38,-2.35,-2.35
233.57,-3.42,-1.06,-3.42,-1.06,1.06,0.76,1.28,-2.36,-2.37,-2.36
235.90,-3.42,-1.05,-3.46,-1.09,1.10,0.79,1.28,-2.32,-2.37,-2.37
238.26,-3.53,-1.15,-3.53,-1.15,1.14,0.84,1.28,-2.39,-2.39,-2.38
240.64,-3.63,-1.24,-3.60,-1.21,1.18,0.89,1.28,-2.45,-2.41,-2.39
243.05,-3.65,-1.26,-3.63,-1.24,1.22,0.95,1.28,-2.43,-2.42,-2.39
245.48,-3.65,-1.25,-3.66,-1.27,1.25,1.03,1.27,-2.40,-2.41,-2.40
247.93,-3.65,-1.25,-3.71,-1.31,1.30,1.11,1.26,-2.35,-2.42,-2.40
250.41,-3.83,-1.42,-3.77,-1.36,1.37,1.21,1.24,-2.46,-2.40,-2.41
252.92,-3.87,-1.46,-3.83,-1.42,1.47,1.33,1.23,-2.40,-2.36,-2.41
255.45,-3.87,-1.45,-3.92,-1.50,1.60,1.46,1.21,-2.27,-2.32,-2.42
258.00,-4.01,-1.59,-4.03,-1.61,1.74,1.61,1.19,-2.27,-2.29,-2.42
260.58,-4.24,-1.82,-4.25,-1.82,1.88,1.76,1.16,-2.36,-2.37,-2.42
263.19,-4.50,-2.06,-4.50,-2.07,2.02,1.93,1.14,-2.48,-2.49,-2.44
265.82,-4.76,-2.32,-4.69,-2.25,2.13,2.08,1.11,-2.63,-2.56,-2.44
268.48,-4.79,-2.34,-4.81,-2.35,2.22,2.22,1.08,-2.57,-2.59,-2.45
271.16,-4.79,-2.33,-4.81,-2.36,2.27,2.31,1.04,-2.52,-2.54,-2.46
273.87,-4.79,-2.33,-4.74,-2.28,2.29,2.35,1.01,-2.50,-2.45,-2.46
276.61,-4.65,-2.18,-4.67,-2.20,2.27,2.33,0.97,-2.38,-2.41,-2.47
279.38,-4.57,-2.09,-4.61,-2.14,2.20,2.24,0.93,-2.37,-2.41,-2.48
282.17,-4.56,-2.08,-4.54,-2.05,2.09,2.11,0.89,-2.47,-2.44,-2.48
284.99,-4.51,-2.02,-4.48,-2.00,1.97,1.93,0.84,-2.54,-2.52,-2.49
287.84,-4.34,-1.85,-4.37,-1.88,1.83,1.75,0.80,-2.51,-2.54,-2.49
290.72,-4.26,-1.77,-4.22,-1.73,1.69,1.55,0.75,-2.57,-2.53,-2.49
293.63,-4.01,-1.52,-4.05,-1.56,1.54,1.37,0.70,-2.47,-2.51,-2.49
296.57,-3.89,-1.39,-3.86,-1.37,1.40,1.20,0.65,-2.49,-2.47,-2.50
299.53,-3.70,-1.20,-3.67,-1.17,1.24,1.04,0.61,-2.46,-2.43,-2.50
302.53,-3.46,-0.95,-3.54,-1.03,1.07,0.90,0.55,-2.39,-2.46,-2.51
305.55,-3.42,-0.91,-3.41,-0.90,0.91,0.77,0.50,-2.51,-2.51,-2.51
308.61,-3.36,-0.84,-3.32,-0.80,0.75,0.66,0.45,-2.61,-2.57,-2.52
311.69,-3.21,-0.68,-3.20,-0.68,0.61,0.56,0.40,-2.59,-2.59,-2.53
314.81,-3.05,-0.51,-3.03,-0.49,0.49,0.47,0.34,-2.56,-2.54,-2.54
317.96,-2.83,-0.28,-2.87,-0.32,0.38,0.39,0.29,-2.45,-2.49,-2.55
321.14,-2.74,-0.17,-2.78,-0.21,0.27,0.32,0.24,-2.47,-2.51,-2.57
324.35,-2.74,-0.16,-2.71,-0.12,0.15,0.25,0.18,-2.59,-2.55,-2.58
327.59,-2.70,-0.10,-2.67,-0.07,0.04,0.19,0.13,-2.66,-2.63,-2.60
330.87,-2.56,0.05,-2.59,0.02,-0.07,0.14,0.07,-2.63,-2.67,-2.61
334.18,-2.51,0.11,-2.50,0.12,-0.17,0.09,0.02,-2.68,-2.68,-2.62
337.52,-2.38,0.25,-2.38,0.25,-0.26,0.04,-0.04,-2.64,-2.65,-2.63
340.90,-2.30,0.33,-2.26,0.38,-0.35,-0.00,-0.10,-2.65,-2.61,-2.63
344.30,-2.10,0.54,-2.14,0.50,-0.44,-0.04,-0.15,-2.54,-2.58,-2.64
347.75,-2.05,0.59,-2.08,0.57,-0.52,-0.08,-0.21,-2.57,-2.60,-2.64
351.23,-2.05,0.60,-2.04,0.61,-0.60,-0.12,-0.27,-2.65,-2.63,-2.65
354.74,-2.05,0.60,-2.01,0.64,-0.66,-0.15,-0.32,-2.71,-2.67,-2.65
358.28,-1.94,0.71,-1.95,0.70,-0.72,-0.18,-0.38,-2.66,-2.67,-2.65
361.87,-1.85,0.79,-1.89,0.76,-0.78,-0.21,-0.44,-2.63,-2.66,-2.64
365.49,-1.82,0.82,-1.82,0.83,-0.84,-0.24,-0.50,-2.66,-2.66,-2.64
369.14,-1.80,0.84,-1.76,0.88,-0.91,-0.27,-0.55,-2.71,-2.67,-2.64
372.83,-1.66,0.98,-1.69,0.95,-0.98,-0.30,-0.61,-2.64,-2.67,-2.64
376.56,-1.60,1.03,-1.59,1.05,-1.04,-0.33,-0.67,-2.64,-2.63,-2.63
380.33,-1.50,1.13,-1.49,1.15,-1.11,-0.36,-0.73,-2.61,-2.59,-2.63
384.13,-1.39,1.25,-1.42,1.22,-1.17,-0.38,-0.79,-2.56,-2.59,-2.64
387.97,-1.37,1.27,-1.38,1.26,-1.23,-0.41,-0.85,-2.60,-2.61,-2.64
391.85,-1.37,1.27,-1.37,1.27,-1.29,-0.43,-0.91,-2.66,-2.66,-2.64
395.77,-1.37,1.27,-1.35,1.29,-1.34,-0.46,-0.96,-2.71,-2.69,-2.64
399.73,-1.31,1.32,-1.28,1.35,-1.38,-0.48,-1.02,-2.69,-2.66,-2.63
403.72,-1.18,1.45,-1.21,1.42,-1.40,-0.51,-1.08,-2.58,-2.62,-2.63
407.76,-1.14,1.49,-1.15,1.48,-1.43,-0.53,-1.14,-2.57,-2.58,-2.63
411.84,-1.14,1.49,-1.13,1.50,-1.45,-0.56,-1.20,-2.59,-2.58,-2.63
415.96,-1.14,1.49,-1.14,1.50,-1.48,-0.58,-1.26,-2.62,-2.62,-2.63
420.12,-1.14,1.49,-1.15,1.48,-1.52,-0.60,-1.31,-2.66,-2.66,-2.63
424.32,-1.14,1.49,-1.15,1.49,-1.55,-0.63,-1.37,-2.69,-2.70,-2.63
428.56,-1.14,1.49,-1.11,1.53,-1.58,-0.65,-1.42,-2.72,-2.68,-2.63
432.85,-1.05,1.58,-1.04,1.60,-1.60,-0.68,-1.48,-2.65,-2.64,-2.63
