frequency,raw,error,smoothed,error_smoothed,equalization,parametric_eq,fixed_band_eq,equalized_raw,equalized_smoothed,target
20.00,-8.24,-11.53,-8.26,-11.56,6.00,5.18,2.83,-2.24,-2.26,3.29
20.20,-8.13,-11.41,-8.11,-11.39,6.00,5.22,2.91,-2.13,-2.11,3.28
20.40,-8.01,-11.28,-7.98,-11.25,6.00,5.26,3.00,-2.01,-1.98,3.26
20.61,-7.91,-11.16,-7.88,-11.13,6.00,5.30,3.08,-1.91,-1.88,3.25
20.81,-7.79,-11.03,-7.79,-11.03,6.00,5.34,3.17,-1.79,-1.79,3.23
21.02,-7.71,-10.93,-7.77,-10.99,6.00,5.38,3.26,-1.71,-1.77,3.22
21.23,-7.83,-11.04,-7.82,-11.03,6.00,5.41,3.35,-1.83,-1.82,3.21
21.44,-7.96,-11.16,-7.94,-11.14,6.00,5.45,3.44,-1.96,-1.94,3.20
21.66,-8.07,-11.26,-8.09,-11.28,6.00,5.49,3.54,-2.07,-2.09,3.18
21.87,-8.20,-11.38,-8.18,-11.35,6.00,5.53,3.64,-2.20,-2.18,3.18
22.09,-8.22,-11.39,-8.19,-11.36,6.00,5.56,3.74,-2.22,-2.19,3.17
22.31,-8.11,-11.27,-8.13,-11.29,6.00,5.60,3.85,-2.11,-2.13,3.16
22.54,-8.02,-11.17,-8.03,-11.18,6.00,5.63,3.95,-2.02,-2.03,3.15
22.76,-7.91,-11.05,-7.91,-11.05,6.00,5.67,4.06,-1.91,-1.91,3.14
22.99,-7.81,-10.94,-7.80,-10.94,6.00,5.70,4.18,-1.81,-1.80,3.14
23.22,-7.69,-10.81,-7.68,-10.81,6.00,5.74,4.29,-1.69,-1.68,3.13
23.45,-7.55,-10.68,-7.55,-10.68,6.00,5.77,4.41,-1.55,-1.55,3.13
23.69,-7.44,-10.56,-7.43,-10.55,6.00,5.80,4.53,-1.44,-1.43,3.13
23.92,-7.30,-10.43,-7.33,-10.45,6.00,5.84,4.66,-1.30,-1.33,3.13
24.16,-7.26,-10.39,-7.27,-10.40,6.00,5.87,4.78,-1.26,-1.27,3.13
24.40,-7.26,-10.38,-7.26,-10.38,6.00,5.90,4.91,-1.26,-1.26,3.12
24.65,-7.26,-10.38,-7.26,-10.39,6.00,5.93,5.04,-1.26,-1.26,3.12
24.89,-7.24,-10.37,-7.21,-10.34,6.00,5.96,5.17,-1.24,-1.21,3.12
25.14,-7.11,-10.23,-7.09,-10.21,6.00,5.99,5.31,-1.11,-1.09,3.12
25.39,-6.87,-9.99,-6.88,-10.00,6.00,6.02,5.44,-0.87,-0.88,3.12
25.65,-6.65,-9.76,-6.64,-9.76,6.00,6.04,5.58,-0.65,-0.64,3.11
25.91,-6.42,-9.53,-6.44,-9.55,6.00,6.07,5.71,-0.42,-0.44,3.11
26.16,-6.28,-9.38,-6.30,-9.40,6.00,6.10,5.85,-0.28,-0.30,3.10
26.43,-6.23,-9.32,-6.21,-9.30,6.00,6.12,5.99,-0.23,-0.21,3.10
26.69,-6.17,-9.25,-6.15,-9.24,6.00,6.15,6.12,-0.17,-0.15,3.09
26.96,-6.11,-9.18,-6.12,-9.20,6.00,6.17,6.25,-0.11,-0.12,3.08
27.23,-6.10,-9.17,-6.10,-9.17,6.00,6.19,6.38,-0.10,-0.10,3.08
27.50,-6.11,-9.17,-6.10,-9.16,6.00,6.21,6.51,-0.11,-0.10,3.06
27.77,-6.12,-9.17,-6.11,-9.17,6.00,6.24,6.64,-0.12,-0.11,3.05
28.05,-6.13,-9.17,-6.13,-9.17,6.00,6.26,6.75,-0.13,-0.13,3.04
28.33,-6.15,-9.19,-6.16,-9.19,6.00,6.28,6.87,-0.15,-0.16,3.04
28.62,-6.17,-9.21,-6.18,-9.22,6.00,6.29,6.98,-0.17,-0.18,3.04
28.90,-6.20,-9.23,-6.18,-9.22,6.00,6.31,7.08,-0.20,-0.18,3.03
29.19,-6.15,-9.19,-6.14,-9.18,6.00,6.33,7.17,-0.15,-0.14,3.04
29.48,-6.05,-9.09,-6.06,-9.10,6.00,6.34,7.25,-0.05,-0.06,3.03
29.78,-5.96,-8.99,-5.96,-9.00,6.00,6.36,7.33,0.04,0.04,3.03
30.08,-5.87,-8.90,-5.87,-8.91,6.00,6.37,7.39,0.13,0.13,3.03
30.38,-5.81,-8.84,-5.80,-8.83,6.00,6.38,7.45,0.19,0.20,3.03
30.68,-5.75,-8.77,-5.74,-8.77,6.00,6.39,7.49,0.25,0.26,3.03
30.99,-5.69,-8.71,-5.68,-8.71,6.00,6.40,7.52,0.31,0.32,3.03
31.30,-5.63,-8.65,-5.63,-8.66,6.00,6.41,7.54,0.37,0.37,3.02
31.61,-5.56,-8.58,-5.57,-8.59,6.00,6.42,7.55,0.44,0.43,3.02
31.93,-5.50,-8.52,-5.47,-8.49,6.00,6.43,7.55,0.50,0.53,3.02
32.24,-5.35,-8.36,-5.34,-8.35,6.00,6.43,7.54,0.65,0.66,3.01
32.57,-5.19,-8.19,-5.18,-8.19,6.00,6.44,7.51,0.81,0.82,3.01
32.89,-5.02,-8.03,-5.06,-8.07,6.00,6.44,7.48,0.98,0.94,3.00
33.22,-5.00,-8.00,-5.01,-8.02,6.00,6.44,7.44,1.00,0.99,3.00
33.55,-5.04,-8.03,-5.02,-8.02,6.00,6.44,7.38,0.96,0.98,3.00
33.89,-5.07,-8.05,-5.04,-8.03,6.00,6.44,7.32,0.93,0.96,2.99
34.23,-5.04,-8.02,-5.03,-8.01,6.00,6.44,7.25,0.96,0.97,2.98
34.57,-4.97,-7.96,-4.98,-7.96,6.00,6.44,7.18,1.03,1.02,2.98
34.92,-4.92,-7.89,-4.92,-7.90,6.00,6.44,7.10,1.08,1.08,2.98
35.27,-4.87,-7.84,-4.87,-7.84,6.00,6.43,7.02,1.13,1.13,2.98
35.62,-4.82,-7.79,-4.82,-7.78,6.00,6.42,6.93,1.18,1.18,2.97
35.97,-4.76,-7.72,-4.76,-7.72,6.00,6.42,6.84,1.24,1.24,2.96
36.33,-4.70,-7.66,-4.70,-7.66,6.00,6.41,6.75,1.30,1.30,2.96
36.70,-4.64,-7.59,-4.64,-7.59,6.00,6.40,6.65,1.36,1.36,2.95
37.06,-4.56,-7.51,-4.55,-7.50,6.00,6.39,6.56,1.44,1.45,2.95
37.43,-4.48,-7.42,-4.48,-7.41,6.00,6.37,6.46,1.52,1.52,2.93
37.81,-4.42,-7.35,-4.43,-7.36,6.00,6.36,6.37,1.58,1.57,2.93
38.19,-4.43,-7.34,-4.47,-7.38,6.00,6.34,6.27,1.57,1.53,2.92
38.57,-4.52,-7.43,-4.53,-7.43,6.00,6.33,6.18,1.48,1.47,2.90
38.95,-4.63,-7.52,-4.56,-7.46,6.00,6.31,6.09,1.37,1.44,2.89
39.34,-4.51,-7.40,-4.53,-7.41,6.00,6.29,6.00,1.49,1.47,2.88
39.74,-4.38,-7.24,-4.39,-7.25,6.00,6.27,5.92,1.62,1.61,2.87
40.14,-4.19,-7.04,-4.12,-6.97,6.00,6.25,5.83,1.81,1.88,2.85
40.54,-3.91,-6.75,-3.89,-6.73,6.00,6.23,5.75,2.09,2.11,2.84
40.94,-3.64,-6.47,-3.81,-6.65,6.00,6.20,5.68,2.36,2.19,2.83
41.35,-3.87,-6.69,-3.92,-6.74,6.00,6.18,5.60,2.13,2.08,2.83
41.76,-4.18,-7.00,-4.05,-6.87,6.00,6.15,5.54,1.82,1.95,2.82
42.18,-4.17,-6.99,-4.01,-6.82,6.00,6.13,5.47,1.83,1.99,2.81
42.60,-3.76,-6.57,-3.80,-6.60,6.00,6.10,5.41,2.24,2.20,2.81
43.03,-3.40,-6.20,-3.60,-6.40,6.00,6.07,5.35,2.60,2.40,2.80
43.46,-3.58,-6.37,-3.55,-6.35,6.00,6.04,5.30,2.42,2.45,2.79
43.90,-3.75,-6.55,-3.68,-6.47,6.00,6.00,5.25,2.25,2.32,2.80
44.33,-3.82,-6.61,-3.82,-6.61,6.00,5.97,5.20,2.18,2.18,2.79
44.78,-3.83,-6.62,-3.82,-6.61,6.00,5.94,5.16,2.17,2.18,2.78
45.23,-3.76,-6.53,-3.73,-6.51,6.01,5.90,5.12,2.25,2.28,2.78
45.68,-3.59,-6.35,-3.60,-6.37,6.00,5.87,5.09,2.42,2.40,2.77
46.13,-3.44,-6.20,-3.47,-6.23,5.99,5.83,5.06,2.55,2.53,2.76
46.60,-3.38,-6.13,-3.37,-6.12,6.00,5.79,5.04,2.62,2.63,2.75
47.06,-3.31,-6.06,-3.32,-6.06,6.01,5.75,5.01,2.69,2.69,2.74
47.53,-3.28,-6.02,-3.29,-6.02,6.01,5.71,4.99,2.72,2.72,2.73
48.01,-3.27,-5.98,-3.24,-5.95,5.99,5.67,4.98,2.73,2.76,2.71
48.49,-3.22,-5.92,-3.21,-5.90,5.95,5.63,4.97,2.73,2.74,2.70
48.97,-3.17,-5.85,-3.27,-5.95,5.88,5.59,4.96,2.71,2.61,2.68
49.46,-3.29,-5.95,-3.31,-5.98,5.81,5.55,4.95,2.52,2.50,2.67
49.96,-3.41,-6.07,-3.18,-5.84,5.74,5.50,4.95,2.33,2.56,2.66
50.46,-3.01,-5.65,-2.98,-5.63,5.68,5.46,4.95,2.67,2.70,2.65
50.96,-2.55,-5.19,-2.82,-5.46,5.64,5.42,4.95,3.09,2.82,2.64
51.47,-2.76,-5.39,-2.76,-5.39,5.60,5.37,4.95,2.85,2.84,2.63
51.99,-3.02,-5.64,-2.85,-5.47,5.55,5.33,4.96,2.53,2.70,2.62
52.51,-2.97,-5.56,-2.97,-5.57,5.48,5.28,4.96,2.51,2.51,2.59
53.03,-2.91,-5.49,-2.98,-5.56,5.40,5.23,4.97,2.50,2.42,2.58
53.56,-2.94,-5.50,-2.93,-5.50,5.34,5.19,4.98,2.41,2.41,2.57
54.10,-2.93,-5.48,-2.86,-5.41,5.29,5.14,4.98,2.37,2.43,2.55
54.64,-2.71,-5.24,-2.68,-5.22,5.24,5.09,4.99,2.53,2.55,2.54
55.18,-2.47,-4.99,-2.44,-4.96,5.16,5.05,5.00,2.69,2.72,2.52
55.74,-2.22,-4.72,-2.35,-4.86,5.05,5.00,5.00,2.83,2.69,2.50
56.29,-2.31,-4.79,-2.43,-4.91,4.94,4.95,5.00,2.63,2.51,2.49
56.86,-2.71,-5.18,-2.49,-4.96,4.86,4.90,5.00,2.15,2.37,2.47
57.42,-2.58,-5.03,-2.51,-4.96,4.81,4.85,5.00,2.23,2.30,2.45
58.00,-2.27,-4.70,-2.40,-4.83,4.78,4.80,4.99,2.51,2.37,2.43
58.58,-2.23,-4.64,-2.22,-4.63,4.74,4.75,4.98,2.51,2.52,2.41
59.16,-2.18,-4.58,-2.15,-4.54,4.68,4.69,4.97,2.49,2.53,2.39
59.76,-2.17,-4.53,-2.26,-4.63,4.59,4.64,4.95,2.43,2.33,2.37
60.35,-2.28,-4.62,-2.32,-4.67,4.52,4.58,4.93,2.24,2.20,2.35
60.96,-2.49,-4.83,-2.21,-4.55,4.46,4.52,4.90,1.97,2.25,2.34
61.57,-2.00,-4.31,-2.05,-4.36,4.41,4.46,4.86,2.41,2.36,2.31
62.18,-1.68,-3.97,-1.89,-4.18,4.35,4.39,4.83,2.67,2.46,2.29
62.80,-1.89,-4.14,-1.89,-4.15,4.28,4.33,4.78,2.39,2.39,2.25
63.43,-2.11,-4.34,-2.06,-4.29,4.19,4.26,4.73,2.09,2.13,2.23
64.07,-2.27,-4.47,-2.14,-4.34,4.11,4.18,4.67,1.83,1.97,2.19
64.71,-1.99,-4.15,-1.94,-4.11,4.04,4.11,4.61,2.06,2.10,2.17
65.35,-1.69,-3.82,-1.74,-3.88,3.99,4.03,4.54,2.30,2.25,2.13
66.01,-1.43,-3.53,-1.68,-3.78,3.94,3.95,4.47,2.51,2.26,2.10
66.67,-1.86,-3.93,-1.72,-3.79,3.86,3.87,4.39,2.00,2.14,2.06
67.33,-1.95,-3.99,-1.80,-3.83,3.76,3.78,4.31,1.81,1.96,2.03
68.01,-1.71,-3.70,-1.82,-3.81,3.66,3.70,4.22,1.95,1.84,1.99
68.69,-1.68,-3.64,-1.69,-3.65,3.58,3.61,4.13,1.91,1.90,1.96
69.37,-1.61,-3.53,-1.59,-3.51,3.55,3.53,4.03,1.94,1.96,1.92
70.07,-1.55,-3.43,-1.54,-3.42,3.51,3.44,3.93,1.97,1.98,1.89
70.77,-1.48,-3.32,-1.47,-3.31,3.45,3.35,3.83,1.97,1.97,1.84
71.48,-1.46,-3.26,-1.50,-3.31,3.35,3.27,3.73,1.90,1.85,1.81
72.19,-1.52,-3.28,-1.59,-3.35,3.26,3.18,3.62,1.75,1.67,1.76
72.91,-1.74,-3.47,-1.64,-3.37,3.19,3.09,3.51,1.44,1.55,1.73
73.64,-1.63,-3.32,-1.54,-3.22,3.13,3.01,3.40,1.50,1.60,1.69
74.38,-1.35,-3.00,-1.35,-3.00,3.07,2.92,3.29,1.73,1.72,1.65
75.12,-1.04,-2.65,-1.23,-2.83,3.00,2.83,3.18,1.96,1.77,1.61
75.87,-1.24,-2.80,-1.25,-2.82,2.91,2.75,3.07,1.68,1.66,1.56
76.63,-1.46,-2.99,-1.32,-2.84,2.81,2.66,2.95,1.35,1.50,1.52
77.40,-1.41,-2.88,-1.36,-2.83,2.70,2.58,2.84,1.30,1.35,1.48
78.17,-1.16,-2.59,-1.26,-2.70,2.61,2.49,2.73,1.45,1.35,1.44
78.95,-1.15,-2.55,-1.14,-2.53,2.54,2.41,2.62,1.38,1.40,1.39
79.74,-1.08,-2.43,-1.08,-2.43,2.49,2.32,2.50,1.40,1.41,1.35
80.54,-1.06,-2.36,-1.05,-2.36,2.43,2.24,2.39,1.38,1.38,1.30
81.35,-1.03,-2.28,-0.98,-2.24,2.35,2.16,2.28,1.32,1.36,1.26
82.16,-0.96,-2.17,-1.00,-2.20,2.23,2.08,2.17,1.28,1.24,1.21
82.98,-0.96,-2.11,-1.06,-2.22,2.11,1.99,2.06,1.16,1.05,1.16
83.81,-1.19,-2.30,-1.10,-2.21,2.02,1.91,1.95,0.82,0.92,1.11
84.65,-1.12,-2.18,-1.02,-2.07,1.94,1.83,1.85,0.82,0.92,1.06
85.50,-0.81,-1.81,-0.82,-1.82,1.87,1.75,1.74,1.06,1.05,1.00
86.35,-0.52,-1.46,-0.61,-1.56,1.79,1.67,1.63,1.28,1.18,0.95
87.22,-0.52,-1.40,-0.60,-1.49,1.72,1.59,1.53,1.20,1.12,0.89
88.09,-0.78,-1.62,-0.78,-1.62,1.65,1.50,1.43,0.86,0.86,0.84
88.97,-1.04,-1.82,-0.94,-1.71,1.58,1.42,1.32,0.53,0.63,0.77
89.86,-1.05,-1.76,-0.95,-1.66,1.51,1.34,1.22,0.46,0.56,0.71
90.76,-0.75,-1.40,-0.83,-1.48,1.43,1.27,1.12,0.68,0.60,0.66
91.66,-0.65,-1.24,-0.74,-1.34,1.34,1.19,1.02,0.69,0.59,0.59
92.58,-0.71,-1.23,-0.74,-1.27,1.22,1.11,0.93,0.52,0.49,0.53
93.51,-0.84,-1.31,-0.68,-1.14,1.08,1.03,0.83,0.24,0.40,0.46
94.44,-0.60,-1.00,-0.53,-0.93,0.94,0.95,0.73,0.33,0.41,0.40
95.39,-0.19,-0.52,-0.38,-0.72,0.81,0.87,0.64,0.63,0.43,0.33
96.34,-0.27,-0.53,-0.30,-0.56,0.73,0.80,0.54,0.46,0.43,0.27
97.30,-0.46,-0.65,-0.34,-0.54,0.66,0.72,0.45,0.20,0.32,0.19
98.28,-0.47,-0.59,-0.47,-0.59,0.59,0.64,0.36,0.13,0.12,0.12
99.26,-0.51,-0.55,-0.57,-0.62,0.53,0.57,0.27,0.03,-0.04,0.05
100.25,-0.64,-0.60,-0.62,-0.59,0.48,0.49,0.18,-0.16,-0.14,-0.03
101.25,-0.72,-0.62,-0.63,-0.52,0.43,0.41,0.09,-0.29,-0.20,-0.11
102.27,-0.55,-0.36,-0.59,-0.40,0.37,0.34,-0.00,-0.18,-0.22,-0.19
103.29,-0.49,-0.22,-0.51,-0.25,0.29,0.27,-0.09,-0.20,-0.23,-0.26
104.32,-0.46,-0.11,-0.46,-0.12,0.18,0.19,-0.17,-0.28,-0.28,-0.34
105.37,-0.48,-0.06,-0.47,-0.04,0.06,0.12,-0.26,-0.42,-0.41,-0.43
106.42,-0.48,0.03,-0.46,0.05,-0.06,0.04,-0.34,-0.53,-0.52,-0.51
107.48,-0.43,0.15,-0.44,0.15,-0.17,-0.03,-0.42,-0.60,-0.60,-0.58
108.56,-0.40,0.27,-0.40,0.26,-0.26,-0.10,-0.50,-0.66,-0.66,-0.66
109.64,-0.38,0.37,-0.39,0.35,-0.34,-0.17,-0.58,-0.71,-0.72,-0.74
110.74,-0.40,0.41,-0.39,0.42,-0.39,-0.24,-0.66,-0.79,-0.79,-0.81
111.85,-0.42,0.47,-0.40,0.48,-0.45,-0.31,-0.74,-0.86,-0.85,-0.88
112.97,-0.42,0.54,-0.41,0.54,-0.50,-0.38,-0.81,-0.92,-0.91,-0.95
114.10,-0.43,0.59,-0.44,0.58,-0.56,-0.45,-0.88,-0.99,-1.01,-1.02
115.24,-0.45,0.63,-0.51,0.57,-0.62,-0.52,-0.95,-1.08,-1.14,-1.08
116.39,-0.60,0.55,-0.54,0.61,-0.69,-0.59,-1.01,-1.30,-1.23,-1.15
117.55,-0.56,0.64,-0.50,0.71,-0.77,-0.66,-1.08,-1.33,-1.27,-1.21
118.73,-0.36,0.92,-0.43,0.84,-0.85,-0.73,-1.14,-1.21,-1.28,-1.27
119.92,-0.31,1.02,-0.33,1.00,-0.94,-0.80,-1.20,-1.25,-1.27,-1.33
121.12,-0.31,1.08,-0.29,1.10,-1.04,-0.86,-1.26,-1.35,-1.33,-1.39
122.33,-0.30,1.15,-0.28,1.16,-1.15,-0.93,-1.31,-1.45,-1.43,-1.44
123.55,-0.26,1.23,-0.25,1.24,-1.26,-0.99,-1.36,-1.52,-1.51,-1.49
124.79,-0.19,1.35,-0.21,1.33,-1.36,-1.06,-1.41,-1.55,-1.57,-1.54
126.03,-0.17,1.43,-0.15,1.44,-1.45,-1.12,-1.46,-1.62,-1.60,-1.60
127.29,-0.10,1.54,-0.11,1.54,-1.53,-1.19,-1.50,-1.63,-1.63,-1.64
128.57,-0.06,1.64,-0.07,1.62,-1.61,-1.25,-1.54,-1.66,-1.68,-1.69
129.85,-0.06,1.69,-0.05,1.69,-1.68,-1.31,-1.58,-1.74,-1.73,-1.74
131.15,-0.05,1.75,-0.04,1.75,-1.74,-1.37,-1.62,-1.79,-1.79,-1.79
132.46,-0.05,1.79,-0.04,1.80,-1.80,-1.43,-1.65,-1.84,-1.84,-1.84
133.79,-0.04,1.86,-0.04,1.86,-1.84,-1.50,-1.68,-1.87,-1.87,-1.90
135.12,-0.04,1.91,-0.02,1.92,-1.88,-1.56,-1.72,-1.91,-1.90,-1.94
136.48,-0.04,1.95,-0.05,1.94,-1.93,-1.61,-1.74,-1.97,-1.98,-1.99
137.84,-0.06,1.99,-0.11,1.93,-1.99,-1.67,-1.77,-2.04,-2.10,-2.04
139.22,-0.18,1.90,-0.11,1.98,-2.05,-1.73,-1.80,-2.23,-2.16,-2.09
140.61,-0.13,2.01,-0.08,2.07,-2.11,-1.79,-1.82,-2.25,-2.19,-2.14
142.02,0.07,2.27,-0.01,2.18,-2.18,-1.85,-1.85,-2.11,-2.19,-2.19
143.44,0.07,2.32,0.07,2.31,-2.26,-1.90,-1.87,-2.18,-2.19,-2.25
144.87,0.07,2.36,0.09,2.39,-2.33,-1.96,-1.90,-2.25,-2.23,-2.29
146.32,0.07,2.41,0.07,2.42,-2.41,-2.01,-1.92,-2.33,-2.33,-2.34
147.78,0.07,2.47,0.07,2.47,-2.48,-2.07,-1.95,-2.41,-2.41,-2.40
149.26,0.07,2.52,0.07,2.52,-2.54,-2.12,-1.97,-2.46,-2.46,-2.45
150.75,0.07,2.57,0.07,2.57,-2.57,-2.17,-2.00,-2.50,-2.50,-2.49
152.26,0.07,2.61,0.07,2.61,-2.59,-2.22,-2.02,-2.52,-2.52,-2.54
153.78,0.07,2.65,0.09,2.67,-2.62,-2.28,-2.05,-2.54,-2.53,-2.58
155.32,0.07,2.70,0.08,2.70,-2.65,-2.33,-2.07,-2.58,-2.57,-2.62
156.88,0.07,2.74,0.01,2.67,-2.70,-2.38,-2.10,-2.62,-2.69,-2.66
158.44,-0.05,2.65,-0.03,2.67,-2.75,-2.43,-2.13,-2.79,-2.78,-2.70
160.03,-0.14,2.60,-0.02,2.72,-2.80,-2.47,-2.16,-2.94,-2.82,-2.74
161.63,0.10,2.89,0.04,2.82,-2.86,-2.52,-2.19,-2.75,-2.82,-2.78
163.24,0.17,3.00,0.13,2.95,-2.91,-2.57,-2.23,-2.74,-2.78,-2.82
164.88,0.17,3.04,0.19,3.06,-2.97,-2.62,-2.26,-2.80,-2.78,-2.86
166.53,0.16,3.07,0.18,3.08,-3.04,-2.66,-2.30,-2.87,-2.86,-2.90
168.19,0.16,3.10,0.16,3.10,-3.10,-2.71,-2.34,-2.93,-2.93,-2.94
169.87,0.15,3.13,0.15,3.13,-3.14,-2.75,-2.38,-2.99,-2.99,-2.98
171.57,0.14,3.16,0.15,3.16,-3.18,-2.80,-2.42,-3.03,-3.03,-3.01
173.29,0.14,3.20,0.14,3.19,-3.20,-2.84,-2.47,-3.06,-3.06,-3.05
175.02,0.13,3.22,0.14,3.22,-3.22,-2.88,-2.51,-3.09,-3.09,-3.09
176.77,0.13,3.25,0.13,3.25,-3.25,-2.92,-2.56,-3.11,-3.11,-3.11
178.54,0.13,3.28,0.13,3.28,-3.28,-2.97,-2.61,-3.14,-3.14,-3.14
180.32,0.13,3.30,0.14,3.30,-3.31,-3.01,-2.67,-3.17,-3.17,-3.17
182.13,0.14,3.33,0.14,3.34,-3.34,-3.05,-2.72,-3.19,-3.19,-3.19
183.95,0.15,3.37,0.15,3.37,-3.37,-3.08,-2.78,-3.21,-3.22,-3.21
185.79,0.16,3.41,0.17,3.40,-3.40,-3.12,-2.84,-3.24,-3.23,-3.24
187.65,0.17,3.43,0.18,3.43,-3.43,-3.16,-2.90,-3.26,-3.25,-3.25
189.52,0.19,3.47,0.19,3.47,-3.46,-3.20,-2.96,-3.27,-3.27,-3.27
191.42,0.20,3.50,0.20,3.50,-3.50,-3.23,-3.02,-3.29,-3.29,-3.29
193.33,0.21,3.53,0.22,3.53,-3.53,-3.27,-3.09,-3.31,-3.31,-3.31
195.27,0.23,3.55,0.23,3.55,-3.56,-3.30,-3.16,-3.32,-3.32,-3.32
197.22,0.24,3.58,0.25,3.58,-3.58,-3.34,-3.23,-3.34,-3.34,-3.34
199.19,0.26,3.62,0.26,3.61,-3.61,-3.37,-3.30,-3.34,-3.35,-3.35
201.18,0.26,3.63,0.27,3.64,-3.63,-3.40,-3.37,-3.37,-3.37,-3.37
203.19,0.27,3.66,0.27,3.66,-3.66,-3.44,-3.44,-3.38,-3.38,-3.38
205.23,0.27,3.67,0.27,3.67,-3.68,-3.47,-3.51,-3.40,-3.40,-3.40
207.28,0.27,3.69,0.28,3.69,-3.69,-3.50,-3.59,-3.42,-3.42,-3.41
209.35,0.27,3.71,0.27,3.71,-3.71,-3.53,-3.66,-3.43,-3.43,-3.44
211.44,0.27,3.73,0.27,3.72,-3.72,-3.56,-3.74,-3.45,-3.45,-3.45
213.56,0.26,3.73,0.27,3.74,-3.74,-3.59,-3.81,-3.47,-3.47,-3.47
215.69,0.26,3.75,0.26,3.75,-3.75,-3.62,-3.88,-3.49,-3.49,-3.49
217.85,0.25,3.76,0.26,3.76,-3.76,-3.64,-3.95,-3.51,-3.51,-3.50
220.03,0.25,3.78,0.26,3.78,-3.77,-3.67,-4.02,-3.52,-3.52,-3.52
222.23,0.25,3.79,0.25,3.79,-3.79,-3.70,-4.09,-3.53,-3.53,-3.53
224.45,0.25,3.80,0.25,3.80,-3.80,-3.72,-4.15,-3.54,-3.54,-3.55
226.70,0.25,3.81,0.25,3.81,-3.81,-3.75,-4.21,-3.56,-3.56,-3.56
228.96,0.25,3.82,0.26,3.82,-3.82,-3.77,-4.27,-3.57,-3.57,-3.57
231.25,0.26,3.83,0.26,3.83,-3.84,-3.79,-4.33,-3.57,-3.57,-3.57
233.57,0.27,3.85,0.27,3.85,-3.85,-3.82,-4.38,-3.58,-3.58,-3.58
235.90,0.28,3.86,0.29,3.87,-3.86,-3.84,-4.42,-3.58,-3.58,-3.57
238.26,0.30,3.89,0.30,3.88,-3.88,-3.86,-4.46,-3.58,-3.58,-3.58
240.64,0.32,3.90,0.32,3.89,-3.90,-3.88,-4.50,-3.57,-3.58,-3.57
243.05,0.33,3.91,0.34,3.91,-3.91,-3.90,-4.53,-3.58,-3.57,-3.57
245.48,0.35,3.92,0.36,3.93,-3.93,-3.92,-4.55,-3.57,-3.57,-3.57
247.93,0.38,3.95,0.38,3.95,-3.95,-3.94,-4.57,-3.57,-3.57,-3.57
250.41,0.40,3.97,0.40,3.96,-3.97,-3.96,-4.59,-3.57,-3.57,-3.56
252.92,0.41,3.98,0.42,3.98,-3.99,-3.97,-4.59,-3.57,-3.57,-3.56
255.45,0.42,3.98,0.43,3.99,-3.99,-3.99,-4.60,-3.57,-3.57,-3.56
258.00,0.43,4.00,0.44,4.00,-3.98,-4.01,-4.59,-3.55,-3.55,-3.56
260.58,0.44,4.02,0.47,4.04,-3.96,-4.02,-4.58,-3.52,-3.50,-3.57
263.19,0.44,4.02,0.43,4.01,-3.95,-4.04,-4.57,-3.50,-3.52,-3.58
265.82,0.44,4.04,0.35,3.94,-3.94,-4.05,-4.55,-3.50,-3.60,-3.59
268.48,0.19,3.78,0.28,3.88,-3.94,-4.06,-4.52,-3.76,-3.66,-3.60
271.16,0.19,3.80,0.24,3.86,-3.95,-4.08,-4.49,-3.77,-3.71,-3.61
273.87,0.32,3.95,0.24,3.86,-3.96,-4.09,-4.46,-3.63,-3.72,-3.63
276.61,0.32,3.96,0.32,3.96,-3.96,-4.10,-4.42,-3.64,-3.64,-3.63
279.38,0.32,3.96,0.41,4.05,-3.97,-4.11,-4.38,-3.64,-3.56,-3.64
282.17,0.47,4.13,0.42,4.07,-3.98,-4.12,-4.34,-3.51,-3.56,-3.65
284.99,0.48,4.14,0.40,4.06,-3.99,-4.13,-4.30,-3.51,-3.59,-3.66
287.84,0.26,3.93,0.35,4.01,-4.00,-4.14,-4.25,-3.74,-3.65,-3.66
290.72,0.25,3.93,0.27,3.95,-4.01,-4.15,-4.21,-3.75,-3.73,-3.68
293.63,0.26,3.95,0.25,3.93,-4.01,-4.16,-4.16,-3.74,-3.76,-3.68
296.57,0.28,3.97,0.28,3.96,-4.00,-4.17,-4.11,-3.71,-3.72,-3.68
299.53,0.29,3.97,0.29,3.98,-3.99,-4.17,-4.06,-3.69,-3.69,-3.68
302.53,0.30,3.99,0.31,3.99,-3.98,-4.18,-4.01,-3.67,-3.67,-3.68
305.55,0.31,4.01,0.32,4.01,-3.97,-4.19,-3.97,-3.65,-3.64,-3.70
308.61,0.32,4.02,0.34,4.04,-3.95,-4.19,-3.92,-3.63,-3.62,-3.70
311.69,0.33,4.04,0.29,4.00,-3.95,-4.20,-3.88,-3.61,-3.66,-3.70
314.81,0.24,3.96,0.21,3.92,-3.95,-4.20,-3.83,-3.70,-3.73,-3.72
317.96,0.08,3.80,0.16,3.87,-3.95,-4.20,-3.79,-3.86,-3.79,-3.72
321.14,0.11,3.84,0.14,3.86,-3.96,-4.21,-3.75,-3.85,-3.82,-3.72
324.35,0.21,3.95,0.16,3.89,-3.97,-4.21,-3.71,-3.75,-3.81,-3.73
327.59,0.23,3.98,0.24,3.99,-3.98,-4.21,-3.67,-3.74,-3.73,-3.75
330.87,0.25,4.00,0.32,4.07,-3.99,-4.21,-3.64,-3.73,-3.67,-3.75
334.18,0.39,4.15,0.34,4.09,-4.00,-4.21,-3.61,-3.61,-3.66,-3.75
337.52,0.36,4.12,0.31,4.06,-4.01,-4.21,-3.58,-3.64,-3.70,-3.75
340.90,0.19,3.95,0.24,4.00,-4.00,-4.21,-3.55,-3.81,-3.76,-3.77
344.30,0.12,3.89,0.15,3.92,-3.97,-4.21,-3.53,-3.84,-3.82,-3.77
347.75,0.12,3.90,0.13,3.90,-3.92,-4.21,-3.51,-3.80,-3.80,-3.77
351.23,0.12,3.91,0.13,3.90,-3.87,-4.21,-3.49,-3.75,-3.75,-3.78
354.74,0.13,3.92,0.06,3.85,-3.83,-4.20,-3.47,-3.69,-3.76,-3.78
358.28,-0.02,3.77,-0.00,3.79,-3.80,-4.20,-3.46,-3.82,-3.80,-3.79
361.87,-0.13,3.66,-0.04,3.75,-3.80,-4.20,-3.45,-3.92,-3.84,-3.79
365.49,-0.01,3.78,-0.04,3.75,-3.82,-4.19,-3.44,-3.82,-3.86,-3.79
369.14,0.04,3.84,0.01,3.80,-3.85,-4.19,-3.44,-3.81,-3.84,-3.79
372.83,0.06,3.86,0.06,3.85,-3.88,-4.18,-3.43,-3.81,-3.82,-3.79
376.56,0.07,3.87,0.12,3.91,-3.89,-4.18,-3.43,-3.82,-3.78,-3.79
380.33,0.13,3.94,0.17,3.97,-3.90,-4.17,-3.44,-3.76,-3.73,-3.81
384.13,0.27,4.08,0.18,3.99,-3.89,-4.16,-3.44,-3.61,-3.71,-3.81
387.97,0.13,3.95,0.16,3.97,-3.87,-4.16,-3.45,-3.73,-3.71,-3.82
391.85,0.01,3.84,0.04,3.87,-3.84,-4.15,-3.46,-3.82,-3.79,-3.83
395.77,-0.06,3.79,-0.11,3.73,-3.80,-4.14,-3.47,-3.85,-3.91,-3.84
399.73,-0.24,3.61,-0.19,3.66,-3.77,-4.13,-3.48,-4.01,-3.96,-3.85
403.72,-0.24,3.62,-0.21,3.66,-3.76,-4.12,-3.50,-4.00,-3.97,-3.86
407.76,-0.15,3.74,-0.19,3.69,-3.76,-4.11,-3.51,-3.91,-3.95,-3.88
411.84,-0.12,3.78,-0.14,3.75,-3.77,-4.10,-3.53,-3.89,-3.91,-3.89
415.96,-0.12,3.79,-0.10,3.81,-3.78,-4.09,-3.55,-3.90,-3.88,-3.91
420.12,-0.12,3.80,-0.05,3.86,-3.78,-4.08,-3.57,-3.90,-3.84,-3.92
424.32,0.02,3.94,-0.01,3.91,-3.78,-4.07,-3.59,-3.76,-3.79,-3.92
428.56,0.02,3.94,-0.03,3.88,-3.77,-4.06,-3.61,-3.74,-3.80,-3.92
432.85,-0.12,3.78,-0.15,3.76,-3.74,-4.04,-3.64,-3.87,-3.89,-3.91
437.18,-0.32,3.57,-0.28,3.62,-3.72,-4.03,-3.66,-4.04,-3.99,-3.89
441.55,-0.40,3.48,-0.32,3.55,-3.69,-4.02,-3.68,-4.08,-4.01,-3.87
445.96,-0.24,3.61,-0.27,3.57,-3.67,-4.00,-3.70,-3.90,-3.94,-3.84
450.42,-0.13,3.68,-0.16,3.64,-3.65,-3.99,-3.72,-3.78,-3.82,-3.80
454.93,-0.08,3.69,-0.06,3.70,-3.64,-3.97,-3.73,-3.72,-3.70,-3.76
459.48,-0.02,3.70,-0.00,3.72,-3.64,-3.96,-3.75,-3.66,-3.65,-3.71
464.07,0.05,3.73,0.04,3.71,-3.66,-3.94,-3.76,-3.60,-3.61,-3.67
468.71,0.07,3.70,0.07,3.69,-3.67,-3.92,-3.78,-3.59,-3.60,-3.63
473.40,0.07,3.65,0.07,3.65,-3.66,-3.91,-3.79,-3.59,-3.59,-3.58
