frequency,raw,error,smoothed,error_smoothed,equalization,parametric_eq,fixed_band_eq,equalized_raw,equalized_smoothed,target
20.00,11.51,5.25,11.51,5.25,-5.25,-5.71,-3.18,6.26,6.26,6.26
20.20,11.54,5.31,11.55,5.31,-5.31,-5.75,-3.27,6.23,6.24,6.23
20.40,11.58,5.37,11.58,5.37,-5.37,-5.78,-3.36,6.21,6.21,6.21
20.61,11.61,5.42,11.61,5.43,-5.43,-5.82,-3.45,6.18,6.19,6.19
20.81,11.65,5.48,11.65,5.48,-5.49,-5.85,-3.54,6.17,6.16,6.17
21.02,11.68,5.53,11.69,5.54,-5.54,-5.89,-3.64,6.14,6.14,6.15
21.23,11.72,5.59,11.72,5.60,-5.60,-5.92,-3.74,6.12,6.12,6.13
21.44,11.76,5.65,11.76,5.65,-5.65,-5.96,-3.85,6.11,6.11,6.11
21.66,11.80,5.71,11.80,5.71,-5.71,-5.99,-3.95,6.09,6.10,6.09
21.87,11.84,5.76,11.84,5.77,-5.76,-6.03,-4.06,6.08,6.08,6.08
22.09,11.88,5.82,11.88,5.82,-5.81,-6.06,-4.17,6.07,6.07,6.06
22.31,11.91,5.86,11.92,5.87,-5.86,-6.10,-4.29,6.05,6.05,6.05
22.54,11.95,5.91,11.95,5.91,-5.91,-6.13,-4.40,6.04,6.04,6.04
22.76,11.98,5.95,11.98,5.96,-5.96,-6.16,-4.53,6.02,6.03,6.03
22.99,12.02,6.00,12.02,6.00,-6.00,-6.20,-4.65,6.02,6.02,6.02
23.22,12.05,6.04,12.06,6.05,-6.05,-6.23,-4.78,6.01,6.01,6.01
23.45,12.09,6.09,12.09,6.09,-6.09,-6.26,-4.91,6.00,6.00,6.00
23.69,12.12,6.13,12.12,6.13,-6.13,-6.29,-5.04,5.99,5.99,5.99
23.92,12.16,6.17,12.16,6.17,-6.17,-6.32,-5.17,5.99,5.99,5.99
24.16,12.19,6.21,12.20,6.22,-6.22,-6.35,-5.31,5.98,5.98,5.98
24.40,12.23,6.25,12.23,6.26,-6.26,-6.39,-5.45,5.98,5.98,5.98
24.65,12.27,6.30,12.27,6.30,-6.30,-6.42,-5.60,5.98,5.97,5.97
24.89,12.30,6.33,12.31,6.34,-6.34,-6.45,-5.74,5.97,5.97,5.97
25.14,12.34,6.38,12.34,6.38,-6.38,-6.48,-5.89,5.97,5.96,5.96
25.39,12.37,6.41,12.37,6.42,-6.42,-6.51,-6.04,5.96,5.96,5.96
25.65,12.40,6.45,12.41,6.45,-6.46,-6.54,-6.18,5.95,5.95,5.95
25.91,12.44,6.49,12.44,6.49,-6.49,-6.56,-6.33,5.95,5.95,5.95
26.16,12.47,6.53,12.48,6.53,-6.53,-6.59,-6.48,5.94,5.94,5.94
26.43,12.51,6.57,12.51,6.57,-6.57,-6.62,-6.64,5.94,5.94,5.94
26.69,12.54,6.61,12.54,6.61,-6.61,-6.65,-6.78,5.93,5.93,5.93
26.96,12.57,6.64,12.58,6.65,-6.65,-6.68,-6.93,5.93,5.93,5.93
27.23,12.61,6.68,12.61,6.68,-6.69,-6.70,-7.08,5.93,5.92,5.93
27.50,12.64,6.72,12.64,6.72,-6.72,-6.73,-7.22,5.92,5.92,5.92
27.77,12.67,6.75,12.68,6.76,-6.76,-6.76,-7.36,5.91,5.92,5.92
28.05,12.71,6.80,12.71,6.80,-6.80,-6.78,-7.50,5.92,5.91,5.91
28.33,12.74,6.83,12.74,6.83,-6.83,-6.81,-7.63,5.91,5.91,5.91
28.62,12.77,6.86,12.77,6.87,-6.87,-6.84,-7.75,5.91,5.91,5.91
28.90,12.80,6.90,12.80,6.90,-6.90,-6.86,-7.87,5.90,5.90,5.90
29.19,12.83,6.93,12.83,6.93,-6.93,-6.88,-7.98,5.90,5.90,5.90
29.48,12.86,6.96,12.86,6.96,-6.96,-6.91,-8.08,5.90,5.90,5.90
29.78,12.89,6.99,12.89,6.99,-7.00,-6.93,-8.17,5.90,5.90,5.90
30.08,12.92,7.02,12.92,7.02,-7.03,-6.96,-8.25,5.90,5.90,5.90
30.38,12.95,7.05,12.95,7.06,-7.06,-6.98,-8.32,5.90,5.90,5.90
30.68,12.98,7.09,12.98,7.09,-7.09,-7.00,-8.38,5.90,5.89,5.89
30.99,13.01,7.12,13.01,7.12,-7.12,-7.02,-8.42,5.89,5.89,5.89
31.30,13.03,7.14,13.04,7.15,-7.15,-7.05,-8.46,5.89,5.89,5.89
31.61,13.06,7.17,13.06,7.17,-7.18,-7.07,-8.48,5.89,5.88,5.89
31.93,13.08,7.20,13.09,7.20,-7.20,-7.09,-8.50,5.88,5.88,5.88
32.24,13.11,7.23,13.11,7.23,-7.23,-7.11,-8.50,5.88,5.88,5.88
32.57,13.13,7.26,13.13,7.26,-7.26,-7.13,-8.49,5.88,5.88,5.87
32.89,13.15,7.28,13.15,7.28,-7.28,-7.15,-8.47,5.87,5.87,5.87
33.22,13.17,7.30,13.17,7.30,-7.31,-7.17,-8.44,5.87,5.87,5.87
33.55,13.19,7.32,13.19,7.33,-7.33,-7.19,-8.41,5.86,5.86,5.87
33.89,13.21,7.35,13.21,7.35,-7.35,-7.21,-8.36,5.86,5.86,5.86
34.23,13.23,7.37,13.23,7.38,-7.38,-7.23,-8.31,5.85,5.86,5.86
34.57,13.25,7.40,13.26,7.40,-7.40,-7.24,-8.25,5.85,5.85,5.85
34.92,13.28,7.43,13.28,7.43,-7.42,-7.26,-8.19,5.86,5.85,5.85
35.27,13.29,7.44,13.30,7.45,-7.45,-7.28,-8.13,5.85,5.85,5.85
35.62,13.31,7.46,13.31,7.47,-7.47,-7.30,-8.06,5.85,5.85,5.85
35.97,13.33,7.49,13.33,7.49,-7.49,-7.31,-7.98,5.85,5.84,5.84
36.33,13.34,7.50,13.35,7.51,-7.50,-7.33,-7.91,5.84,5.84,5.84
36.70,13.36,7.52,13.36,7.52,-7.52,-7.34,-7.84,5.84,5.84,5.84
37.06,13.37,7.53,13.37,7.53,-7.54,-7.36,-7.76,5.84,5.84,5.84
37.43,13.38,7.54,13.38,7.55,-7.55,-7.37,-7.69,5.83,5.83,5.84
37.81,13.39,7.56,13.40,7.56,-7.57,-7.39,-7.62,5.82,5.83,5.83
38.19,13.41,7.58,13.41,7.58,-7.59,-7.40,-7.55,5.83,5.82,5.83
38.57,13.42,7.60,13.43,7.60,-7.60,-7.41,-7.48,5.82,5.82,5.82
38.95,13.44,7.62,13.44,7.62,-7.62,-7.43,-7.42,5.82,5.82,5.82
39.34,13.45,7.64,13.45,7.64,-7.64,-7.44,-7.36,5.82,5.81,5.81
39.74,13.46,7.65,13.46,7.65,-7.65,-7.45,-7.30,5.81,5.81,5.81
40.14,13.47,7.66,13.47,7.67,-7.67,-7.46,-7.25,5.81,5.81,5.81
40.54,13.48,7.68,13.48,7.68,-7.68,-7.47,-7.20,5.81,5.80,5.80
40.94,13.49,7.69,13.49,7.69,-7.69,-7.48,-7.16,5.81,5.80,5.80
41.35,13.49,7.69,13.50,7.70,-7.69,-7.49,-7.12,5.80,5.80,5.80
41.76,13.50,7.70,13.50,7.70,-7.70,-7.50,-7.08,5.80,5.80,5.80
42.18,13.50,7.69,13.51,7.70,-7.70,-7.51,-7.05,5.80,5.80,5.81
42.60,13.51,7.70,13.51,7.70,-7.71,-7.52,-7.03,5.81,5.81,5.81
43.03,13.52,7.71,13.52,7.71,-7.71,-7.53,-7.01,5.81,5.81,5.81
43.46,13.52,7.71,13.53,7.72,-7.71,-7.54,-6.99,5.81,5.81,5.81
43.90,13.53,7.72,13.53,7.72,-7.72,-7.55,-6.98,5.82,5.81,5.81
44.33,13.53,7.71,13.54,7.72,-7.72,-7.56,-6.98,5.81,5.82,5.82
44.78,13.54,7.72,13.54,7.72,-7.72,-7.56,-6.98,5.82,5.82,5.82
45.23,13.54,7.72,13.54,7.72,-7.72,-7.57,-6.98,5.82,5.82,5.82
45.68,13.54,7.72,13.54,7.73,-7.72,-7.57,-7.00,5.82,5.82,5.82
46.13,13.54,7.72,13.54,7.72,-7.72,-7.58,-7.01,5.82,5.82,5.82
46.60,13.53,7.72,13.53,7.72,-7.72,-7.59,-7.03,5.82,5.82,5.81
47.06,13.52,7.71,13.52,7.71,-7.72,-7.59,-7.06,5.81,5.81,5.81
47.53,13.51,7.70,13.52,7.71,-7.71,-7.59,-7.09,5.80,5.80,5.81
48.01,13.51,7.70,13.51,7.71,-7.71,-7.60,-7.13,5.80,5.80,5.81
48.49,13.51,7.71,13.51,7.71,-7.71,-7.60,-7.17,5.80,5.80,5.80
48.97,13.51,7.71,13.51,7.71,-7.71,-7.60,-7.21,5.80,5.80,5.80
49.46,13.51,7.71,13.51,7.71,-7.71,-7.61,-7.26,5.80,5.80,5.80
49.96,13.51,7.71,13.51,7.71,-7.71,-7.61,-7.31,5.81,5.81,5.80
50.46,13.51,7.70,13.51,7.71,-7.71,-7.61,-7.37,5.81,5.81,5.81
50.96,13.51,7.70,13.51,7.70,-7.71,-7.61,-7.43,5.81,5.81,5.81
51.47,13.51,7.70,13.51,7.70,-7.70,-7.61,-7.49,5.81,5.81,5.81
51.99,13.51,7.70,13.51,7.70,-7.70,-7.61,-7.55,5.81,5.81,5.81
52.51,13.51,7.69,13.51,7.70,-7.70,-7.61,-7.62,5.82,5.82,5.82
53.03,13.51,7.69,13.51,7.69,-7.69,-7.61,-7.69,5.82,5.82,5.82
53.56,13.51,7.69,13.51,7.69,-7.69,-7.61,-7.76,5.82,5.82,5.82
54.10,13.51,7.69,13.51,7.69,-7.69,-7.61,-7.82,5.82,5.82,5.82
54.64,13.51,7.69,13.51,7.69,-7.69,-7.61,-7.89,5.82,5.82,5.82
55.18,13.51,7.68,13.52,7.69,-7.70,-7.61,-7.96,5.82,5.82,5.83
55.74,13.52,7.69,13.52,7.69,-7.70,-7.60,-8.02,5.83,5.83,5.83
56.29,13.53,7.70,13.53,7.70,-7.70,-7.60,-8.08,5.83,5.83,5.83
56.86,13.54,7.70,13.54,7.70,-7.70,-7.60,-8.14,5.84,5.84,5.84
57.42,13.54,7.70,13.54,7.70,-7.70,-7.59,-8.19,5.84,5.84,5.84
58.00,13.54,7.70,13.54,7.70,-7.70,-7.59,-8.24,5.85,5.84,5.84
58.58,13.53,7.69,13.54,7.69,-7.69,-7.58,-8.28,5.84,5.85,5.84
59.16,13.53,7.68,13.53,7.69,-7.68,-7.58,-8.32,5.85,5.85,5.85
59.76,13.52,7.67,13.52,7.67,-7.67,-7.57,-8.35,5.85,5.85,5.85
60.35,13.51,7.66,13.52,7.66,-7.66,-7.57,-8.37,5.85,5.85,5.85
60.96,13.50,7.64,13.50,7.65,-7.65,-7.56,-8.38,5.85,5.85,5.86
61.57,13.49,7.63,13.49,7.63,-7.63,-7.55,-8.39,5.86,5.86,5.86
62.18,13.47,7.61,13.48,7.62,-7.62,-7.54,-8.39,5.86,5.86,5.86
62.80,13.46,7.60,13.46,7.60,-7.60,-7.54,-8.37,5.87,5.86,5.86
63.43,13.44,7.58,13.44,7.58,-7.58,-7.53,-8.35,5.86,5.86,5.86
64.07,13.42,7.56,13.42,7.56,-7.56,-7.52,-8.32,5.86,5.86,5.86
64.71,13.39,7.53,13.40,7.54,-7.54,-7.51,-8.28,5.86,5.86,5.86
65.35,13.37,7.51,13.37,7.51,-7.52,-7.50,-8.24,5.86,5.86,5.86
66.01,13.35,7.49,13.35,7.49,-7.50,-7.49,-8.18,5.86,5.85,5.86
66.67,13.33,7.47,13.33,7.47,-7.48,-7.48,-8.12,5.85,5.86,5.86
67.33,13.31,7.45,13.32,7.46,-7.46,-7.47,-8.05,5.85,5.86,5.86
68.01,13.30,7.44,13.30,7.44,-7.44,-7.45,-7.98,5.86,5.86,5.86
68.69,13.28,7.42,13.28,7.42,-7.42,-7.44,-7.90,5.86,5.86,5.86
69.37,13.26,7.40,13.26,7.41,-7.40,-7.43,-7.81,5.86,5.86,5.86
70.07,13.24,7.38,13.24,7.38,-7.38,-7.41,-7.73,5.87,5.87,5.86
70.77,13.22,7.36,13.22,7.36,-7.35,-7.40,-7.64,5.87,5.86,5.86
71.48,13.19,7.33,13.19,7.33,-7.33,-7.39,-7.54,5.86,5.86,5.86
72.19,13.16,7.29,13.17,7.30,-7.31,-7.37,-7.45,5.86,5.86,5.87
72.91,13.14,7.27,13.14,7.27,-7.28,-7.36,-7.35,5.86,5.86,5.87
73.64,13.12,7.25,13.12,7.25,-7.25,-7.34,-7.26,5.87,5.87,5.87
74.38,13.10,7.22,13.10,7.23,-7.23,-7.32,-7.16,5.88,5.88,5.88
75.12,13.08,7.20,13.08,7.20,-7.20,-7.31,-7.07,5.88,5.88,5.88
75.87,13.06,7.18,13.06,7.18,-7.18,-7.29,-6.97,5.89,5.89,5.88
76.63,13.04,7.15,13.04,7.16,-7.15,-7.27,-6.88,5.89,5.89,5.89
77.40,13.02,7.13,13.02,7.13,-7.13,-7.26,-6.79,5.89,5.89,5.89
78.17,12.99,7.09,13.00,7.10,-7.10,-7.24,-6.71,5.89,5.89,5.90
78.95,12.97,7.07,12.98,7.08,-7.08,-7.22,-6.62,5.89,5.90,5.90
79.74,12.96,7.06,12.96,7.05,-7.06,-7.20,-6.54,5.90,5.90,5.90
80.54,12.94,7.03,12.94,7.04,-7.03,-7.18,-6.47,5.91,5.91,5.91
81.35,12.92,7.01,12.92,7.01,-7.01,-7.16,-6.39,5.91,5.91,5.91
82.16,12.90,6.99,12.90,6.99,-6.99,-7.14,-6.32,5.92,5.91,5.91
82.98,12.87,6.96,12.88,6.97,-6.96,-7.11,-6.26,5.91,5.91,5.91
83.81,12.85,6.94,12.85,6.94,-6.94,-7.09,-6.20,5.91,5.91,5.91
84.65,12.82,6.91,12.82,6.91,-6.91,-7.07,-6.14,5.91,5.91,5.91
85.50,12.80,6.88,12.80,6.88,-6.89,-7.05,-6.09,5.91,5.91,5.92
86.35,12.77,6.85,12.78,6.86,-6.86,-7.02,-6.04,5.91,5.92,5.92
87.22,12.76,6.84,12.76,6.84,-6.84,-7.00,-6.00,5.92,5.92,5.92
88.09,12.74,6.82,12.74,6.82,-6.81,-6.97,-5.96,5.93,5.92,5.92
88.97,12.71,6.79,12.71,6.79,-6.79,-6.95,-5.92,5.92,5.92,5.92
89.86,12.68,6.76,12.69,6.77,-6.77,-6.92,-5.89,5.92,5.92,5.92
90.76,12.65,6.73,12.66,6.74,-6.74,-6.90,-5.86,5.91,5.92,5.92
91.66,12.64,6.72,12.64,6.72,-6.72,-6.87,-5.84,5.93,5.92,5.92
92.58,12.61,6.69,12.61,6.69,-6.69,-6.84,-5.83,5.92,5.92,5.92
93.51,12.58,6.66,12.59,6.67,-6.66,-6.81,-5.81,5.92,5.93,5.92
94.44,12.56,6.64,12.56,6.64,-6.63,-6.78,-5.80,5.93,5.92,5.92
95.39,12.52,6.60,12.53,6.60,-6.60,-6.75,-5.80,5.92,5.92,5.92
96.34,12.49,6.57,12.49,6.57,-6.58,-6.72,-5.80,5.92,5.92,5.92
97.30,12.46,6.53,12.47,6.54,-6.55,-6.69,-5.80,5.91,5.92,5.93
98.28,12.44,6.51,12.44,6.51,-6.52,-6.66,-5.81,5.92,5.92,5.93
99.26,12.42,6.49,12.42,6.49,-6.50,-6.63,-5.81,5.93,5.93,5.93
100.25,12.40,6.47,12.40,6.47,-6.47,-6.60,-5.83,5.93,5.93,5.93
101.25,12.38,6.45,12.38,6.45,-6.45,-6.57,-5.84,5.94,5.93,5.93
102.27,12.34,6.41,12.35,6.42,-6.42,-6.53,-5.86,5.93,5.94,5.93
103.29,12.32,6.39,12.33,6.39,-6.38,-6.50,-5.88,5.94,5.94,5.93
104.32,12.30,6.36,12.29,6.36,-6.34,-6.46,-5.90,5.96,5.95,5.94
105.37,12.25,6.31,12.25,6.31,-6.30,-6.43,-5.92,5.95,5.95,5.94
106.42,12.20,6.26,12.21,6.26,-6.26,-6.39,-5.94,5.94,5.95,5.94
107.48,12.15,6.20,12.15,6.20,-6.22,-6.36,-5.97,5.94,5.93,5.95
108.56,12.10,6.15,12.10,6.16,-6.17,-6.32,-5.99,5.93,5.93,5.95
109.64,12.06,6.11,12.07,6.12,-6.13,-6.28,-6.01,5.93,5.94,5.95
110.74,12.04,6.09,12.04,6.09,-6.09,-6.24,-6.04,5.95,5.95,5.95
111.85,12.02,6.06,12.02,6.06,-6.06,-6.20,-6.06,5.97,5.96,5.96
112.97,11.99,6.03,11.99,6.03,-6.02,-6.16,-6.08,5.97,5.97,5.96
114.10,11.95,5.99,11.95,5.99,-5.98,-6.12,-6.09,5.97,5.97,5.96
115.24,11.90,5.94,11.91,5.95,-5.95,-6.08,-6.11,5.95,5.96,5.96
116.39,11.88,5.92,11.88,5.91,-5.92,-6.03,-6.12,5.97,5.96,5.96
117.55,11.84,5.87,11.84,5.87,-5.88,-5.99,-6.12,5.96,5.96,5.97
118.73,11.80,5.83,11.81,5.84,-5.85,-5.95,-6.12,5.96,5.96,5.97
119.92,11.77,5.80,11.78,5.80,-5.81,-5.90,-6.12,5.96,5.97,5.97
121.12,11.75,5.77,11.75,5.77,-5.77,-5.86,-6.11,5.98,5.98,5.98
122.33,11.72,5.74,11.72,5.74,-5.73,-5.81,-6.10,5.99,6.00,5.98
123.55,11.69,5.70,11.68,5.70,-5.69,-5.76,-6.08,6.01,6.00,5.99
124.79,11.63,5.64,11.63,5.64,-5.64,-5.71,-6.06,5.99,5.99,5.99
126.03,11.57,5.58,11.59,5.59,-5.59,-5.66,-6.02,5.98,5.99,5.99
127.29,11.54,5.54,11.54,5.54,-5.55,-5.61,-5.99,6.00,5.99,6.00
128.57,11.50,5.50,11.50,5.49,-5.50,-5.56,-5.94,6.00,6.00,6.00
129.85,11.45,5.44,11.45,5.45,-5.45,-5.51,-5.90,6.00,6.00,6.01
131.15,11.40,5.39,11.41,5.40,-5.41,-5.45,-5.84,6.00,6.00,6.01
132.46,11.36,5.35,11.37,5.36,-5.36,-5.40,-5.78,6.00,6.00,6.01
133.79,11.33,5.32,11.33,5.32,-5.32,-5.34,-5.72,6.01,6.01,6.01
135.12,11.29,5.28,11.29,5.28,-5.27,-5.28,-5.65,6.02,6.02,6.01
136.48,11.25,5.24,11.25,5.24,-5.22,-5.23,-5.58,6.03,6.03,6.01
137.84,11.19,5.17,11.20,5.18,-5.17,-5.17,-5.50,6.02,6.02,6.02
139.22,11.14,5.12,11.14,5.12,-5.12,-5.11,-5.42,6.02,6.02,6.02
140.61,11.08,5.06,11.08,5.06,-5.07,-5.04,-5.34,6.01,6.01,6.02
142.02,11.01,4.99,11.02,5.00,-5.01,-4.98,-5.26,6.00,6.01,6.02
143.44,10.97,4.95,10.97,4.95,-4.95,-4.92,-5.17,6.02,6.02,6.02
144.87,10.91,4.88,10.92,4.89,-4.89,-4.85,-5.08,6.02,6.03,6.03
146.32,10.87,4.84,10.87,4.84,-4.83,-4.78,-4.99,6.05,6.04,6.03
147.78,10.80,4.77,10.81,4.77,-4.76,-4.72,-4.91,6.04,6.04,6.03
149.26,10.74,4.70,10.74,4.70,-4.70,-4.65,-4.82,6.05,6.04,6.04
150.75,10.66,4.62,10.66,4.62,-4.63,-4.58,-4.73,6.04,6.04,6.04
152.26,10.59,4.55,10.59,4.55,-4.55,-4.51,-4.64,6.04,6.04,6.04
153.78,10.51,4.46,10.52,4.47,-4.48,-4.43,-4.55,6.04,6.04,6.05
155.32,10.45,4.40,10.45,4.40,-4.40,-4.36,-4.47,6.05,6.05,6.05
156.88,10.38,4.33,10.38,4.33,-4.33,-4.29,-4.38,6.06,6.06,6.05
158.44,10.32,4.26,10.31,4.25,-4.25,-4.21,-4.30,6.07,6.06,6.06
160.03,10.22,4.16,10.23,4.17,-4.18,-4.14,-4.22,6.04,6.05,6.06
161.63,10.15,4.09,10.16,4.10,-4.11,-4.07,-4.14,6.04,6.05,6.06
163.24,10.10,4.04,10.10,4.04,-4.04,-3.99,-4.07,6.06,6.05,6.06
164.88,10.04,3.98,10.04,3.98,-3.97,-3.92,-3.99,6.07,6.07,6.06
166.53,9.98,3.91,9.98,3.92,-3.90,-3.85,-3.92,6.08,6.08,6.07
168.19,9.92,3.85,9.91,3.84,-3.84,-3.78,-3.85,6.09,6.07,6.07
169.87,9.83,3.76,9.84,3.77,-3.77,-3.71,-3.78,6.06,6.07,6.07
171.57,9.77,3.69,9.78,3.70,-3.71,-3.64,-3.72,6.07,6.07,6.08
173.29,9.72,3.64,9.71,3.64,-3.64,-3.57,-3.66,6.08,6.07,6.08
175.02,9.65,3.57,9.66,3.57,-3.57,-3.51,-3.60,6.08,6.08,6.08
176.77,9.59,3.51,9.59,3.51,-3.51,-3.45,-3.54,6.09,6.09,6.08
178.54,9.53,3.44,9.54,3.45,-3.44,-3.39,-3.49,6.09,6.09,6.09
180.32,9.48,3.39,9.48,3.39,-3.38,-3.34,-3.44,6.10,6.09,6.09
182.13,9.42,3.33,9.41,3.32,-3.33,-3.29,-3.39,6.10,6.09,6.09
183.95,9.33,3.24,9.35,3.26,-3.27,-3.24,-3.35,6.06,6.08,6.09
185.79,9.28,3.20,9.28,3.20,-3.21,-3.20,-3.30,6.07,6.07,6.08
187.65,9.23,3.15,9.23,3.15,-3.16,-3.15,-3.26,6.08,6.08,6.08
189.52,9.19,3.11,9.19,3.11,-3.10,-3.11,-3.23,6.09,6.09,6.08
191.42,9.14,3.06,9.14,3.06,-3.04,-3.08,-3.19,6.10,6.10,6.08
193.33,9.08,2.99,9.08,3.00,-2.99,-3.04,-3.16,6.09,6.09,6.09
195.27,9.02,2.93,9.02,2.93,-2.94,-3.01,-3.13,6.09,6.09,6.09
197.22,8.96,2.87,8.97,2.88,-2.88,-2.98,-3.10,6.08,6.09,6.09
199.19,8.92,2.83,8.92,2.83,-2.83,-2.96,-3.07,6.09,6.09,6.09
201.18,8.88,2.78,8.88,2.78,-2.78,-2.93,-3.04,6.10,6.10,6.10
203.19,8.83,2.73,8.84,2.74,-2.73,-2.90,-3.02,6.10,6.10,6.10
205.23,8.79,2.69,8.79,2.69,-2.69,-2.88,-3.00,6.10,6.10,6.10
207.28,8.75,2.64,8.76,2.65,-2.65,-2.86,-2.98,6.10,6.11,6.11
209.35,8.72,2.61,8.73,2.62,-2.61,-2.83,-2.95,6.11,6.11,6.11
211.44,8.70,2.59,8.70,2.58,-2.58,-2.81,-2.93,6.12,6.11,6.11
213.56,8.67,2.55,8.67,2.56,-2.56,-2.78,-2.92,6.12,6.12,6.12
215.69,8.65,2.53,8.65,2.53,-2.54,-2.76,-2.90,6.11,6.11,6.12
217.85,8.63,2.51,8.64,2.52,-2.52,-2.73,-2.88,6.11,6.11,6.12
220.03,8.63,2.51,8.63,2.51,-2.52,-2.71,-2.86,6.12,6.12,6.12
222.23,8.63,2.50,8.63,2.51,-2.51,-2.68,-2.84,6.12,6.12,6.13
224.45,8.64,2.51,8.64,2.51,-2.51,-2.65,-2.82,6.13,6.13,6.13
226.70,8.64,2.51,8.65,2.51,-2.51,-2.62,-2.80,6.13,6.14,6.13
228.96,8.65,2.52,8.65,2.52,-2.51,-2.59,-2.78,6.14,6.14,6.13
231.25,8.65,2.51,8.65,2.52,-2.52,-2.56,-2.75,6.14,6.13,6.14
233.57,8.65,2.51,8.66,2.52,-2.52,-2.53,-2.73,6.13,6.14,6.14
235.90,8.66,2.51,8.66,2.52,-2.52,-2.50,-2.70,6.14,6.14,6.15
238.26,8.67,2.52,8.67,2.52,-2.52,-2.46,-2.67,6.16,6.15,6.15
240.64,8.67,2.51,8.68,2.52,-2.51,-2.43,-2.64,6.17,6.17,6.16
243.05,8.67,2.50,8.67,2.51,-2.50,-2.39,-2.61,6.18,6.18,6.17
245.48,8.66,2.49,8.66,2.49,-2.48,-2.35,-2.57,6.18,6.18,6.17
247.93,8.64,2.46,8.64,2.46,-2.46,-2.31,-2.53,6.18,6.18,6.18
250.41,8.62,2.43,8.62,2.43,-2.44,-2.28,-2.49,6.18,6.18,6.19
252.92,8.59,2.39,8.60,2.40,-2.41,-2.23,-2.45,6.18,6.19,6.20
255.45,8.57,2.37,8.58,2.38,-2.38,-2.19,-2.40,6.19,6.20,6.20
258.00,8.56,2.35,8.56,2.35,-2.34,-2.15,-2.35,6.22,6.21,6.21
260.58,8.53,2.32,8.53,2.32,-2.30,-2.11,-2.30,6.23,6.22,6.21
263.19,8.49,2.27,8.49,2.27,-2.26,-2.06,-2.25,6.23,6.23,6.22
265.82,8.43,2.21,8.44,2.22,-2.22,-2.02,-2.19,6.21,6.22,6.22
268.48,8.39,2.16,8.39,2.17,-2.17,-1.97,-2.13,6.22,6.22,6.23
271.16,8.35,2.12,8.35,2.12,-2.13,-1.93,-2.07,6.23,6.22,6.23
273.87,8.30,2.07,8.31,2.07,-2.08,-1.88,-2.00,6.23,6.23,6.23
276.61,8.26,2.02,8.26,2.02,-2.02,-1.83,-1.94,6.24,6.23,6.24
279.38,8.21,1.97,8.21,1.97,-1.98,-1.78,-1.87,6.24,6.24,6.24
282.17,8.16,1.92,8.17,1.92,-1.93,-1.73,-1.80,6.24,6.24,6.24
284.99,8.12,1.87,8.12,1.87,-1.88,-1.68,-1.73,6.25,6.24,6.25
287.84,8.07,1.82,8.07,1.83,-1.82,-1.63,-1.65,6.25,6.25,6.25
290.72,8.02,1.77,8.02,1.77,-1.77,-1.58,-1.58,6.25,6.26,6.25
293.63,7.97,1.72,7.97,1.72,-1.71,-1.53,-1.50,6.26,6.26,6.25
296.57,7.90,1.65,7.91,1.66,-1.65,-1.47,-1.43,6.25,6.26,6.25
299.53,7.84,1.59,7.84,1.59,-1.59,-1.42,-1.35,6.26,6.25,6.25
302.53,7.77,1.51,7.78,1.52,-1.52,-1.36,-1.27,6.25,6.25,6.26
305.55,7.71,1.45,7.71,1.45,-1.46,-1.31,-1.20,6.26,6.25,6.26
308.61,7.64,1.37,7.65,1.38,-1.39,-1.25,-1.12,6.26,6.26,6.27
311.69,7.58,1.31,7.59,1.32,-1.31,-1.20,-1.04,6.27,6.27,6.27
314.81,7.53,1.25,7.53,1.25,-1.24,-1.14,-0.96,6.29,6.28,6.28
317.96,7.46,1.18,7.46,1.18,-1.17,-1.08,-0.88,6.29,6.29,6.28
321.14,7.38,1.09,7.38,1.10,-1.10,-1.03,-0.80,6.28,6.28,6.29
324.35,7.30,1.01,7.31,1.02,-1.02,-0.97,-0.72,6.28,6.28,6.29
327.59,7.23,0.94,7.24,0.95,-0.95,-0.91,-0.64,6.28,6.29,6.29
330.87,7.18,0.88,7.17,0.88,-0.87,-0.85,-0.56,6.31,6.30,6.30
334.18,7.11,0.81,7.11,0.80,-0.80,-0.79,-0.48,6.32,6.31,6.30
337.52,7.02,0.71,7.03,0.72,-0.72,-0.73,-0.40,6.30,6.31,6.31
340.90,6.95,0.63,6.95,0.64,-0.65,-0.67,-0.32,6.31,6.31,6.32
344.30,6.88,0.56,6.88,0.57,-0.57,-0.61,-0.24,6.31,6.31,6.32
347.75,6.82,0.50,6.82,0.50,-0.50,-0.55,-0.16,6.32,6.32,6.32
351.23,6.75,0.43,6.75,0.43,-0.43,-0.49,-0.08,6.33,6.32,6.32
354.74,6.68,0.35,6.69,0.36,-0.36,-0.42,-0.01,6.33,6.33,6.33
358.28,6.61,0.28,6.62,0.29,-0.28,-0.36,0.07,6.33,6.33,6.33
361.87,6.55,0.22,6.55,0.22,-0.21,-0.30,0.15,6.34,6.33,6.33
365.49,6.47,0.14,6.48,0.15,-0.14,-0.23,0.23,6.33,6.33,6.33
369.14,6.40,0.07,6.40,0.07,-0.07,-0.17,0.31,6.33,6.33,6.33
372.83,6.33,0.00,6.33,-0.00,0.00,-0.10,0.39,6.33,6.33,6.33
376.56,6.25,-0.09,6.26,-0.08,0.07,-0.04,0.47,6.32,6.33,6.34
380.33,6.19,-0.15,6.19,-0.14,0.14,0.03,0.55,6.33,6.33,6.34
384.13,6.13,-0.21,6.13,-0.21,0.21,0.10,0.63,6.34,6.34,6.34
387.97,6.06,-0.28,6.06,-0.28,0.28,0.16,0.71,6.34,6.34,6.34
391.85,5.99,-0.36,6.00,-0.35,0.35,0.23,0.79,6.34,6.35,6.35
395.77,5.93,-0.42,5.94,-0.42,0.42,0.30,0.87,6.36,6.36,6.35
399.73,5.87,-0.49,5.87,-0.49,0.50,0.37,0.94,6.37,6.36,6.36
403.72,5.80,-0.56,5.80,-0.57,0.57,0.44,1.02,6.37,6.37,6.36
407.76,5.71,-0.66,5.72,-0.65,0.64,0.51,1.10,6.36,6.37,6.37
411.84,5.64,-0.73,5.65,-0.72,0.72,0.58,1.18,6.36,6.37,6.37
415.96,5.58,-0.80,5.58,-0.80,0.80,0.65,1.26,6.38,6.37,6.38
420.12,5.51,-0.87,5.51,-0.87,0.87,0.72,1.33,6.38,6.38,6.38
424.32,5.42,-0.96,5.44,-0.95,0.95,0.79,1.41,6.37,6.38,6.38
428.56,5.36,-1.03,5.36,-1.02,1.02,0.86,1.48,6.38,6.39,6.39
432.85,5.30,-1.09,5.30,-1.09,1.10,0.94,1.56,6.40,6.39,6.39
437.18,5.22,-1.17,5.23,-1.16,1.17,1.01,1.63,6.39,6.40,6.39
441.55,5.15,-1.24,5.15,-1.24,1.25,1.08,1.71,6.40,6.39,6.39
445.96,5.06,-1.33,5.07,-1.32,1.32,1.16,1.78,6.39,6.39,6.39
450.42,4.98,-1.41,4.99,-1.40,1.40,1.23,1.85,6.38,6.39,6.39
454.93,4.91,-1.48,4.91,-1.48,1.47,1.31,1.91,6.39,6.38,6.39
459.48,4.84,-1.55,4.84,-1.55,1.55,1.39,1.98,6.39,6.39,6.39
464.07,4.76,-1.63,4.77,-1.62,1.62,1.46,2.04,6.39,6.39,6.39
468.71,4.70,-1.69,4.70,-1.69,1.70,1.54,2.11,6.40,6.39,6.39
473.40,4.62,-1.77,4.63,-1.77,1.77,1.62,2.17,6.39,6.39,6.39
478.13,4.55,-1.85,4.56,-1.84,1.84,1.70,2.22,6.39,6.40,6.40
482.91,4.49,-1.91,4.49,-1.91,1.91,1.78,2.28,6.40,6.40,6.40
487.74,4.42,-1.98,4.42,-1.98,1.98,1.86,2.33,6.40,6.40,6.40
492.62,4.34,-2.06,4.35,-2.05,2.05,1.93,2.38,6.39,6.40,6.40
497.55,4.28,-2.13,4.28,-2.12,2.12,2.02,2.43,6.41,6.41,6.41
502.52,4.22,-2.19,4.22,-2.19,2.20,2.10,2.48,6.42,6.41,6.41
507.55,4.14,-2.27,4.15,-2.26,2.27,2.18,2.52,6.41,6.42,6.41
512.62,4.07,-2.34,4.07,-2.34,2.34,2.26,2.56,6.42,6.42,6.41
