frequency,raw,error,smoothed,error_smoothed,equalization,parametric_eq,fixed_band_eq,equalized_raw,equalized_smoothed,target
20.00,8.94,0.18,8.94,0.17,-0.16,-0.83,-0.86,8.78,8.78,8.77
20.20,9.02,0.27,9.02,0.27,-0.27,-0.85,-0.89,8.75,8.75,8.76
20.40,9.09,0.36,9.10,0.36,-0.37,-0.87,-0.91,8.72,8.73,8.74
20.61,9.17,0.45,9.17,0.45,-0.46,-0.89,-0.94,8.71,8.71,8.73
20.81,9.24,0.54,9.24,0.54,-0.54,-0.91,-0.97,8.70,8.70,8.70
21.02,9.31,0.62,9.31,0.61,-0.62,-0.92,-0.99,8.70,8.69,8.69
21.23,9.36,0.68,9.36,0.68,-0.68,-0.94,-1.02,8.68,8.68,8.68
21.44,9.40,0.73,9.41,0.74,-0.74,-0.96,-1.05,8.66,8.67,8.67
21.66,9.45,0.80,9.45,0.79,-0.78,-0.98,-1.09,8.67,8.67,8.65
21.87,9.49,0.84,9.49,0.84,-0.82,-1.00,-1.12,8.67,8.67,8.65
22.09,9.52,0.88,9.51,0.87,-0.85,-1.03,-1.15,8.68,8.67,8.64
22.31,9.51,0.88,9.52,0.88,-0.87,-1.05,-1.19,8.65,8.65,8.63
22.54,9.50,0.88,9.50,0.88,-0.89,-1.07,-1.22,8.62,8.62,8.62
22.76,9.50,0.89,9.49,0.88,-0.91,-1.09,-1.26,8.59,8.59,8.61
22.99,9.49,0.88,9.51,0.90,-0.93,-1.11,-1.29,8.56,8.58,8.61
23.22,9.54,0.94,9.54,0.94,-0.96,-1.14,-1.33,8.58,8.58,8.60
23.45,9.60,1.00,9.59,0.99,-1.00,-1.16,-1.37,8.60,8.59,8.60
23.69,9.65,1.05,9.65,1.05,-1.05,-1.18,-1.41,8.60,8.60,8.60
23.92,9.70,1.10,9.71,1.11,-1.11,-1.21,-1.45,8.59,8.60,8.60
24.16,9.76,1.17,9.76,1.16,-1.17,-1.23,-1.49,8.60,8.60,8.60
24.40,9.82,1.23,9.82,1.23,-1.22,-1.26,-1.53,8.60,8.60,8.60
24.65,9.88,1.29,9.89,1.29,-1.27,-1.28,-1.57,8.61,8.62,8.60
24.89,9.94,1.35,9.93,1.34,-1.31,-1.31,-1.61,8.63,8.63,8.60
25.14,9.97,1.38,9.97,1.37,-1.35,-1.34,-1.66,8.62,8.62,8.59
25.39,9.98,1.39,9.98,1.39,-1.39,-1.36,-1.70,8.60,8.60,8.59
25.65,9.99,1.41,9.99,1.40,-1.43,-1.39,-1.74,8.56,8.56,8.58
25.91,10.00,1.42,10.01,1.43,-1.47,-1.42,-1.79,8.53,8.54,8.58
26.16,10.05,1.48,10.05,1.48,-1.52,-1.45,-1.83,8.53,8.53,8.57
26.43,10.12,1.55,10.12,1.56,-1.57,-1.48,-1.87,8.55,8.55,8.57
26.69,10.19,1.63,10.20,1.64,-1.62,-1.51,-1.92,8.57,8.57,8.56
26.96,10.27,1.72,10.25,1.70,-1.67,-1.54,-1.96,8.60,8.58,8.55
27.23,10.29,1.74,10.29,1.75,-1.72,-1.57,-2.00,8.57,8.57,8.55
27.50,10.31,1.78,10.32,1.78,-1.76,-1.60,-2.04,8.55,8.55,8.54
27.77,10.33,1.81,10.33,1.80,-1.80,-1.63,-2.08,8.53,8.53,8.52
28.05,10.34,1.83,10.34,1.83,-1.82,-1.66,-2.12,8.52,8.52,8.51
28.33,10.35,1.84,10.35,1.84,-1.84,-1.69,-2.16,8.51,8.51,8.51
28.62,10.36,1.85,10.36,1.85,-1.86,-1.72,-2.20,8.50,8.49,8.51
28.90,10.37,1.87,10.38,1.87,-1.89,-1.76,-2.23,8.48,8.49,8.50
29.19,10.40,1.89,10.41,1.90,-1.92,-1.79,-2.27,8.48,8.49,8.51
29.48,10.45,1.95,10.45,1.94,-1.95,-1.82,-2.30,8.50,8.49,8.51
29.78,10.49,1.99,10.49,1.99,-1.99,-1.85,-2.32,8.50,8.50,8.51
30.08,10.54,2.04,10.54,2.04,-2.03,-1.89,-2.35,8.51,8.51,8.50
30.38,10.58,2.08,10.58,2.08,-2.06,-1.92,-2.37,8.52,8.52,8.50
30.68,10.61,2.11,10.62,2.12,-2.09,-1.95,-2.40,8.52,8.52,8.50
30.99,10.65,2.15,10.64,2.14,-2.12,-1.99,-2.41,8.53,8.52,8.50
31.30,10.65,2.16,10.65,2.15,-2.15,-2.02,-2.43,8.51,8.51,8.50
31.61,10.65,2.16,10.65,2.16,-2.17,-2.06,-2.45,8.48,8.49,8.49
31.93,10.65,2.16,10.66,2.17,-2.19,-2.09,-2.46,8.46,8.47,8.49
32.24,10.67,2.19,10.68,2.19,-2.21,-2.13,-2.47,8.46,8.47,8.48
32.57,10.71,2.23,10.71,2.23,-2.24,-2.16,-2.47,8.48,8.47,8.48
32.89,10.74,2.27,10.74,2.27,-2.27,-2.19,-2.48,8.48,8.47,8.48
33.22,10.77,2.30,10.78,2.30,-2.30,-2.23,-2.48,8.47,8.47,8.47
33.55,10.81,2.34,10.81,2.34,-2.34,-2.26,-2.48,8.47,8.47,8.47
33.89,10.84,2.38,10.84,2.38,-2.38,-2.29,-2.48,8.46,8.46,8.46
34.23,10.87,2.42,10.88,2.42,-2.41,-2.33,-2.48,8.46,8.47,8.46
34.57,10.91,2.46,10.91,2.46,-2.44,-2.36,-2.47,8.47,8.47,8.45
34.92,10.94,2.49,10.94,2.49,-2.47,-2.39,-2.47,8.47,8.46,8.45
35.27,10.95,2.50,10.95,2.50,-2.50,-2.43,-2.46,8.45,8.45,8.45
35.62,10.95,2.51,10.95,2.51,-2.52,-2.46,-2.45,8.43,8.43,8.44
35.97,10.95,2.52,10.96,2.53,-2.55,-2.49,-2.45,8.40,8.41,8.43
36.33,10.98,2.56,10.99,2.56,-2.57,-2.52,-2.44,8.41,8.42,8.43
36.70,11.02,2.60,11.02,2.60,-2.59,-2.55,-2.43,8.43,8.43,8.42
37.06,11.05,2.63,11.04,2.63,-2.61,-2.58,-2.42,8.45,8.44,8.42
37.43,11.05,2.65,11.05,2.64,-2.63,-2.61,-2.41,8.43,8.43,8.41
37.81,11.05,2.65,11.05,2.66,-2.65,-2.63,-2.41,8.40,8.41,8.40
38.19,11.05,2.66,11.05,2.66,-2.67,-2.66,-2.40,8.38,8.38,8.39
38.57,11.05,2.68,11.05,2.67,-2.70,-2.69,-2.40,8.35,8.35,8.37
38.95,11.05,2.69,11.06,2.70,-2.72,-2.71,-2.39,8.33,8.34,8.36
39.34,11.08,2.73,11.09,2.74,-2.75,-2.74,-2.39,8.34,8.34,8.35
39.74,11.12,2.78,11.12,2.78,-2.77,-2.76,-2.39,8.35,8.35,8.34
40.14,11.15,2.83,11.14,2.82,-2.80,-2.78,-2.38,8.35,8.35,8.32
40.54,11.15,2.84,11.15,2.84,-2.82,-2.80,-2.38,8.33,8.33,8.31
40.94,11.15,2.85,11.15,2.85,-2.84,-2.82,-2.39,8.31,8.31,8.30
41.35,11.15,2.85,11.15,2.85,-2.86,-2.84,-2.39,8.29,8.29,8.30
41.76,11.15,2.86,11.15,2.86,-2.87,-2.86,-2.39,8.29,8.29,8.29
42.18,11.15,2.87,11.15,2.87,-2.87,-2.88,-2.40,8.28,8.29,8.29
42.60,11.15,2.87,11.15,2.87,-2.87,-2.89,-2.41,8.28,8.29,8.28
43.03,11.15,2.88,11.15,2.87,-2.87,-2.91,-2.42,8.28,8.28,8.27
43.46,11.14,2.88,11.14,2.87,-2.87,-2.92,-2.43,8.27,8.27,8.27
43.90,11.12,2.85,11.13,2.87,-2.88,-2.93,-2.45,8.25,8.26,8.27
44.33,11.13,2.87,11.13,2.87,-2.88,-2.95,-2.46,8.25,8.25,8.26
44.78,11.14,2.89,11.14,2.88,-2.89,-2.96,-2.48,8.25,8.25,8.25
45.23,11.15,2.90,11.15,2.90,-2.90,-2.97,-2.50,8.26,8.25,8.25
45.68,11.15,2.91,11.15,2.91,-2.91,-2.97,-2.52,8.25,8.25,8.24
46.13,11.15,2.92,11.15,2.92,-2.92,-2.98,-2.54,8.24,8.24,8.23
46.60,11.15,2.93,11.15,2.93,-2.93,-2.99,-2.57,8.22,8.22,8.22
47.06,11.15,2.94,11.15,2.94,-2.95,-3.00,-2.60,8.20,8.20,8.21
47.53,11.15,2.95,11.15,2.95,-2.96,-3.00,-2.63,8.19,8.19,8.20
48.01,11.15,2.97,11.15,2.97,-2.97,-3.00,-2.66,8.18,8.18,8.18
48.49,11.15,2.98,11.15,2.98,-2.98,-3.01,-2.69,8.17,8.17,8.17
48.97,11.15,3.00,11.16,3.00,-2.99,-3.01,-2.72,8.17,8.17,8.15
49.46,11.15,3.01,11.15,3.01,-2.99,-3.01,-2.76,8.16,8.17,8.14
49.96,11.15,3.02,11.14,3.01,-2.99,-3.02,-2.79,8.17,8.15,8.13
50.46,11.11,2.99,11.11,2.99,-2.98,-3.02,-2.83,8.13,8.13,8.12
50.96,11.06,2.95,11.08,2.97,-2.98,-3.02,-2.87,8.08,8.10,8.12
51.47,11.06,2.96,11.06,2.96,-2.98,-3.02,-2.91,8.08,8.07,8.10
51.99,11.05,2.96,11.05,2.96,-2.99,-3.02,-2.95,8.07,8.06,8.09
52.51,11.05,2.99,11.05,2.98,-2.99,-3.02,-2.99,8.06,8.06,8.07
53.03,11.05,3.00,11.05,3.00,-3.00,-3.02,-3.03,8.06,8.05,8.05
53.56,11.05,3.01,11.05,3.02,-3.00,-3.02,-3.07,8.05,8.05,8.04
54.10,11.05,3.03,11.06,3.03,-3.01,-3.02,-3.11,8.04,8.05,8.02
54.64,11.05,3.04,11.05,3.04,-3.02,-3.02,-3.15,8.04,8.03,8.01
55.18,11.03,3.04,11.02,3.03,-3.02,-3.02,-3.19,8.01,8.00,7.99
55.74,10.98,3.01,10.99,3.02,-3.03,-3.02,-3.23,7.96,7.96,7.97
56.29,10.95,2.99,10.96,3.01,-3.03,-3.02,-3.26,7.92,7.93,7.96
56.86,10.95,3.01,10.95,3.01,-3.04,-3.02,-3.30,7.92,7.91,7.94
57.42,10.95,3.03,10.95,3.03,-3.04,-3.02,-3.33,7.91,7.91,7.92
58.00,10.95,3.05,10.96,3.05,-3.04,-3.02,-3.37,7.91,7.92,7.90
58.58,10.95,3.07,10.95,3.07,-3.04,-3.02,-3.40,7.91,7.91,7.88
59.16,10.94,3.08,10.94,3.07,-3.04,-3.02,-3.42,7.90,7.89,7.86
59.76,10.90,3.06,10.90,3.06,-3.05,-3.02,-3.45,7.85,7.85,7.84
60.35,10.87,3.05,10.87,3.04,-3.06,-3.03,-3.47,7.81,7.81,7.82
60.96,10.82,3.01,10.84,3.04,-3.07,-3.03,-3.49,7.75,7.77,7.81
61.57,10.84,3.06,10.84,3.05,-3.08,-3.03,-3.51,7.76,7.75,7.78
62.18,10.85,3.09,10.84,3.08,-3.10,-3.04,-3.52,7.75,7.74,7.76
62.80,10.85,3.13,10.85,3.12,-3.12,-3.04,-3.53,7.73,7.74,7.73
63.43,10.85,3.15,10.86,3.16,-3.14,-3.04,-3.54,7.71,7.72,7.70
64.07,10.85,3.19,10.85,3.18,-3.16,-3.05,-3.55,7.69,7.69,7.67
64.71,10.84,3.20,10.83,3.19,-3.18,-3.05,-3.55,7.66,7.65,7.64
65.35,10.79,3.19,10.79,3.19,-3.19,-3.06,-3.55,7.61,7.61,7.60
66.01,10.73,3.16,10.76,3.18,-3.18,-3.07,-3.54,7.55,7.57,7.57
66.67,10.73,3.20,10.73,3.19,-3.18,-3.07,-3.54,7.55,7.55,7.54
67.33,10.70,3.20,10.69,3.19,-3.17,-3.08,-3.53,7.53,7.52,7.51
68.01,10.65,3.19,10.64,3.17,-3.17,-3.09,-3.52,7.48,7.47,7.46
68.69,10.56,3.13,10.58,3.14,-3.17,-3.10,-3.51,7.39,7.40,7.43
69.37,10.52,3.13,10.54,3.14,-3.18,-3.11,-3.50,7.34,7.36,7.39
70.07,10.52,3.16,10.53,3.17,-3.18,-3.12,-3.48,7.34,7.34,7.36
70.77,10.54,3.23,10.55,3.23,-3.20,-3.13,-3.47,7.34,7.35,7.31
71.48,10.55,3.27,10.53,3.25,-3.23,-3.14,-3.45,7.33,7.30,7.28
72.19,10.52,3.29,10.49,3.25,-3.26,-3.15,-3.44,7.27,7.23,7.23
72.91,10.39,3.19,10.45,3.25,-3.29,-3.17,-3.42,7.11,7.16,7.20
73.64,10.42,3.26,10.44,3.28,-3.31,-3.18,-3.40,7.11,7.13,7.16
74.38,10.47,3.35,10.46,3.34,-3.32,-3.19,-3.39,7.15,7.13,7.12
75.12,10.50,3.42,10.48,3.40,-3.33,-3.21,-3.37,7.17,7.14,7.08
75.87,10.44,3.41,10.43,3.40,-3.34,-3.22,-3.36,7.11,7.10,7.03
76.63,10.34,3.35,10.34,3.35,-3.34,-3.24,-3.35,7.00,7.00,6.99
77.40,10.24,3.29,10.26,3.31,-3.35,-3.26,-3.34,6.89,6.91,6.95
78.17,10.18,3.27,10.23,3.32,-3.36,-3.27,-3.33,6.82,6.87,6.91
78.95,10.24,3.38,10.21,3.35,-3.37,-3.29,-3.32,6.87,6.84,6.87
79.74,10.24,3.42,10.19,3.36,-3.38,-3.31,-3.31,6.86,6.80,6.82
80.54,10.13,3.36,10.16,3.38,-3.39,-3.33,-3.31,6.75,6.77,6.78
81.35,10.08,3.35,10.16,3.43,-3.40,-3.34,-3.31,6.68,6.77,6.73
82.16,10.17,3.49,10.15,3.47,-3.42,-3.36,-3.31,6.76,6.74,6.68
82.98,10.24,3.61,10.11,3.48,-3.44,-3.38,-3.31,6.80,6.68,6.63
83.81,9.97,3.39,10.03,3.45,-3.46,-3.40,-3.31,6.52,6.58,6.58
84.65,9.88,3.35,9.94,3.41,-3.48,-3.42,-3.32,6.40,6.46,6.53
85.50,9.90,3.43,9.89,3.41,-3.50,-3.45,-3.33,6.40,6.39,6.47
86.35,9.94,3.52,9.93,3.51,-3.52,-3.47,-3.34,6.42,6.41,6.42
87.22,9.94,3.58,9.94,3.58,-3.53,-3.49,-3.36,6.41,6.41,6.36
88.09,9.93,3.62,9.91,3.60,-3.55,-3.51,-3.37,6.39,6.36,6.31
88.97,9.84,3.60,9.86,3.61,-3.57,-3.53,-3.39,6.27,6.29,6.25
89.86,9.78,3.60,9.80,3.62,-3.60,-3.56,-3.42,6.18,6.20,6.18
90.76,9.75,3.62,9.73,3.61,-3.65,-3.58,-3.44,6.11,6.09,6.13
91.66,9.70,3.64,9.67,3.60,-3.68,-3.60,-3.47,6.02,5.99,6.07
92.58,9.59,3.59,9.64,3.64,-3.70,-3.62,-3.50,5.90,5.95,6.00
93.51,9.61,3.68,9.66,3.72,-3.72,-3.65,-3.53,5.90,5.94,5.94
94.44,9.73,3.86,9.67,3.80,-3.74,-3.67,-3.57,6.00,5.93,5.87
95.39,9.69,3.89,9.65,3.85,-3.76,-3.69,-3.60,5.93,5.89,5.81
96.34,9.53,3.79,9.55,3.82,-3.78,-3.72,-3.64,5.75,5.77,5.74
97.30,9.41,3.75,9.43,3.77,-3.80,-3.74,-3.69,5.61,5.63,5.66
98.28,9.32,3.73,9.35,3.76,-3.82,-3.76,-3.73,5.51,5.54,5.60
99.26,9.34,3.82,9.31,3.79,-3.83,-3.79,-3.78,5.51,5.48,5.52
100.25,9.28,3.84,9.26,3.82,-3.84,-3.81,-3.82,5.44,5.42,5.44
101.25,9.20,3.84,9.22,3.86,-3.86,-3.83,-3.87,5.34,5.36,5.36
102.27,9.16,3.88,9.18,3.89,-3.88,-3.85,-3.92,5.28,5.30,5.29
103.29,9.15,3.94,9.14,3.93,-3.90,-3.88,-3.97,5.25,5.23,5.21
104.32,9.10,3.97,9.08,3.96,-3.93,-3.90,-4.02,5.17,5.16,5.13
105.37,9.00,3.96,9.02,3.97,-3.95,-3.92,-4.07,5.06,5.07,5.04
106.42,8.92,3.96,8.94,3.97,-3.96,-3.94,-4.13,4.96,4.98,4.96
107.48,8.86,3.97,8.83,3.95,-3.97,-3.96,-4.18,4.89,4.86,4.89
108.56,8.76,3.95,8.73,3.92,-3.98,-3.98,-4.23,4.79,4.76,4.81
109.64,8.61,3.88,8.71,3.98,-3.98,-4.00,-4.28,4.63,4.73,4.73
110.74,8.66,4.00,8.68,4.01,-3.99,-4.02,-4.32,4.68,4.69,4.66
111.85,8.77,4.18,8.61,4.02,-3.99,-4.04,-4.37,4.78,4.61,4.59
112.97,8.47,3.95,8.55,4.03,-4.01,-4.06,-4.41,4.46,4.54,4.52
114.10,8.37,3.92,8.46,4.01,-4.03,-4.08,-4.45,4.34,4.43,4.45
115.24,8.45,4.06,8.39,4.00,-4.05,-4.09,-4.49,4.40,4.33,4.39
116.39,8.39,4.07,8.39,4.06,-4.08,-4.11,-4.52,4.32,4.31,4.32
117.55,8.36,4.10,8.37,4.10,-4.08,-4.12,-4.55,4.28,4.28,4.27
118.73,8.30,4.10,8.31,4.11,-4.09,-4.14,-4.58,4.21,4.22,4.20
119.92,8.27,4.13,8.27,4.12,-4.10,-4.15,-4.60,4.17,4.17,4.15
121.12,8.22,4.14,8.23,4.14,-4.11,-4.16,-4.61,4.12,4.12,4.08
122.33,8.16,4.13,8.17,4.14,-4.12,-4.18,-4.63,4.04,4.05,4.03
123.55,8.11,4.13,8.06,4.08,-4.13,-4.19,-4.63,3.98,3.93,3.99
124.79,7.97,4.04,7.99,4.06,-4.13,-4.20,-4.63,3.85,3.86,3.93
126.03,7.86,3.99,8.00,4.12,-4.12,-4.20,-4.62,3.74,3.88,3.87
127.29,8.06,4.23,7.97,4.14,-4.11,-4.21,-4.61,3.95,3.86,3.83
128.57,8.06,4.28,7.93,4.15,-4.10,-4.22,-4.60,3.96,3.83,3.78
129.85,7.73,4.00,7.90,4.17,-4.11,-4.22,-4.58,3.62,3.80,3.73
131.15,7.79,4.11,7.79,4.11,-4.12,-4.23,-4.55,3.67,3.66,3.68
132.46,7.81,4.18,7.69,4.06,-4.14,-4.23,-4.52,3.67,3.54,3.63
133.79,7.59,4.02,7.65,4.07,-4.15,-4.23,-4.48,3.45,3.51,3.58
135.12,7.56,4.03,7.65,4.12,-4.14,-4.23,-4.44,3.42,3.51,3.53
136.48,7.68,4.20,7.67,4.19,-4.14,-4.23,-4.40,3.54,3.54,3.48
137.84,7.80,4.37,7.67,4.23,-4.14,-4.23,-4.35,3.67,3.53,3.43
139.22,7.57,4.19,7.58,4.20,-4.14,-4.23,-4.30,3.43,3.44,3.38
140.61,7.34,4.01,7.44,4.12,-4.15,-4.22,-4.25,3.19,3.29,3.33
142.02,7.34,4.06,7.34,4.06,-4.15,-4.21,-4.19,3.19,3.19,3.28
143.44,7.35,4.13,7.32,4.09,-4.14,-4.21,-4.14,3.22,3.19,3.23
144.87,7.32,4.14,7.31,4.13,-4.11,-4.20,-4.08,3.21,3.20,3.18
146.32,7.26,4.13,7.26,4.13,-4.08,-4.19,-4.02,3.18,3.18,3.13
147.78,7.18,4.11,7.20,4.12,-4.06,-4.18,-3.96,3.12,3.14,3.08
149.26,7.12,4.10,7.12,4.09,-4.06,-4.16,-3.90,3.06,3.06,3.03
150.75,7.06,4.08,6.99,4.01,-4.07,-4.15,-3.84,2.99,2.92,2.98
152.26,6.87,3.94,6.91,3.98,-4.06,-4.13,-3.78,2.81,2.85,2.93
153.78,6.78,3.89,6.92,4.03,-4.05,-4.12,-3.72,2.73,2.87,2.90
155.32,7.00,4.15,6.90,4.05,-4.04,-4.10,-3.66,2.96,2.86,2.85
156.88,7.01,4.20,6.89,4.08,-4.03,-4.08,-3.61,2.99,2.86,2.81
158.44,6.70,3.93,6.87,4.10,-4.01,-4.06,-3.55,2.69,2.86,2.77
160.03,6.76,4.03,6.76,4.03,-4.01,-4.04,-3.50,2.75,2.75,2.73
161.63,6.78,4.09,6.65,3.96,-4.00,-4.01,-3.45,2.78,2.65,2.69
163.24,6.53,3.88,6.61,3.96,-3.99,-3.99,-3.40,2.55,2.62,2.65
164.88,6.47,3.86,6.53,3.92,-3.96,-3.96,-3.35,2.52,2.57,2.61
166.53,6.53,3.96,6.48,3.91,-3.93,-3.94,-3.30,2.60,2.55,2.57
168.19,6.47,3.94,6.47,3.94,-3.91,-3.91,-3.26,2.57,2.57,2.53
169.87,6.42,3.93,6.42,3.92,-3.89,-3.88,-3.22,2.54,2.53,2.49
171.57,6.33,3.87,6.33,3.87,-3.87,-3.85,-3.18,2.46,2.46,2.46
173.29,6.24,3.82,6.23,3.81,-3.85,-3.82,-3.14,2.40,2.39,2.42
175.02,6.17,3.79,6.20,3.81,-3.81,-3.79,-3.11,2.36,2.39,2.39
176.77,6.11,3.75,6.17,3.81,-3.78,-3.75,-3.08,2.33,2.39,2.36
178.54,6.24,3.91,6.10,3.77,-3.75,-3.72,-3.05,2.49,2.35,2.33
180.32,5.99,3.69,6.02,3.72,-3.71,-3.68,-3.02,2.28,2.31,2.30
182.13,5.84,3.56,5.94,3.66,-3.68,-3.65,-2.99,2.16,2.26,2.28
183.95,5.92,3.66,5.87,3.61,-3.65,-3.61,-2.97,2.27,2.21,2.26
185.79,5.87,3.64,5.86,3.62,-3.63,-3.57,-2.95,2.25,2.23,2.23
187.65,5.83,3.61,5.84,3.62,-3.59,-3.53,-2.93,2.24,2.24,2.22
189.52,5.77,3.57,5.78,3.58,-3.57,-3.49,-2.92,2.21,2.21,2.20
191.42,5.72,3.54,5.73,3.54,-3.54,-3.45,-2.91,2.18,2.18,2.18
193.33,5.68,3.52,5.68,3.51,-3.52,-3.41,-2.89,2.16,2.16,2.16
195.27,5.63,3.48,5.63,3.48,-3.50,-3.37,-2.88,2.14,2.14,2.15
197.22,5.59,3.46,5.60,3.46,-3.46,-3.33,-2.88,2.13,2.13,2.14
199.19,5.55,3.43,5.56,3.44,-3.43,-3.29,-2.87,2.13,2.13,2.12
201.18,5.52,3.42,5.51,3.40,-3.39,-3.24,-2.86,2.14,2.12,2.10
203.19,5.44,3.35,5.44,3.35,-3.34,-3.20,-2.86,2.10,2.10,2.09
205.23,5.36,3.29,5.37,3.29,-3.29,-3.15,-2.86,2.07,2.07,2.07
207.28,5.28,3.22,5.29,3.23,-3.24,-3.11,-2.86,2.04,2.04,2.06
209.35,5.22,3.19,5.22,3.18,-3.19,-3.06,-2.86,2.03,2.03,2.03
211.44,5.15,3.13,5.17,3.15,-3.13,-3.02,-2.86,2.02,2.04,2.02
213.56,5.08,3.08,5.06,3.06,-3.07,-2.97,-2.86,2.01,1.99,2.01
215.69,5.03,3.05,4.97,2.99,-3.00,-2.93,-2.86,2.03,1.97,1.98
217.85,4.78,2.81,4.93,2.96,-2.94,-2.88,-2.85,1.84,1.99,1.97
220.03,4.92,2.97,4.86,2.90,-2.88,-2.83,-2.85,2.04,1.98,1.95
222.23,4.87,2.93,4.76,2.82,-2.82,-2.78,-2.85,2.05,1.93,1.94
224.45,4.59,2.67,4.70,2.77,-2.77,-2.74,-2.85,1.82,1.93,1.93
226.70,4.55,2.64,4.59,2.68,-2.72,-2.69,-2.85,1.83,1.87,1.92
228.96,4.61,2.71,4.55,2.64,-2.68,-2.64,-2.84,1.94,1.87,1.91
231.25,4.54,2.64,4.54,2.64,-2.63,-2.59,-2.83,1.91,1.91,1.91
233.57,4.50,2.61,4.51,2.61,-2.59,-2.54,-2.82,1.92,1.93,1.90
235.90,4.44,2.54,4.45,2.56,-2.54,-2.49,-2.81,1.90,1.92,1.90
238.26,4.43,2.54,4.41,2.52,-2.50,-2.45,-2.80,1.94,1.91,1.89
240.64,4.35,2.45,4.36,2.46,-2.46,-2.40,-2.78,1.90,1.90,1.90
243.05,4.30,2.40,4.31,2.41,-2.42,-2.35,-2.76,1.89,1.89,1.90
245.48,4.24,2.34,4.25,2.35,-2.37,-2.30,-2.74,1.88,1.89,1.90
247.93,4.22,2.32,4.21,2.30,-2.31,-2.25,-2.71,1.91,1.89,1.91
250.41,4.17,2.26,4.16,2.25,-2.27,-2.20,-2.68,1.91,1.90,1.91
252.92,4.11,2.20,4.17,2.26,-2.23,-2.15,-2.65,1.88,1.94,1.91
255.45,4.13,2.22,4.13,2.22,-2.19,-2.10,-2.62,1.94,1.93,1.91
258.00,4.17,2.26,4.04,2.13,-2.16,-2.05,-2.58,2.01,1.88,1.91
260.58,3.90,2.00,3.99,2.09,-2.13,-2.00,-2.53,1.78,1.87,1.90
263.19,3.85,1.96,3.97,2.07,-2.08,-1.95,-2.49,1.77,1.88,1.90
265.82,4.06,2.18,3.96,2.08,-2.04,-1.91,-2.44,2.02,1.92,1.88
268.48,3.98,2.11,3.92,2.05,-2.00,-1.86,-2.39,1.99,1.92,1.87
271.16,3.83,1.97,3.81,1.96,-1.94,-1.81,-2.33,1.89,1.87,1.86
273.87,3.57,1.73,3.73,1.88,-1.89,-1.76,-2.28,1.68,1.83,1.84
276.61,3.67,1.83,3.66,1.82,-1.85,-1.71,-2.22,1.82,1.81,1.84
279.38,3.78,1.95,3.60,1.77,-1.81,-1.66,-2.16,1.98,1.79,1.83
282.17,3.46,1.64,3.58,1.76,-1.76,-1.61,-2.10,1.71,1.82,1.82
284.99,3.43,1.62,3.50,1.69,-1.71,-1.56,-2.03,1.72,1.79,1.81
287.84,3.54,1.73,3.44,1.63,-1.65,-1.51,-1.97,1.89,1.78,1.81
290.72,3.42,1.63,3.49,1.69,-1.61,-1.47,-1.90,1.81,1.88,1.79
293.63,3.42,1.63,3.40,1.61,-1.57,-1.42,-1.83,1.86,1.83,1.79
296.57,3.39,1.61,3.27,1.48,-1.51,-1.37,-1.76,1.89,1.76,1.79
299.53,3.04,1.25,3.24,1.45,-1.45,-1.32,-1.69,1.60,1.79,1.79
302.53,3.17,1.38,3.15,1.37,-1.39,-1.27,-1.62,1.78,1.77,1.79
305.55,3.26,1.49,3.07,1.29,-1.33,-1.23,-1.55,1.94,1.74,1.78
308.61,2.91,1.14,3.07,1.30,-1.26,-1.18,-1.48,1.65,1.81,1.77
311.69,2.93,1.16,2.98,1.21,-1.20,-1.13,-1.41,1.73,1.77,1.77
314.81,3.02,1.27,2.86,1.10,-1.16,-1.08,-1.33,1.87,1.70,1.76
317.96,2.79,1.04,2.88,1.13,-1.11,-1.04,-1.26,1.68,1.77,1.75
321.14,2.72,0.97,2.83,1.08,-1.06,-0.99,-1.19,1.66,1.76,1.75
324.35,2.92,1.18,2.72,0.98,-1.01,-0.94,-1.12,1.91,1.71,1.74
327.59,2.62,0.90,2.70,0.97,-0.95,-0.89,-1.05,1.67,1.75,1.73
330.87,2.53,0.81,2.67,0.95,-0.88,-0.85,-0.98,1.65,1.79,1.72
334.18,2.70,0.98,2.56,0.84,-0.82,-0.80,-0.91,1.88,1.73,1.72
337.52,2.54,0.82,2.48,0.77,-0.76,-0.75,-0.84,1.78,1.72,1.72
340.90,2.26,0.56,2.38,0.67,-0.70,-0.71,-0.77,1.56,1.68,1.71
344.30,2.25,0.55,2.27,0.57,-0.64,-0.66,-0.70,1.61,1.63,1.70
347.75,2.29,0.59,2.25,0.55,-0.59,-0.61,-0.63,1.71,1.66,1.70
351.23,2.26,0.57,2.25,0.56,-0.53,-0.57,-0.56,1.73,1.72,1.69
354.74,2.20,0.51,2.21,0.52,-0.48,-0.52,-0.49,1.72,1.73,1.69
358.28,2.13,0.45,2.14,0.45,-0.43,-0.47,-0.42,1.70,1.71,1.69
361.87,2.08,0.40,2.07,0.39,-0.38,-0.43,-0.36,1.70,1.69,1.68
365.49,2.01,0.33,2.02,0.34,-0.34,-0.38,-0.29,1.68,1.68,1.68
369.14,1.96,0.28,1.97,0.29,-0.28,-0.34,-0.22,1.68,1.69,1.68
372.83,1.92,0.24,1.92,0.24,-0.23,-0.29,-0.16,1.70,1.69,1.68
376.56,1.85,0.17,1.81,0.14,-0.17,-0.25,-0.09,1.68,1.64,1.68
380.33,1.75,0.09,1.75,0.08,-0.12,-0.20,-0.03,1.63,1.63,1.67
384.13,1.60,-0.06,1.74,0.08,-0.08,-0.15,0.04,1.52,1.66,1.67
387.97,1.81,0.16,1.68,0.03,-0.04,-0.11,0.10,1.78,1.65,1.65
391.85,1.71,0.07,1.64,-0.00,0.01,-0.06,0.17,1.72,1.65,1.64
395.77,1.45,-0.18,1.63,0.00,0.06,-0.02,0.23,1.51,1.69,1.63
399.73,1.57,-0.05,1.51,-0.11,0.11,0.03,0.30,1.68,1.62,1.62
403.72,1.57,-0.04,1.44,-0.17,0.15,0.07,0.36,1.73,1.59,1.61
407.76,1.24,-0.35,1.40,-0.19,0.21,0.12,0.42,1.45,1.61,1.59
411.84,1.32,-0.26,1.29,-0.28,0.27,0.16,0.48,1.59,1.56,1.58
415.96,1.29,-0.27,1.21,-0.35,0.32,0.21,0.54,1.61,1.53,1.57
420.12,1.12,-0.43,1.19,-0.37,0.38,0.25,0.60,1.50,1.57,1.56
424.32,1.12,-0.43,1.12,-0.43,0.43,0.30,0.66,1.56,1.55,1.55
428.56,1.08,-0.47,1.07,-0.48,0.48,0.34,0.72,1.56,1.55,1.55
432.85,1.05,-0.51,1.05,-0.52,0.53,0.39,0.78,1.58,1.57,1.56
437.18,1.00,-0.58,1.01,-0.57,0.57,0.43,0.84,1.57,1.58,1.58
441.55,0.96,-0.64,0.97,-0.63,0.62,0.48,0.89,1.58,1.59,1.60
445.96,0.96,-0.67,0.95,-0.68,0.68,0.53,0.95,1.64,1.63,1.63
450.42,0.93,-0.74,0.94,-0.73,0.74,0.57,1.00,1.68,1.69,1.67
454.93,0.93,-0.78,0.94,-0.77,0.81,0.62,1.05,1.74,1.75,1.71
459.48,0.94,-0.82,0.94,-0.81,0.86,0.66,1.10,1.80,1.80,1.76
464.07,0.92,-0.88,0.88,-0.92,0.89,0.71,1.15,1.81,1.77,1.80
468.71,0.85,-0.99,0.81,-1.04,0.93,0.75,1.19,1.78,1.74,1.85
473.40,0.70,-1.19,0.86,-1.04,0.98,0.80,1.24,1.68,1.83,1.90
478.13,0.89,-1.05,0.92,-1.02,1.03,0.84,1.28,1.92,1.95,1.95
482.91,1.19,-0.79,0.96,-1.02,1.09,0.89,1.32,2.28,2.05,1.99
487.74,0.90,-1.12,1.02,-1.00,1.15,0.93,1.36,2.05,2.17,2.02
492.62,0.86,-1.19,0.93,-1.12,1.20,0.98,1.40,2.07,2.13,2.05
497.55,0.93,-1.14,0.77,-1.31,1.25,1.02,1.43,2.18,2.01,2.07
502.52,0.63,-1.46,0.72,-1.37,1.28,1.07,1.47,1.92,2.00,2.09
507.55,0.59,-1.51,0.68,-1.42,1.33,1.11,1.50,1.92,2.00,2.10
512.62,0.73,-1.36,0.66,-1.44,1.37,1.16,1.53,2.10,2.03,2.09
517.75,0.71,-1.38,0.68,-1.41,1.41,1.20,1.55,2.12,2.09,2.09
522.93,0.66,-1.41,0.69,-1.39,1.45,1.25,1.58,2.11,2.14,2.07
528.16,0.58,-1.47,0.68,-1.37,1.48,1.29,1.60,2.06,2.16,2.05
