frequency,raw,error,smoothed,error_smoothed,equalization,parametric_eq,fixed_band_eq,equalized_raw,equalized_smoothed,target
20.00,7.15,-1.46,7.15,-1.46,1.46,-0.27,-0.22,8.62,8.62,8.62
20.20,7.20,-1.38,7.20,-1.39,1.39,-0.28,-0.22,8.59,8.59,8.59
20.40,7.25,-1.31,7.25,-1.31,1.31,-0.29,-0.23,8.57,8.56,8.56
20.61,7.30,-1.24,7.30,-1.24,1.24,-0.29,-0.23,8.54,8.54,8.55
20.81,7.35,-1.17,7.35,-1.17,1.16,-0.30,-0.24,8.52,8.52,8.52
21.02,7.40,-1.10,7.41,-1.10,1.09,-0.30,-0.24,8.50,8.50,8.50
21.23,7.46,-1.02,7.46,-1.02,1.02,-0.31,-0.25,8.49,8.48,8.48
21.44,7.51,-0.95,7.51,-0.95,0.95,-0.31,-0.25,8.47,8.47,8.46
21.66,7.56,-0.88,7.56,-0.88,0.88,-0.32,-0.26,8.45,8.45,8.44
21.87,7.61,-0.82,7.61,-0.81,0.82,-0.33,-0.26,8.43,8.43,8.43
22.09,7.66,-0.75,7.66,-0.75,0.75,-0.33,-0.27,8.42,8.42,8.41
22.31,7.71,-0.69,7.71,-0.69,0.69,-0.34,-0.27,8.40,8.40,8.40
22.54,7.76,-0.63,7.76,-0.63,0.63,-0.35,-0.28,8.39,8.39,8.39
22.76,7.81,-0.57,7.81,-0.57,0.56,-0.35,-0.28,8.38,8.38,8.38
22.99,7.86,-0.51,7.86,-0.51,0.51,-0.36,-0.29,8.37,8.37,8.37
23.22,7.91,-0.45,7.91,-0.44,0.45,-0.37,-0.30,8.36,8.36,8.36
23.45,7.96,-0.39,7.96,-0.39,0.39,-0.37,-0.30,8.35,8.35,8.35
23.69,8.01,-0.33,8.01,-0.33,0.33,-0.38,-0.31,8.35,8.34,8.34
23.92,8.05,-0.28,8.06,-0.28,0.28,-0.39,-0.32,8.33,8.33,8.34
24.16,8.10,-0.22,8.10,-0.22,0.22,-0.40,-0.32,8.33,8.33,8.33
24.40,8.15,-0.17,8.15,-0.17,0.17,-0.40,-0.33,8.32,8.32,8.33
24.65,8.20,-0.11,8.20,-0.12,0.11,-0.41,-0.34,8.32,8.32,8.32
24.89,8.25,-0.06,8.25,-0.06,0.06,-0.42,-0.34,8.32,8.31,8.31
25.14,8.29,-0.01,8.30,-0.01,0.01,-0.43,-0.35,8.30,8.31,8.30
25.39,8.34,0.05,8.34,0.04,-0.04,-0.43,-0.36,8.30,8.30,8.29
25.65,8.38,0.09,8.38,0.09,-0.09,-0.44,-0.37,8.29,8.29,8.29
25.91,8.42,0.14,8.43,0.14,-0.14,-0.45,-0.37,8.28,8.28,8.28
26.16,8.47,0.19,8.47,0.19,-0.19,-0.46,-0.38,8.28,8.28,8.28
26.43,8.51,0.23,8.52,0.24,-0.24,-0.47,-0.39,8.27,8.28,8.28
26.69,8.56,0.29,8.56,0.29,-0.29,-0.48,-0.40,8.27,8.27,8.27
26.96,8.60,0.34,8.60,0.34,-0.34,-0.49,-0.40,8.27,8.27,8.27
27.23,8.64,0.39,8.64,0.38,-0.38,-0.49,-0.41,8.26,8.26,8.26
27.50,8.68,0.43,8.68,0.43,-0.43,-0.50,-0.42,8.25,8.25,8.26
27.77,8.72,0.47,8.72,0.47,-0.47,-0.51,-0.43,8.25,8.25,8.25
28.05,8.76,0.52,8.76,0.52,-0.52,-0.52,-0.44,8.24,8.24,8.24
28.33,8.80,0.56,8.80,0.56,-0.56,-0.53,-0.44,8.24,8.24,8.24
28.62,8.84,0.60,8.84,0.61,-0.61,-0.54,-0.45,8.24,8.24,8.24
28.90,8.88,0.65,8.88,0.65,-0.65,-0.55,-0.46,8.24,8.23,8.23
29.19,8.91,0.69,8.91,0.69,-0.69,-0.56,-0.47,8.23,8.23,8.23
29.48,8.94,0.72,8.95,0.72,-0.72,-0.57,-0.48,8.22,8.23,8.23
29.78,8.98,0.76,8.98,0.76,-0.75,-0.58,-0.48,8.23,8.23,8.22
30.08,9.01,0.79,9.01,0.79,-0.79,-0.59,-0.49,8.23,8.22,8.22
30.38,9.03,0.82,9.03,0.82,-0.81,-0.60,-0.50,8.22,8.22,8.21
30.68,9.05,0.84,9.05,0.84,-0.84,-0.61,-0.51,8.21,8.21,8.21
30.99,9.07,0.86,9.07,0.87,-0.87,-0.63,-0.52,8.20,8.20,8.21
31.30,9.09,0.89,9.09,0.89,-0.89,-0.64,-0.52,8.20,8.20,8.21
31.61,9.11,0.92,9.11,0.92,-0.92,-0.65,-0.53,8.19,8.19,8.19
31.93,9.13,0.94,9.14,0.94,-0.95,-0.66,-0.54,8.19,8.19,8.19
32.24,9.16,0.97,9.16,0.97,-0.97,-0.67,-0.55,8.19,8.19,8.19
32.57,9.18,1.01,9.18,1.00,-1.00,-0.68,-0.56,8.18,8.18,8.18
32.89,9.20,1.03,9.20,1.03,-1.03,-0.70,-0.57,8.18,8.18,8.18
33.22,9.22,1.05,9.22,1.05,-1.05,-0.71,-0.57,8.17,8.17,8.17
33.55,9.24,1.08,9.24,1.08,-1.08,-0.72,-0.58,8.16,8.16,8.16
33.89,9.26,1.11,9.26,1.10,-1.10,-0.73,-0.59,8.16,8.16,8.16
34.23,9.28,1.13,9.28,1.13,-1.13,-0.75,-0.60,8.15,8.15,8.16
34.57,9.29,1.15,9.30,1.15,-1.15,-0.76,-0.61,8.14,8.15,8.14
34.92,9.31,1.17,9.31,1.17,-1.17,-0.77,-0.62,8.14,8.14,8.14
35.27,9.32,1.19,9.32,1.19,-1.19,-0.79,-0.63,8.13,8.13,8.14
35.62,9.33,1.21,9.34,1.21,-1.21,-0.80,-0.64,8.12,8.13,8.12
35.97,9.35,1.23,9.35,1.23,-1.23,-0.81,-0.65,8.13,8.12,8.12
36.33,9.36,1.25,9.36,1.24,-1.24,-0.83,-0.67,8.12,8.12,8.12
36.70,9.36,1.25,9.37,1.25,-1.26,-0.84,-0.68,8.11,8.11,8.11
37.06,9.37,1.26,9.37,1.27,-1.27,-0.85,-0.69,8.10,8.10,8.11
37.43,9.38,1.29,9.38,1.28,-1.29,-0.87,-0.70,8.10,8.09,8.10
37.81,9.39,1.30,9.39,1.30,-1.30,-0.88,-0.72,8.09,8.09,8.09
38.19,9.40,1.32,9.40,1.32,-1.32,-0.90,-0.73,8.09,8.09,8.09
38.57,9.41,1.34,9.41,1.33,-1.33,-0.91,-0.74,8.08,8.08,8.07
38.95,9.41,1.34,9.41,1.35,-1.34,-0.93,-0.76,8.07,8.07,8.07
39.34,9.41,1.36,9.41,1.36,-1.36,-0.94,-0.77,8.05,8.05,8.05
39.74,9.41,1.36,9.41,1.37,-1.37,-0.96,-0.79,8.04,8.04,8.05
40.14,9.41,1.38,9.42,1.38,-1.38,-0.97,-0.81,8.03,8.03,8.03
40.54,9.42,1.39,9.42,1.39,-1.39,-0.99,-0.83,8.03,8.03,8.03
40.94,9.43,1.41,9.43,1.41,-1.40,-1.00,-0.84,8.03,8.03,8.02
41.35,9.43,1.42,9.43,1.42,-1.41,-1.02,-0.86,8.02,8.02,8.02
41.76,9.43,1.42,9.43,1.42,-1.42,-1.04,-0.88,8.02,8.02,8.01
42.18,9.43,1.43,9.43,1.42,-1.42,-1.05,-0.90,8.01,8.01,8.01
42.60,9.42,1.42,9.43,1.42,-1.42,-1.07,-0.92,8.00,8.00,8.00
43.03,9.42,1.42,9.42,1.42,-1.43,-1.08,-0.95,8.00,8.00,8.00
43.46,9.42,1.43,9.42,1.42,-1.43,-1.10,-0.97,8.00,7.99,8.00
43.90,9.41,1.42,9.42,1.43,-1.43,-1.12,-0.99,7.99,7.99,7.99
44.33,9.41,1.43,9.41,1.43,-1.43,-1.13,-1.02,7.98,7.98,7.98
44.78,9.40,1.43,9.41,1.43,-1.43,-1.15,-1.04,7.97,7.97,7.97
45.23,9.40,1.44,9.40,1.44,-1.44,-1.17,-1.07,7.97,7.97,7.97
45.68,9.40,1.44,9.40,1.44,-1.45,-1.18,-1.10,7.96,7.96,7.96
46.13,9.40,1.45,9.40,1.45,-1.45,-1.20,-1.12,7.95,7.95,7.95
46.60,9.40,1.46,9.40,1.46,-1.46,-1.22,-1.15,7.94,7.94,7.94
47.06,9.40,1.47,9.40,1.47,-1.47,-1.24,-1.18,7.93,7.93,7.93
47.53,9.40,1.49,9.40,1.49,-1.48,-1.25,-1.21,7.92,7.92,7.91
48.01,9.40,1.50,9.40,1.50,-1.50,-1.27,-1.24,7.91,7.91,7.90
48.49,9.40,1.51,9.40,1.51,-1.51,-1.29,-1.27,7.89,7.89,7.89
48.97,9.40,1.52,9.40,1.52,-1.52,-1.30,-1.30,7.88,7.88,7.88
49.46,9.40,1.53,9.40,1.53,-1.54,-1.32,-1.33,7.87,7.87,7.87
49.96,9.40,1.54,9.41,1.55,-1.55,-1.34,-1.36,7.85,7.86,7.86
50.46,9.41,1.57,9.41,1.56,-1.57,-1.35,-1.40,7.85,7.85,7.85
50.96,9.42,1.59,9.42,1.58,-1.58,-1.37,-1.43,7.84,7.84,7.84
51.47,9.42,1.59,9.43,1.60,-1.60,-1.39,-1.46,7.83,7.83,7.83
51.99,9.43,1.61,9.43,1.61,-1.61,-1.40,-1.50,7.82,7.82,7.82
52.51,9.43,1.63,9.43,1.63,-1.62,-1.42,-1.53,7.81,7.81,7.81
53.03,9.43,1.64,9.43,1.64,-1.64,-1.44,-1.56,7.80,7.80,7.79
53.56,9.42,1.65,9.43,1.65,-1.65,-1.45,-1.59,7.78,7.78,7.78
54.10,9.42,1.65,9.42,1.65,-1.65,-1.47,-1.63,7.77,7.77,7.77
54.64,9.41,1.66,9.42,1.66,-1.66,-1.48,-1.66,7.75,7.76,7.76
55.18,9.41,1.67,9.41,1.67,-1.67,-1.50,-1.69,7.75,7.74,7.74
55.74,9.40,1.68,9.40,1.67,-1.67,-1.51,-1.72,7.73,7.73,7.72
56.29,9.38,1.67,9.39,1.68,-1.67,-1.53,-1.75,7.71,7.71,7.72
56.86,9.37,1.67,9.37,1.67,-1.67,-1.54,-1.77,7.70,7.70,7.70
57.42,9.36,1.68,9.36,1.67,-1.67,-1.56,-1.80,7.69,7.69,7.68
58.00,9.34,1.67,9.34,1.68,-1.67,-1.57,-1.83,7.67,7.67,7.67
58.58,9.32,1.67,9.32,1.67,-1.67,-1.58,-1.85,7.65,7.65,7.65
59.16,9.30,1.67,9.30,1.67,-1.67,-1.59,-1.87,7.64,7.64,7.63
59.76,9.28,1.66,9.28,1.67,-1.67,-1.61,-1.89,7.62,7.62,7.62
60.35,9.26,1.66,9.26,1.66,-1.67,-1.62,-1.91,7.60,7.59,7.60
60.96,9.24,1.67,9.24,1.67,-1.67,-1.63,-1.92,7.57,7.57,7.58
61.57,9.22,1.67,9.23,1.67,-1.68,-1.64,-1.94,7.55,7.55,7.55
62.18,9.21,1.68,9.21,1.68,-1.68,-1.64,-1.95,7.53,7.53,7.53
62.80,9.19,1.69,9.20,1.69,-1.69,-1.65,-1.96,7.50,7.51,7.51
63.43,9.18,1.70,9.18,1.70,-1.70,-1.66,-1.97,7.49,7.48,7.48
64.07,9.16,1.71,9.16,1.71,-1.70,-1.66,-1.97,7.46,7.46,7.46
64.71,9.14,1.71,9.14,1.72,-1.71,-1.67,-1.98,7.43,7.44,7.43
65.35,9.12,1.72,9.12,1.72,-1.71,-1.67,-1.98,7.41,7.40,7.40
66.01,9.09,1.72,9.09,1.72,-1.72,-1.68,-1.98,7.37,7.37,7.37
66.67,9.06,1.72,9.07,1.72,-1.72,-1.68,-1.98,7.34,7.34,7.34
67.33,9.04,1.73,9.04,1.73,-1.73,-1.68,-1.97,7.31,7.31,7.31
68.01,9.02,1.74,9.02,1.73,-1.74,-1.69,-1.97,7.28,7.28,7.28
68.69,8.99,1.74,9.00,1.74,-1.75,-1.69,-1.96,7.24,7.25,7.25
69.37,8.97,1.75,8.98,1.76,-1.76,-1.69,-1.96,7.21,7.21,7.22
70.07,8.96,1.78,8.96,1.77,-1.78,-1.70,-1.95,7.18,7.18,7.19
70.77,8.95,1.80,8.95,1.80,-1.80,-1.71,-1.94,7.16,7.16,7.15
71.48,8.94,1.81,8.94,1.82,-1.81,-1.72,-1.93,7.13,7.13,7.13
72.19,8.92,1.83,8.92,1.83,-1.82,-1.73,-1.92,7.10,7.10,7.09
72.91,8.90,1.85,8.90,1.84,-1.83,-1.74,-1.91,7.07,7.07,7.06
73.64,8.87,1.85,8.87,1.85,-1.84,-1.76,-1.90,7.03,7.03,7.02
74.38,8.84,1.85,8.84,1.85,-1.85,-1.77,-1.89,6.99,6.99,6.99
75.12,8.80,1.85,8.81,1.85,-1.85,-1.79,-1.88,6.95,6.95,6.95
75.87,8.77,1.85,8.77,1.85,-1.86,-1.81,-1.87,6.92,6.91,6.92
76.63,8.73,1.85,8.73,1.85,-1.86,-1.84,-1.86,6.87,6.87,6.88
77.40,8.70,1.86,8.70,1.86,-1.87,-1.86,-1.86,6.84,6.84,6.84
78.17,8.67,1.86,8.68,1.87,-1.87,-1.88,-1.85,6.80,6.80,6.81
78.95,8.65,1.89,8.65,1.88,-1.88,-1.90,-1.84,6.77,6.76,6.77
79.74,8.62,1.90,8.62,1.90,-1.90,-1.92,-1.84,6.73,6.73,6.72
80.54,8.59,1.91,8.59,1.91,-1.91,-1.94,-1.83,6.68,6.69,6.69
81.35,8.56,1.92,8.56,1.92,-1.92,-1.96,-1.83,6.64,6.64,6.64
82.16,8.53,1.94,8.53,1.94,-1.93,-1.98,-1.83,6.60,6.60,6.59
82.98,8.49,1.95,8.49,1.95,-1.94,-2.00,-1.83,6.55,6.55,6.55
83.81,8.45,1.95,8.45,1.95,-1.95,-2.01,-1.83,6.50,6.50,6.50
84.65,8.41,1.95,8.41,1.96,-1.96,-2.03,-1.83,6.45,6.45,6.46
85.50,8.37,1.96,8.37,1.96,-1.97,-2.04,-1.83,6.41,6.40,6.41
86.35,8.33,1.97,8.33,1.97,-1.98,-2.06,-1.84,6.35,6.35,6.36
87.22,8.29,1.98,8.30,1.99,-1.99,-2.07,-1.84,6.30,6.30,6.31
88.09,8.26,2.01,8.26,2.00,-2.00,-2.08,-1.85,6.26,6.26,6.26
88.97,8.22,2.02,8.23,2.02,-2.02,-2.09,-1.86,6.20,6.21,6.21
89.86,8.19,2.04,8.19,2.04,-2.03,-2.09,-1.87,6.16,6.16,6.15
90.76,8.15,2.05,8.15,2.05,-2.05,-2.10,-1.88,6.10,6.10,6.10
91.66,8.11,2.07,8.11,2.07,-2.07,-2.11,-1.89,6.05,6.05,6.05
92.58,8.07,2.08,8.07,2.08,-2.08,-2.11,-1.91,5.99,5.99,5.99
93.51,8.03,2.10,8.03,2.10,-2.10,-2.12,-1.93,5.93,5.93,5.94
94.44,7.99,2.11,7.99,2.11,-2.11,-2.12,-1.94,5.88,5.88,5.88
95.39,7.95,2.13,7.95,2.13,-2.13,-2.12,-1.96,5.83,5.83,5.82
96.34,7.91,2.14,7.91,2.14,-2.14,-2.12,-1.98,5.77,5.77,5.77
97.30,7.87,2.15,7.87,2.16,-2.15,-2.13,-2.00,5.72,5.72,5.72
98.28,7.83,2.17,7.83,2.17,-2.17,-2.13,-2.02,5.67,5.67,5.67
99.26,7.79,2.18,7.79,2.18,-2.18,-2.13,-2.05,5.61,5.61,5.61
100.25,7.74,2.19,7.74,2.19,-2.19,-2.13,-2.07,5.55,5.55,5.55
101.25,7.69,2.20,7.69,2.20,-2.21,-2.13,-2.10,5.49,5.49,5.49
102.27,7.64,2.21,7.65,2.22,-2.22,-2.13,-2.12,5.42,5.43,5.44
103.29,7.62,2.25,7.62,2.24,-2.23,-2.12,-2.15,5.39,5.38,5.38
104.32,7.58,2.25,7.58,2.25,-2.25,-2.12,-2.17,5.34,5.33,5.33
105.37,7.53,2.26,7.54,2.26,-2.26,-2.12,-2.20,5.28,5.28,5.27
106.42,7.48,2.27,7.49,2.27,-2.27,-2.12,-2.23,5.22,5.22,5.21
107.48,7.44,2.28,7.44,2.28,-2.27,-2.12,-2.25,5.17,5.17,5.17
108.56,7.39,2.28,7.39,2.28,-2.28,-2.11,-2.28,5.11,5.11,5.11
109.64,7.34,2.29,7.34,2.29,-2.29,-2.11,-2.30,5.05,5.05,5.05
110.74,7.28,2.29,7.28,2.29,-2.30,-2.11,-2.33,4.99,4.99,4.99
111.85,7.23,2.30,7.23,2.29,-2.30,-2.10,-2.35,4.93,4.93,4.94
112.97,7.18,2.29,7.19,2.30,-2.31,-2.10,-2.38,4.87,4.88,4.89
114.10,7.15,2.32,7.15,2.32,-2.32,-2.09,-2.40,4.84,4.83,4.83
115.24,7.10,2.33,7.11,2.33,-2.32,-2.09,-2.42,4.78,4.79,4.78
116.39,7.07,2.35,7.07,2.35,-2.33,-2.09,-2.43,4.74,4.74,4.72
117.55,7.02,2.35,7.02,2.35,-2.34,-2.08,-2.45,4.69,4.68,4.68
118.73,6.96,2.34,6.96,2.34,-2.34,-2.08,-2.46,4.62,4.62,4.62
119.92,6.89,2.33,6.90,2.33,-2.35,-2.07,-2.48,4.55,4.55,4.57
121.12,6.84,2.33,6.85,2.34,-2.35,-2.07,-2.49,4.50,4.51,4.51
122.33,6.81,2.35,6.81,2.35,-2.34,-2.07,-2.49,4.47,4.47,4.47
123.55,6.78,2.37,6.77,2.35,-2.34,-2.06,-2.50,4.44,4.43,4.42
124.79,6.71,2.34,6.71,2.34,-2.34,-2.06,-2.50,4.38,4.38,4.37
126.03,6.64,2.32,6.66,2.33,-2.33,-2.06,-2.50,4.31,4.32,4.32
127.29,6.60,2.32,6.60,2.32,-2.33,-2.05,-2.49,4.27,4.27,4.28
128.57,6.55,2.32,6.55,2.32,-2.32,-2.05,-2.49,4.23,4.22,4.23
129.85,6.49,2.31,6.50,2.32,-2.31,-2.05,-2.48,4.18,4.18,4.18
131.15,6.43,2.30,6.44,2.31,-2.30,-2.05,-2.47,4.13,4.14,4.13
132.46,6.39,2.30,6.38,2.29,-2.29,-2.05,-2.45,4.10,4.09,4.09
133.79,6.32,2.28,6.32,2.28,-2.29,-2.05,-2.44,4.04,4.04,4.04
135.12,6.25,2.25,6.26,2.27,-2.27,-2.05,-2.42,3.98,3.99,4.00
136.48,6.21,2.26,6.21,2.26,-2.26,-2.05,-2.40,3.96,3.95,3.95
137.84,6.15,2.25,6.16,2.25,-2.24,-2.05,-2.38,3.92,3.92,3.91
139.22,6.10,2.24,6.10,2.23,-2.21,-2.05,-2.36,3.89,3.88,3.86
140.61,6.03,2.21,6.02,2.20,-2.19,-2.05,-2.33,3.84,3.83,3.82
142.02,5.93,2.15,5.95,2.16,-2.16,-2.05,-2.31,3.77,3.78,3.79
143.44,5.87,2.13,5.87,2.13,-2.14,-2.05,-2.28,3.74,3.74,3.74
144.87,5.80,2.10,5.80,2.10,-2.11,-2.06,-2.25,3.69,3.70,3.70
146.32,5.75,2.08,5.75,2.08,-2.08,-2.06,-2.23,3.67,3.67,3.67
147.78,5.69,2.06,5.70,2.06,-2.06,-2.06,-2.20,3.63,3.63,3.63
149.26,5.65,2.06,5.65,2.05,-2.05,-2.07,-2.17,3.60,3.60,3.60
150.75,5.60,2.03,5.61,2.04,-2.05,-2.08,-2.15,3.56,3.56,3.57
152.26,5.57,2.04,5.57,2.04,-2.05,-2.08,-2.12,3.52,3.52,3.53
153.78,5.54,2.05,5.55,2.05,-2.06,-2.09,-2.10,3.49,3.49,3.50
155.32,5.53,2.06,5.53,2.07,-2.07,-2.10,-2.07,3.47,3.47,3.47
156.88,5.52,2.09,5.52,2.09,-2.08,-2.11,-2.05,3.44,3.44,3.44
158.44,5.51,2.11,5.51,2.11,-2.10,-2.12,-2.02,3.41,3.41,3.40
160.03,5.49,2.12,5.49,2.12,-2.12,-2.12,-2.00,3.38,3.38,3.37
161.63,5.47,2.13,5.48,2.13,-2.13,-2.14,-1.98,3.34,3.34,3.34
163.24,5.46,2.14,5.46,2.15,-2.14,-2.15,-1.96,3.32,3.32,3.32
164.88,5.44,2.15,5.44,2.16,-2.15,-2.16,-1.94,3.29,3.29,3.29
166.53,5.42,2.16,5.42,2.16,-2.15,-2.17,-1.92,3.27,3.27,3.26
168.19,5.39,2.16,5.39,2.16,-2.15,-2.18,-1.90,3.25,3.24,3.23
169.87,5.35,2.14,5.36,2.15,-2.14,-2.19,-1.89,3.21,3.22,3.21
171.57,5.32,2.14,5.32,2.13,-2.13,-2.21,-1.87,3.19,3.19,3.19
173.29,5.28,2.12,5.28,2.12,-2.12,-2.22,-1.86,3.16,3.16,3.16
175.02,5.24,2.11,5.25,2.11,-2.11,-2.23,-1.85,3.13,3.14,3.14
176.77,5.22,2.10,5.22,2.10,-2.11,-2.24,-1.84,3.11,3.11,3.12
178.54,5.20,2.11,5.20,2.10,-2.11,-2.26,-1.83,3.09,3.09,3.10
180.32,5.18,2.11,5.18,2.11,-2.12,-2.27,-1.83,3.07,3.07,3.07
182.13,5.17,2.12,5.17,2.12,-2.13,-2.28,-1.82,3.05,3.04,3.05
183.95,5.16,2.13,5.17,2.14,-2.14,-2.29,-1.82,3.02,3.02,3.03
185.79,5.17,2.16,5.17,2.16,-2.16,-2.30,-1.82,3.01,3.01,3.01
187.65,5.18,2.19,5.18,2.19,-2.19,-2.31,-1.81,2.99,2.99,2.99
189.52,5.19,2.22,5.19,2.22,-2.21,-2.32,-1.82,2.98,2.98,2.97
191.42,5.19,2.24,5.19,2.24,-2.24,-2.32,-1.82,2.95,2.95,2.95
193.33,5.19,2.26,5.19,2.26,-2.27,-2.33,-1.82,2.93,2.93,2.93
195.27,5.19,2.28,5.20,2.28,-2.29,-2.33,-1.82,2.90,2.91,2.91
197.22,5.20,2.31,5.20,2.31,-2.31,-2.33,-1.83,2.89,2.89,2.90
199.19,5.21,2.33,5.21,2.33,-2.32,-2.33,-1.83,2.89,2.89,2.88
201.18,5.21,2.34,5.21,2.34,-2.33,-2.32,-1.84,2.88,2.88,2.87
203.19,5.20,2.35,5.21,2.35,-2.34,-2.32,-1.85,2.86,2.87,2.86
205.23,5.19,2.34,5.19,2.34,-2.34,-2.31,-1.86,2.85,2.85,2.85
207.28,5.17,2.34,5.17,2.34,-2.33,-2.30,-1.86,2.84,2.84,2.84
209.35,5.15,2.33,5.15,2.32,-2.32,-2.28,-1.87,2.83,2.83,2.82
211.44,5.12,2.30,5.12,2.31,-2.31,-2.27,-1.88,2.81,2.81,2.82
213.56,5.09,2.29,5.09,2.29,-2.29,-2.25,-1.89,2.80,2.80,2.81
215.69,5.05,2.26,5.06,2.27,-2.27,-2.23,-1.90,2.78,2.79,2.79
217.85,5.03,2.25,5.04,2.25,-2.25,-2.20,-1.91,2.78,2.78,2.78
220.03,5.01,2.23,5.01,2.23,-2.23,-2.17,-1.91,2.79,2.78,2.78
222.23,4.98,2.22,4.98,2.21,-2.20,-2.15,-1.92,2.78,2.78,2.77
224.45,4.93,2.18,4.93,2.17,-2.17,-2.11,-1.92,2.76,2.76,2.76
226.70,4.88,2.14,4.89,2.14,-2.14,-2.08,-1.93,2.74,2.74,2.75
228.96,4.83,2.09,4.84,2.10,-2.11,-2.04,-1.93,2.72,2.73,2.75
231.25,4.81,2.08,4.81,2.07,-2.08,-2.00,-1.93,2.73,2.72,2.74
233.57,4.77,2.05,4.77,2.04,-2.05,-1.96,-1.93,2.73,2.72,2.73
235.90,4.73,2.01,4.74,2.02,-2.01,-1.92,-1.93,2.72,2.73,2.73
238.26,4.70,1.99,4.70,1.98,-1.97,-1.87,-1.92,2.73,2.73,2.72
240.64,4.66,1.94,4.66,1.94,-1.93,-1.83,-1.92,2.73,2.73,2.72
243.05,4.62,1.90,4.62,1.90,-1.89,-1.78,-1.91,2.73,2.73,2.72
245.48,4.56,1.84,4.57,1.85,-1.84,-1.73,-1.89,2.72,2.73,2.72
247.93,4.51,1.80,4.51,1.80,-1.79,-1.68,-1.88,2.72,2.72,2.72
250.41,4.46,1.75,4.45,1.74,-1.74,-1.63,-1.86,2.72,2.71,2.72
252.92,4.39,1.67,4.40,1.68,-1.69,-1.58,-1.84,2.71,2.71,2.72
255.45,4.34,1.62,4.35,1.62,-1.64,-1.53,-1.82,2.71,2.71,2.72
258.00,4.30,1.59,4.30,1.58,-1.59,-1.48,-1.79,2.72,2.71,2.72
260.58,4.24,1.52,4.25,1.53,-1.54,-1.43,-1.76,2.71,2.72,2.72
263.19,4.21,1.50,4.21,1.49,-1.49,-1.38,-1.73,2.73,2.72,2.71
265.82,4.15,1.44,4.16,1.45,-1.44,-1.33,-1.70,2.72,2.72,2.71
268.48,4.11,1.40,4.11,1.40,-1.39,-1.28,-1.66,2.72,2.72,2.71
271.16,4.06,1.36,4.05,1.34,-1.34,-1.22,-1.62,2.72,2.71,2.71
273.87,3.98,1.28,4.00,1.29,-1.29,-1.17,-1.58,2.69,2.70,2.70
276.61,3.94,1.24,3.94,1.24,-1.25,-1.12,-1.54,2.70,2.70,2.71
279.38,3.89,1.19,3.89,1.19,-1.20,-1.07,-1.50,2.70,2.70,2.70
282.17,3.85,1.15,3.85,1.15,-1.15,-1.02,-1.45,2.71,2.71,2.71
284.99,3.81,1.11,3.81,1.10,-1.10,-0.98,-1.40,2.71,2.71,2.70
287.84,3.75,1.05,3.76,1.06,-1.06,-0.93,-1.35,2.70,2.70,2.70
290.72,3.70,1.01,3.70,1.01,-1.01,-0.88,-1.30,2.69,2.69,2.69
293.63,3.65,0.96,3.65,0.96,-0.97,-0.83,-1.25,2.68,2.68,2.69
296.57,3.61,0.93,3.61,0.92,-0.93,-0.79,-1.20,2.68,2.68,2.69
299.53,3.57,0.88,3.58,0.89,-0.89,-0.74,-1.15,2.69,2.69,2.69
302.53,3.54,0.85,3.54,0.85,-0.84,-0.69,-1.10,2.70,2.70,2.69
305.55,3.49,0.81,3.49,0.80,-0.79,-0.65,-1.04,2.70,2.70,2.69
308.61,3.44,0.75,3.44,0.75,-0.75,-0.61,-0.99,2.70,2.69,2.69
311.69,3.38,0.69,3.39,0.70,-0.70,-0.56,-0.94,2.69,2.69,2.69
314.81,3.33,0.64,3.34,0.64,-0.65,-0.52,-0.88,2.69,2.69,2.70
317.96,3.29,0.60,3.29,0.59,-0.60,-0.48,-0.83,2.70,2.69,2.69
321.14,3.23,0.53,3.24,0.54,-0.54,-0.44,-0.78,2.69,2.70,2.70
324.35,3.19,0.50,3.19,0.49,-0.49,-0.40,-0.72,2.70,2.70,2.70
327.59,3.14,0.45,3.14,0.44,-0.44,-0.35,-0.67,2.70,2.70,2.70
330.87,3.09,0.39,3.09,0.39,-0.39,-0.32,-0.61,2.70,2.71,2.70
334.18,3.04,0.33,3.05,0.34,-0.34,-0.28,-0.56,2.70,2.71,2.71
337.52,3.00,0.30,3.00,0.29,-0.29,-0.24,-0.51,2.71,2.71,2.71
340.90,2.95,0.24,2.96,0.24,-0.24,-0.20,-0.45,2.71,2.71,2.72
344.30,2.91,0.20,2.91,0.20,-0.20,-0.16,-0.40,2.71,2.71,2.71
347.75,2.87,0.16,2.87,0.16,-0.16,-0.12,-0.35,2.71,2.71,2.71
351.23,2.82,0.11,2.83,0.12,-0.12,-0.09,-0.29,2.70,2.71,2.71
354.74,2.79,0.08,2.79,0.08,-0.09,-0.05,-0.24,2.71,2.71,2.72
358.28,2.76,0.05,2.76,0.05,-0.05,-0.01,-0.19,2.71,2.71,2.72
361.87,2.73,0.02,2.73,0.02,-0.01,0.02,-0.14,2.72,2.72,2.71
365.49,2.70,-0.01,2.70,-0.01,0.03,0.06,-0.08,2.73,2.73,2.71
369.14,2.66,-0.05,2.66,-0.05,0.06,0.09,-0.03,2.73,2.72,2.71
372.83,2.61,-0.10,2.61,-0.10,0.10,0.13,0.02,2.72,2.72,2.71
376.56,2.56,-0.15,2.57,-0.15,0.14,0.16,0.07,2.70,2.71,2.72
380.33,2.52,-0.19,2.52,-0.19,0.18,0.20,0.12,2.70,2.70,2.72
384.13,2.48,-0.23,2.49,-0.23,0.22,0.23,0.17,2.70,2.70,2.71
387.97,2.45,-0.26,2.46,-0.26,0.26,0.27,0.22,2.71,2.71,2.71
391.85,2.43,-0.29,2.43,-0.29,0.29,0.30,0.27,2.73,2.72,2.72
395.77,2.40,-0.32,2.40,-0.32,0.33,0.33,0.32,2.74,2.73,2.72
399.73,2.36,-0.37,2.37,-0.36,0.38,0.37,0.37,2.74,2.74,2.73
403.72,2.32,-0.41,2.32,-0.41,0.42,0.40,0.42,2.74,2.74,2.73
407.76,2.28,-0.45,2.28,-0.46,0.46,0.43,0.47,2.74,2.74,2.74
411.84,2.22,-0.51,2.23,-0.51,0.50,0.47,0.52,2.73,2.73,2.74
415.96,2.18,-0.56,2.18,-0.56,0.55,0.50,0.57,2.73,2.73,2.75
420.12,2.14,-0.60,2.14,-0.60,0.58,0.53,0.62,2.73,2.73,2.74
424.32,2.11,-0.63,2.12,-0.63,0.62,0.57,0.67,2.73,2.74,2.74
428.56,2.09,-0.66,2.09,-0.66,0.66,0.60,0.71,2.75,2.75,2.75
432.85,2.07,-0.68,2.07,-0.68,0.69,0.63,0.76,2.76,2.76,2.75
437.18,2.04,-0.71,2.05,-0.71,0.72,0.66,0.80,2.76,2.77,2.75
441.55,2.01,-0.74,2.01,-0.74,0.75,0.70,0.85,2.77,2.76,2.75
445.96,1.97,-0.78,1.97,-0.78,0.79,0.73,0.89,2.76,2.76,2.75
450.42,1.92,-0.83,1.93,-0.82,0.82,0.76,0.93,2.74,2.75,2.75
454.93,1.88,-0.86,1.88,-0.87,0.85,0.80,0.97,2.74,2.74,2.75
459.48,1.84,-0.90,1.85,-0.90,0.88,0.83,1.01,2.73,2.73,2.75
464.07,1.82,-0.92,1.82,-0.92,0.92,0.86,1.05,2.74,2.74,2.75
468.71,1.80,-0.94,1.80,-0.95,0.95,0.90,1.09,2.75,2.74,2.75
473.40,1.77,-0.97,1.78,-0.97,0.98,0.93,1.13,2.75,2.75,2.75
478.13,1.75,-1.00,1.75,-1.00,1.01,0.97,1.16,2.76,2.76,2.76
482.91,1.73,-1.02,1.73,-1.03,1.04,1.00,1.19,2.77,2.77,2.75
487.74,1.69,-1.06,1.69,-1.06,1.07,1.03,1.23,2.77,2.77,2.75
492.62,1.65,-1.10,1.65,-1.11,1.11,1.07,1.26,2.76,2.76,2.75
497.55,1.60,-1.16,1.61,-1.15,1.15,1.10,1.28,2.75,2.76,2.76
502.52,1.56,-1.20,1.57,-1.20,1.19,1.14,1.31,2.75,2.75,2.76
507.55,1.53,-1.23,1.53,-1.24,1.23,1.17,1.34,2.76,2.75,2.76
512.62,1.49,-1.27,1.49,-1.27,1.26,1.21,1.36,2.75,2.76,2.76
517.75,1.46,-1.31,1.47,-1.30,1.29,1.24,1.38,2.76,2.76,2.77
522.93,1.44,-1.33,1.44,-1.33,1.33,1.28,1.40,2.77,2.77,2.77
528.16,1.42,-1.35,1.42,-1.35,1.35,1.32,1.42,2.78,2.78,2.77
533.44,1.40,-1.37,1.40,-1.37,1.38,1.35,1.44,2.78,2.78,2.77
538.77,1.37,-1.41,1.37,-1.40,1.41,1.39,1.46,2.78,2.78,2.78
544.16,1.34,-1.44,1.35,-1.43,1.44,1.42,1.48,2.78,2.78,2.78
549.60,1.31,-1.47,1.31,-1.47,1.47,1.46,1.49,2.78,2.78,2.78
