frequency,raw
20.00,-5.11
20.20,-5.19
20.40,-5.29
20.61,-5.37
20.81,-5.46
21.02,-5.54
21.23,-5.58
21.44,-5.61
21.66,-5.64
21.87,-5.67
22.09,-5.73
22.31,-5.82
22.54,-5.91
22.76,-5.99
22.99,-6.09
23.22,-6.10
23.45,-6.12
23.69,-6.13
23.92,-6.15
24.16,-6.22
24.40,-6.31
24.65,-6.39
24.89,-6.47
25.14,-6.54
25.39,-6.61
25.65,-6.66
25.91,-6.72
26.16,-6.78
26.43,-6.85
26.69,-6.91
26.96,-6.97
27.23,-7.04
27.50,-7.11
27.77,-7.17
28.05,-7.24
28.33,-7.30
28.62,-7.35
28.90,-7.41
29.19,-7.46
29.48,-7.52
29.78,-7.56
30.08,-7.62
30.38,-7.68
30.68,-7.75
30.99,-7.82
31.30,-7.85
31.61,-7.89
31.93,-7.93
32.24,-7.98
32.57,-8.04
32.89,-8.10
33.22,-8.14
33.55,-8.17
33.89,-8.21
34.23,-8.25
34.57,-8.32
34.92,-8.38
35.27,-8.44
35.62,-8.51
35.97,-8.58
36.33,-8.60
36.70,-8.60
37.06,-8.62
37.43,-8.69
37.81,-8.76
38.19,-8.85
38.57,-8.94
38.95,-9.03
39.34,-8.95
39.74,-8.85
40.14,-8.84
40.54,-9.01
40.94,-9.17
41.35,-9.17
41.76,-9.15
42.18,-9.16
42.60,-9.20
43.03,-9.24
43.46,-9.29
43.90,-9.36
44.33,-9.37
44.78,-9.37
45.23,-9.39
45.68,-9.44
46.13,-9.48
46.60,-9.54
47.06,-9.59
47.53,-9.59
48.01,-9.60
48.49,-9.56
48.97,-9.51
49.46,-9.69
49.96,-9.89
50.46,-9.89
50.96,-9.87
51.47,-9.88
51.99,-9.89
52.51,-9.95
53.03,-10.01
53.56,-10.08
54.10,-10.13
54.64,-10.14
55.18,-10.13
55.74,-10.08
56.29,-10.15
56.86,-10.34
57.42,-10.40
58.00,-10.42
58.58,-10.39
59.16,-10.37
59.76,-10.36
60.35,-10.35
60.96,-10.34
61.57,-10.39
62.18,-10.44
62.80,-10.47
63.43,-10.46
64.07,-10.43
64.71,-10.41
65.35,-10.40
66.01,-10.41
66.67,-10.46
67.33,-10.50
68.01,-10.51
68.69,-10.50
69.37,-10.51
70.07,-10.53
70.77,-10.67
71.48,-10.63
72.19,-10.52
72.91,-10.41
73.64,-10.54
74.38,-10.61
75.12,-10.60
75.87,-10.59
76.63,-10.57
77.40,-10.61
78.17,-10.68
78.95,-10.74
79.74,-10.63
80.54,-10.59
81.35,-10.57
82.16,-10.56
82.98,-10.55
83.81,-10.65
84.65,-10.59
85.50,-10.48
86.35,-10.41
87.22,-10.40
88.09,-10.40
88.97,-10.50
89.86,-10.50
90.76,-10.32
91.66,-10.11
92.58,-10.06
93.51,-10.17
94.44,-10.18
95.39,-10.06
96.34,-10.04
97.30,-10.03
98.28,-10.00
99.26,-9.93
100.25,-9.89
101.25,-9.89
102.27,-9.89
103.29,-9.90
104.32,-9.91
105.37,-9.92
106.42,-9.93
107.48,-9.92
108.56,-9.88
109.64,-10.00
110.74,-10.14
111.85,-10.29
112.97,-10.27
114.10,-10.23
115.24,-10.22
116.39,-10.17
117.55,-10.14
118.73,-10.27
119.92,-10.28
121.12,-10.16
122.33,-10.23
123.55,-10.24
124.79,-10.23
126.03,-10.31
127.29,-10.28
128.57,-10.31
129.85,-10.36
131.15,-10.36
132.46,-10.38
133.79,-10.38
135.12,-10.40
136.48,-10.40
137.84,-10.40
139.22,-10.36
140.61,-10.28
142.02,-10.23
143.44,-10.23
144.87,-10.23
146.32,-10.38
147.78,-10.42
149.26,-10.34
150.75,-10.29
152.26,-10.26
153.78,-10.22
155.32,-10.12
156.88,-10.12
158.44,-10.32
160.03,-10.31
161.63,-10.35
163.24,-10.35
164.88,-10.23
166.53,-10.33
168.19,-10.33
169.87,-10.32
171.57,-10.08
173.29,-10.10
175.02,-10.20
176.77,-10.23
178.54,-10.27
180.32,-10.30
182.13,-10.32
183.95,-10.34
185.79,-10.36
187.65,-10.37
189.52,-10.37
191.42,-10.37
193.33,-10.37
195.27,-10.36
197.22,-10.40
199.19,-10.54
201.18,-10.59
203.19,-10.49
205.23,-10.43
207.28,-10.43
209.35,-10.48
211.44,-10.64
213.56,-10.62
215.69,-10.52
217.85,-10.51
220.03,-10.71
222.23,-10.74
224.45,-10.63
226.70,-10.80
228.96,-10.91
231.25,-10.74
233.57,-10.76
235.90,-11.02
238.26,-10.97
240.64,-10.95
243.05,-11.06
245.48,-10.94
247.93,-10.93
250.41,-11.17
252.92,-11.10
255.45,-11.20
258.00,-11.31
260.58,-11.48
263.19,-11.30
265.82,-11.11
268.48,-11.46
271.16,-11.42
273.87,-11.21
276.61,-11.52
279.38,-11.58
282.17,-11.38
284.99,-11.53
287.84,-11.57
290.72,-11.42
293.63,-11.47
296.57,-11.69
299.53,-11.93
302.53,-11.69
305.55,-11.58
308.61,-11.56
311.69,-11.48
314.81,-11.24
317.96,-11.38
321.14,-11.58
324.35,-11.88
327.59,-11.66
330.87,-11.47
334.18,-11.54
337.52,-11.58
340.90,-11.57
344.30,-11.76
347.75,-11.56
351.23,-11.26
354.74,-11.57
358.28,-11.75
361.87,-11.48
365.49,-11.47
369.14,-11.47
372.83,-11.12
376.56,-11.23
380.33,-11.43
384.13,-11.45
387.97,-11.36
391.85,-10.95
395.77,-10.87
399.73,-11.05
403.72,-11.05
407.76,-10.97
411.84,-10.66
415.96,-10.55
420.12,-10.63
424.32,-10.61
428.56,-10.50
432.85,-10.43
437.18,-10.41
441.55,-10.25
445.96,-10.16
450.42,-10.14
454.93,-10.02
459.48,-9.88
464.07,-9.92
468.71,-9.94
473.40,-9.92
478.13,-9.90
482.91,-9.83
487.74,-9.60
492.62,-9.58
497.55,-9.68
502.52,-9.80
507.55,-9.64
512.62,-9.39
517.75,-9.07
522.93,-9.00
528.16,-8.82
533.44,-8.47
538.77,-8.38
544.16,-8.47
549.60,-8.45
555.10,-8.13
560.65,-7.99
566.25,-8.16
571.92,-7.95
577.64,-7.65
583.41,-7.65
589.25,-7.63
595.14,-7.57
601.09,-7.75
607.10,-7.68
613.17,-7.55
619.30,-7.50
625.50,-7.49
631.75,-7.45
638.07,-7.54
644.45,-7.60
650.89,-7.55
657.40,-7.61
663.98,-7.60
670.62,-7.37
677.32,-7.39
684.10,-7.41
690.94,-7.17
697.85,-6.75
704.83,-6.50
711.87,-6.34
718.99,-6.14
726.18,-5.78
733.44,-5.49
740.78,-5.28
748.19,-5.09
755.67,-4.86
763.23,-4.63
770.86,-4.29
778.57,-4.01
786.35,-3.83
794.22,-3.70
802.16,-3.54
810.18,-3.26
818.28,-2.90
826.46,-2.84
834.73,-2.73
843.08,-2.56
851.51,-2.35
860.02,-2.27
868.62,-2.24
877.31,-2.16
886.08,-1.90
894.94,-1.70
903.89,-1.55
912.93,-1.45
922.06,-1.26
931.28,-1.08
940.59,-1.01
950.00,-0.61
959.50,-0.52
969.09,-0.49
978.78,0.05
988.57,0.35
998.46,0.13
1008.44,-0.06
1018.53,0.15
1028.71,0.11
1039.00,0.14
1049.39,0.27
1059.88,0.34
1070.48,0.39
1081.19,0.43
1092.00,0.47
1102.92,0.41
1113.95,0.75
1125.09,1.09
1136.34,1.02
1147.70,0.62
1159.18,0.80
1170.77,1.08
1182.48,0.93
1194.30,0.58
1206.25,0.43
1218.31,0.35
1230.49,0.21
1242.80,-0.03
1255.22,-0.17
1267.78,-0.28
1280.45,-0.22
1293.26,-0.23
1306.19,-0.47
1319.25,-0.75
1332.45,-0.84
1345.77,-0.90
1359.23,-0.88
1372.82,-0.87
1386.55,-1.05
1400.41,-1.30
1414.42,-1.40
1428.56,-1.43
1442.85,-1.52
1457.28,-1.72
1471.85,-1.85
1486.57,-1.89
1501.43,-1.91
1516.45,-1.98
1531.61,-2.09
1546.93,-2.14
1562.40,-2.22
1578.02,-2.37
1593.80,-2.48
1609.74,-2.51
1625.84,-2.58
1642.10,-2.67
1658.52,-2.67
1675.10,-2.62
1691.85,-2.74
1708.77,-2.84
1725.86,-2.86
1743.12,-2.90
1760.55,-2.92
1778.15,-2.94
1795.94,-3.00
1813.90,-3.04
1832.03,-3.02
1850.36,-2.97
1868.86,-2.96
1887.55,-2.99
1906.42,-3.00
1925.49,-3.00
1944.74,-3.02
1964.19,-3.00
1983.83,-2.95
2003.67,-2.99
2023.71,-3.03
2043.94,-3.01
2064.38,-3.03
2085.03,-3.05
2105.88,-3.02
2126.94,-3.02
2148.20,-3.02
2169.69,-2.98
2191.38,-2.94
2213.30,-2.98
2235.43,-3.00
2257.78,-2.89
2280.36,-2.75
2303.17,-2.63
2326.20,-2.52
2349.46,-2.43
2372.95,-2.31
2396.68,-2.25
2420.65,-2.19
2444.86,-2.13
2469.31,-2.06
2494.00,-1.99
2518.94,-1.98
2544.13,-1.96
2569.57,-1.91
2595.27,-1.87
2621.22,-1.77
2647.43,-1.67
2673.90,-1.59
2700.64,-1.55
2727.65,-1.52
2754.93,-1.45
2782.48,-1.36
2810.30,-1.27
2838.40,-1.20
2866.79,-1.25
2895.46,-1.21
2924.41,-1.16
2953.65,-1.09
2983.19,-1.00
3013.02,-0.84
3043.15,-0.66
3073.58,-0.47
3104.32,-0.29
3135.36,-0.14
3166.72,-0.06
3198.38,-0.03
3230.37,-0.08
3262.67,-0.15
3295.30,-0.15
3328.25,-0.18
3361.53,-0.22
3395.15,-0.24
3429.10,-0.21
3463.39,-0.15
3498.03,-0.05
3533.01,0.01
3568.34,0.06
3604.02,0.14
3640.06,0.22
3676.46,0.32
3713.22,0.40
3750.36,0.47
3787.86,0.48
3825.74,0.49
3864.00,0.58
3902.64,0.73
3941.66,0.90
3981.08,1.05
4020.89,1.18
4061.10,1.37
4101.71,1.55
4142.73,1.66
4184.15,1.77
4226.00,1.79
4268.26,1.81
4310.94,1.89
4354.05,1.84
4397.59,1.84
4441.56,1.93
4485.98,2.03
4530.84,2.04
4576.15,2.04
4621.91,2.02
4668.13,1.92
4714.81,1.90
4761.96,1.87
4809.58,1.77
4857.67,1.69
4906.25,1.63
4955.31,1.56
5004.87,1.42
5054.91,1.21
5105.46,1.05
5156.52,0.71
5208.08,0.52
5260.16,0.65
5312.77,0.85
5365.89,0.71
5419.55,0.62
5473.75,0.82
5528.49,0.48
5583.77,0.10
5639.61,-0.32
5696.00,-0.83
5752.96,-1.57
5810.49,-2.13
5868.60,-2.50
5927.28,-2.92
5986.56,-3.13
6046.42,-3.37
6106.89,-3.64
6167.96,-3.85
6229.64,-4.06
6291.93,-4.13
6354.85,-4.18
6418.40,-4.27
6482.58,-4.30
6547.41,-4.39
6612.88,-4.52
6679.01,-4.40
6745.80,-4.34
6813.26,-4.15
6881.39,-4.06
6950.21,-3.84
7019.71,-3.51
7089.91,-3.23
7160.81,-2.96
7232.41,-2.68
7304.74,-2.91
7377.79,-3.45
7451.56,-4.56
7526.08,-5.45
7601.34,-6.62
7677.35,-7.37
7754.13,-7.55
7831.67,-7.70
7909.98,-7.85
7989.08,-7.68
8068.98,-7.32
8149.67,-6.94
8231.16,-6.50
8313.47,-5.85
8396.61,-5.68
8480.57,-5.44
8565.38,-5.22
8651.03,-5.70
8737.54,-7.02
8824.92,-7.75
8913.17,-8.66
9002.30,-9.79
9092.32,-11.05
9183.25,-11.58
9275.08,-11.57
9367.83,-11.78
9461.51,-11.95
9556.12,-12.23
9651.68,-12.48
9748.20,-12.28
9845.68,-11.99
9944.14,-11.70
10043.58,-11.18
10144.02,-10.05
10245.46,-9.03
10347.91,-8.22
10451.39,-7.65
10555.91,-7.24
10661.46,-6.85
10768.08,-6.57
10875.76,-6.36
10984.52,-6.25
11094.36,-6.44
11205.31,-6.53
11317.36,-6.99
11430.53,-7.43
11544.84,-8.15
11660.29,-8.78
11776.89,-9.44
11894.66,-10.09
12013.60,-10.61
12133.74,-10.92
12255.08,-11.30
12377.63,-12.00
12501.41,-12.57
12626.42,-13.39
12752.68,-14.28
12880.21,-14.76
13009.01,-14.72
13139.10,-15.18
13270.49,-15.83
13403.20,-16.64
13537.23,-17.15
13672.60,-17.64
13809.33,-18.22
13947.42,-18.43
14086.90,-19.12
14227.77,-20.05
14370.04,-21.01
14513.74,-21.58
14658.88,-21.37
14805.47,-20.99
14953.52,-20.74
15103.06,-20.42
15254.09,-20.33
15406.63,-20.56
15560.70,-20.92
15716.30,-20.70
15873.47,-19.76
16032.20,-19.34
16192.52,-19.26
16354.45,-19.18
16517.99,-17.97
16683.17,-16.36
16850.01,-15.02
17018.51,-13.72
17188.69,-14.19
17360.58,-15.61
17534.18,-17.29
17709.53,-19.35
17886.62,-21.12
18065.49,-22.45
18246.14,-23.79
18428.60,-24.64
18612.89,-24.84
18799.02,-24.51
18987.01,-24.24
19176.88,-24.83
19368.65,-25.59
19562.33,-25.36
19757.96,-24.39
19955.54,-24.88
