frequency,raw,error,smoothed,error_smoothed,equalization,parametric_eq,fixed_band_eq,equalized_raw,equalized_smoothed,target
20.00,-6.41,-5.20,-6.41,-5.21,5.19,3.94,0.93,-1.21,-1.22,-1.21
20.20,-6.29,-5.12,-6.28,-5.12,5.11,3.90,0.96,-1.17,-1.17,-1.17
20.40,-6.16,-5.04,-6.16,-5.03,5.03,3.86,0.99,-1.14,-1.13,-1.13
20.61,-6.04,-4.93,-6.04,-4.94,4.95,3.82,1.03,-1.09,-1.09,-1.11
20.81,-5.92,-4.85,-5.92,-4.85,4.86,3.78,1.06,-1.05,-1.05,-1.07
21.02,-5.80,-4.77,-5.80,-4.77,4.78,3.74,1.09,-1.02,-1.02,-1.03
21.23,-5.71,-4.69,-5.70,-4.69,4.70,3.69,1.13,-1.01,-1.01,-1.02
21.44,-5.62,-4.62,-5.61,-4.61,4.61,3.65,1.17,-1.00,-1.00,-1.00
21.66,-5.53,-4.54,-5.53,-4.53,4.53,3.60,1.20,-1.00,-1.00,-0.99
21.87,-5.43,-4.45,-5.44,-4.45,4.44,3.56,1.24,-0.99,-0.99,-0.99
22.09,-5.35,-4.37,-5.35,-4.37,4.36,3.51,1.28,-0.99,-0.99,-0.98
22.31,-5.25,-4.28,-5.26,-4.28,4.27,3.47,1.32,-0.99,-0.99,-0.98
22.54,-5.17,-4.19,-5.16,-4.18,4.18,3.42,1.37,-0.99,-0.98,-0.98
22.76,-5.08,-4.09,-5.08,-4.09,4.09,3.37,1.41,-0.98,-0.98,-0.99
22.99,-4.99,-3.99,-4.99,-3.99,4.01,3.32,1.45,-0.98,-0.99,-1.00
23.22,-4.92,-3.92,-4.92,-3.91,3.92,3.27,1.50,-0.99,-0.99,-1.00
23.45,-4.85,-3.83,-4.84,-3.83,3.84,3.22,1.55,-1.00,-1.00,-1.01
23.69,-4.78,-3.77,-4.78,-3.76,3.77,3.17,1.59,-1.01,-1.01,-1.01
23.92,-4.71,-3.69,-4.71,-3.70,3.70,3.12,1.64,-1.01,-1.01,-1.01
24.16,-4.64,-3.63,-4.64,-3.63,3.63,3.07,1.69,-1.01,-1.01,-1.00
24.40,-4.56,-3.56,-4.56,-3.56,3.55,3.02,1.74,-1.01,-1.01,-1.00
24.65,-4.49,-3.47,-4.49,-3.48,3.48,2.97,1.79,-1.01,-1.01,-1.01
24.89,-4.41,-3.40,-4.41,-3.40,3.40,2.91,1.84,-1.01,-1.01,-1.02
25.14,-4.33,-3.32,-4.33,-3.31,3.31,2.86,1.89,-1.02,-1.02,-1.02
25.39,-4.23,-3.22,-4.24,-3.22,3.21,2.80,1.94,-1.02,-1.03,-1.02
25.65,-4.15,-3.12,-4.15,-3.12,3.10,2.75,1.99,-1.04,-1.04,-1.03
25.91,-4.05,-3.01,-4.04,-3.01,2.99,2.69,2.04,-1.06,-1.06,-1.04
26.16,-3.92,-2.89,-3.92,-2.89,2.87,2.63,2.08,-1.06,-1.06,-1.04
26.43,-3.79,-2.75,-3.78,-2.74,2.74,2.58,2.13,-1.04,-1.04,-1.04
26.69,-3.65,-2.61,-3.64,-2.60,2.63,2.52,2.17,-1.02,-1.02,-1.04
26.96,-3.50,-2.45,-3.52,-2.47,2.51,2.46,2.22,-0.99,-1.01,-1.05
27.23,-3.42,-2.37,-3.41,-2.36,2.39,2.40,2.26,-1.03,-1.03,-1.05
27.50,-3.34,-2.28,-3.33,-2.28,2.27,2.34,2.30,-1.07,-1.07,-1.05
27.77,-3.26,-2.19,-3.26,-2.20,2.16,2.27,2.33,-1.10,-1.10,-1.06
28.05,-3.18,-2.11,-3.17,-2.10,2.07,2.21,2.37,-1.11,-1.10,-1.06
28.33,-3.07,-1.99,-3.06,-1.99,1.99,2.15,2.40,-1.07,-1.07,-1.08
28.62,-2.96,-1.88,-2.96,-1.88,1.94,2.08,2.42,-1.02,-1.02,-1.08
28.90,-2.86,-1.78,-2.87,-1.80,1.88,2.02,2.44,-0.97,-0.99,-1.08
29.19,-2.83,-1.75,-2.84,-1.76,1.82,1.95,2.46,-1.01,-1.02,-1.08
29.48,-2.84,-1.77,-2.85,-1.77,1.75,1.89,2.47,-1.08,-1.10,-1.07
29.78,-2.86,-1.78,-2.85,-1.77,1.67,1.82,2.48,-1.18,-1.17,-1.08
30.08,-2.83,-1.75,-2.78,-1.71,1.59,1.75,2.48,-1.23,-1.19,-1.07
30.38,-2.65,-1.56,-2.65,-1.56,1.50,1.69,2.47,-1.14,-1.15,-1.09
30.68,-2.47,-1.37,-2.48,-1.39,1.40,1.62,2.46,-1.06,-1.08,-1.09
30.99,-2.30,-1.19,-2.32,-1.22,1.29,1.55,2.44,-1.01,-1.03,-1.11
31.30,-2.22,-1.11,-2.21,-1.11,1.17,1.48,2.42,-1.05,-1.04,-1.11
31.61,-2.14,-1.03,-2.13,-1.02,1.04,1.40,2.39,-1.09,-1.09,-1.11
31.93,-2.07,-0.94,-2.06,-0.94,0.92,1.33,2.35,-1.15,-1.14,-1.13
32.24,-1.97,-0.83,-1.97,-0.84,0.81,1.26,2.30,-1.17,-1.16,-1.14
32.57,-1.88,-0.73,-1.88,-0.73,0.71,1.18,2.25,-1.17,-1.17,-1.14
32.89,-1.78,-0.62,-1.78,-0.63,0.62,1.11,2.20,-1.15,-1.16,-1.15
33.22,-1.70,-0.52,-1.69,-0.52,0.54,1.03,2.14,-1.16,-1.16,-1.18
33.55,-1.62,-0.44,-1.61,-0.43,0.45,0.96,2.07,-1.17,-1.16,-1.18
33.89,-1.54,-0.34,-1.54,-0.34,0.36,0.88,1.99,-1.18,-1.18,-1.20
34.23,-1.47,-0.26,-1.47,-0.27,0.27,0.80,1.92,-1.20,-1.21,-1.20
34.57,-1.42,-0.19,-1.42,-0.19,0.18,0.72,1.83,-1.24,-1.24,-1.22
34.92,-1.36,-0.12,-1.35,-0.12,0.09,0.64,1.75,-1.27,-1.26,-1.24
35.27,-1.27,-0.03,-1.26,-0.01,-0.00,0.56,1.66,-1.27,-1.26,-1.24
35.62,-1.16,0.10,-1.16,0.10,-0.10,0.48,1.56,-1.25,-1.26,-1.26
35.97,-1.05,0.23,-1.06,0.21,-0.20,0.40,1.46,-1.25,-1.26,-1.27
36.33,-0.97,0.31,-0.97,0.31,-0.31,0.32,1.36,-1.28,-1.28,-1.28
36.70,-0.89,0.40,-0.89,0.40,-0.42,0.24,1.26,-1.31,-1.31,-1.29
37.06,-0.80,0.50,-0.79,0.50,-0.53,0.15,1.15,-1.34,-1.32,-1.30
37.43,-0.68,0.61,-0.68,0.62,-0.62,0.07,1.04,-1.31,-1.30,-1.29
37.81,-0.56,0.75,-0.57,0.73,-0.70,-0.02,0.93,-1.26,-1.27,-1.31
38.19,-0.48,0.84,-0.48,0.83,-0.77,-0.10,0.82,-1.25,-1.25,-1.32
38.57,-0.44,0.88,-0.43,0.89,-0.83,-0.19,0.70,-1.27,-1.26,-1.31
38.95,-0.40,0.93,-0.41,0.91,-0.90,-0.28,0.58,-1.30,-1.31,-1.32
39.34,-0.41,0.92,-0.42,0.91,-0.97,-0.37,0.47,-1.38,-1.39,-1.33
39.74,-0.42,0.93,-0.40,0.94,-1.03,-0.46,0.35,-1.44,-1.43,-1.34
40.14,-0.37,0.98,-0.32,1.02,-1.07,-0.54,0.23,-1.44,-1.39,-1.34
40.54,-0.21,1.14,-0.20,1.15,-1.11,-0.64,0.11,-1.32,-1.32,-1.35
40.94,-0.04,1.32,-0.10,1.25,-1.16,-0.73,-0.01,-1.20,-1.27,-1.35
41.35,-0.06,1.31,-0.06,1.30,-1.22,-0.82,-0.14,-1.28,-1.28,-1.37
41.76,-0.10,1.28,-0.07,1.31,-1.30,-0.91,-0.26,-1.39,-1.37,-1.38
42.18,-0.10,1.29,-0.09,1.29,-1.38,-1.00,-0.39,-1.47,-1.47,-1.38
42.60,-0.05,1.35,-0.06,1.34,-1.45,-1.09,-0.51,-1.49,-1.50,-1.40
43.03,0.01,1.42,0.06,1.47,-1.51,-1.19,-0.64,-1.50,-1.45,-1.40
43.46,0.19,1.62,0.20,1.63,-1.58,-1.28,-0.76,-1.38,-1.37,-1.43
43.90,0.38,1.83,0.30,1.75,-1.66,-1.38,-0.89,-1.28,-1.36,-1.45
44.33,0.36,1.83,0.34,1.81,-1.76,-1.47,-1.02,-1.40,-1.42,-1.47
44.78,0.29,1.79,0.34,1.83,-1.86,-1.57,-1.14,-1.57,-1.52,-1.49
45.23,0.33,1.84,0.37,1.88,-1.96,-1.66,-1.27,-1.63,-1.59,-1.51
45.68,0.49,2.02,0.48,2.00,-2.05,-1.76,-1.40,-1.56,-1.57,-1.52
46.13,0.64,2.18,0.62,2.16,-2.13,-1.85,-1.53,-1.48,-1.51,-1.54
46.60,0.72,2.27,0.73,2.28,-2.21,-1.95,-1.66,-1.49,-1.48,-1.55
47.06,0.80,2.36,0.78,2.34,-2.30,-2.05,-1.80,-1.50,-1.52,-1.55
47.53,0.82,2.38,0.82,2.38,-2.40,-2.14,-1.93,-1.57,-1.58,-1.56
48.01,0.83,2.40,0.87,2.44,-2.49,-2.24,-2.06,-1.65,-1.62,-1.56
48.49,0.94,2.53,0.94,2.52,-2.57,-2.34,-2.19,-1.62,-1.62,-1.58
48.97,1.05,2.65,1.04,2.64,-2.63,-2.43,-2.33,-1.58,-1.59,-1.60
49.46,1.13,2.74,1.14,2.75,-2.69,-2.53,-2.46,-1.56,-1.55,-1.61
49.96,1.21,2.84,1.19,2.80,-2.75,-2.63,-2.59,-1.54,-1.57,-1.62
50.46,1.21,2.83,1.21,2.82,-2.82,-2.72,-2.73,-1.60,-1.61,-1.61
50.96,1.19,2.81,1.23,2.85,-2.88,-2.82,-2.86,-1.69,-1.65,-1.62
51.47,1.27,2.90,1.27,2.90,-2.94,-2.91,-2.99,-1.67,-1.67,-1.63
51.99,1.36,3.00,1.36,2.99,-3.01,-3.01,-3.12,-1.64,-1.65,-1.64
52.51,1.44,3.08,1.44,3.08,-3.08,-3.10,-3.25,-1.63,-1.63,-1.64
53.03,1.52,3.16,1.50,3.14,-3.15,-3.19,-3.38,-1.63,-1.65,-1.64
53.56,1.55,3.20,1.56,3.21,-3.23,-3.28,-3.51,-1.67,-1.67,-1.65
54.10,1.60,3.26,1.66,3.31,-3.31,-3.38,-3.63,-1.71,-1.65,-1.66
54.64,1.78,3.44,1.76,3.42,-3.39,-3.47,-3.75,-1.61,-1.63,-1.66
55.18,1.89,3.56,1.85,3.51,-3.48,-3.56,-3.87,-1.59,-1.63,-1.67
55.74,1.88,3.56,1.89,3.56,-3.56,-3.64,-3.99,-1.67,-1.67,-1.68
56.29,1.88,3.56,1.89,3.58,-3.62,-3.73,-4.10,-1.74,-1.73,-1.68
56.86,1.90,3.60,1.95,3.64,-3.67,-3.82,-4.20,-1.77,-1.72,-1.70
57.42,2.01,3.73,2.03,3.74,-3.70,-3.90,-4.31,-1.69,-1.68,-1.71
58.00,2.15,3.88,2.08,3.81,-3.73,-3.98,-4.40,-1.58,-1.65,-1.73
58.58,2.08,3.82,2.08,3.82,-3.76,-4.06,-4.49,-1.68,-1.68,-1.74
59.16,2.01,3.77,2.02,3.78,-3.80,-4.14,-4.58,-1.78,-1.77,-1.75
59.76,1.95,3.73,1.99,3.76,-3.84,-4.22,-4.66,-1.89,-1.86,-1.78
60.35,1.99,3.79,2.02,3.82,-3.89,-4.29,-4.73,-1.90,-1.88,-1.80
60.96,2.12,3.95,2.08,3.91,-3.94,-4.36,-4.79,-1.82,-1.86,-1.82
61.57,2.16,4.03,2.16,4.03,-4.00,-4.43,-4.85,-1.84,-1.84,-1.87
62.18,2.20,4.11,2.22,4.12,-4.08,-4.50,-4.90,-1.88,-1.87,-1.91
62.80,2.25,4.20,2.25,4.20,-4.17,-4.57,-4.94,-1.92,-1.92,-1.94
63.43,2.29,4.27,2.29,4.26,-4.27,-4.63,-4.97,-1.98,-1.98,-1.98
64.07,2.32,4.34,2.31,4.32,-4.35,-4.69,-5.00,-2.03,-2.04,-2.02
64.71,2.32,4.38,2.36,4.41,-4.41,-4.75,-5.02,-2.09,-2.05,-2.05
65.35,2.39,4.48,2.42,4.51,-4.46,-4.80,-5.03,-2.07,-2.04,-2.08
66.01,2.53,4.65,2.46,4.58,-4.52,-4.86,-5.04,-1.98,-2.06,-2.12
66.67,2.44,4.60,2.43,4.58,-4.57,-4.91,-5.04,-2.12,-2.14,-2.16
67.33,2.36,4.55,2.39,4.58,-4.62,-4.95,-5.03,-2.25,-2.23,-2.19
68.01,2.30,4.53,2.37,4.60,-4.67,-5.00,-5.02,-2.36,-2.30,-2.23
68.69,2.45,4.72,2.42,4.69,-4.72,-5.04,-5.01,-2.27,-2.30,-2.27
69.37,2.52,4.83,2.49,4.80,-4.79,-5.08,-4.99,-2.26,-2.30,-2.31
70.07,2.52,4.88,2.53,4.88,-4.86,-5.11,-4.97,-2.33,-2.33,-2.35
70.77,2.52,4.91,2.53,4.92,-4.94,-5.14,-4.94,-2.41,-2.41,-2.38
71.48,2.54,4.97,2.57,5.00,-5.02,-5.17,-4.92,-2.47,-2.45,-2.43
72.19,2.60,5.07,2.62,5.10,-5.09,-5.20,-4.89,-2.49,-2.47,-2.47
72.91,2.72,5.25,2.66,5.18,-5.15,-5.22,-4.85,-2.43,-2.50,-2.52
73.64,2.65,5.22,2.67,5.24,-5.20,-5.24,-4.82,-2.54,-2.53,-2.57
74.38,2.61,5.23,2.64,5.26,-5.22,-5.26,-4.79,-2.61,-2.58,-2.61
75.12,2.60,5.26,2.58,5.24,-5.23,-5.28,-4.76,-2.63,-2.65,-2.66
75.87,2.53,5.23,2.53,5.23,-5.23,-5.29,-4.73,-2.70,-2.70,-2.70
76.63,2.46,5.20,2.49,5.23,-5.22,-5.30,-4.70,-2.76,-2.73,-2.73
77.40,2.43,5.20,2.42,5.19,-5.21,-5.31,-4.67,-2.78,-2.79,-2.77
78.17,2.39,5.20,2.35,5.15,-5.20,-5.31,-4.64,-2.80,-2.85,-2.81
78.95,2.25,5.09,2.30,5.13,-5.18,-5.32,-4.61,-2.92,-2.88,-2.84
79.74,2.23,5.10,2.27,5.14,-5.15,-5.32,-4.59,-2.92,-2.88,-2.87
80.54,2.28,5.18,2.26,5.16,-5.12,-5.32,-4.57,-2.84,-2.86,-2.90
81.35,2.27,5.20,2.23,5.16,-5.09,-5.32,-4.55,-2.82,-2.86,-2.93
82.16,2.15,5.11,2.13,5.09,-5.05,-5.31,-4.54,-2.89,-2.91,-2.96
82.98,1.96,4.94,2.00,4.99,-5.00,-5.30,-4.52,-3.03,-3.00,-2.98
83.81,1.86,4.88,1.89,4.91,-4.94,-5.30,-4.51,-3.08,-3.05,-3.02
84.65,1.83,4.89,1.81,4.86,-4.88,-5.29,-4.51,-3.05,-3.07,-3.05
85.50,1.77,4.85,1.75,4.83,-4.82,-5.28,-4.50,-3.05,-3.07,-3.07
86.35,1.66,4.77,1.69,4.80,-4.78,-5.26,-4.50,-3.11,-3.09,-3.11
87.22,1.57,4.72,1.55,4.69,-4.74,-5.25,-4.51,-3.17,-3.19,-3.14
88.09,1.51,4.69,1.48,4.65,-4.71,-5.24,-4.52,-3.20,-3.23,-3.18
88.97,1.31,4.51,1.48,4.68,-4.68,-5.22,-4.53,-3.37,-3.20,-3.20
89.86,1.57,4.81,1.47,4.70,-4.65,-5.21,-4.54,-3.08,-3.19,-3.23
90.76,1.50,4.77,1.44,4.70,-4.63,-5.19,-4.56,-3.12,-3.19,-3.27
91.66,1.31,4.61,1.37,4.67,-4.60,-5.17,-4.58,-3.29,-3.23,-3.30
92.58,1.22,4.56,1.22,4.55,-4.59,-5.15,-4.61,-3.36,-3.37,-3.33
93.51,1.13,4.49,1.17,4.52,-4.59,-5.13,-4.63,-3.45,-3.42,-3.36
94.44,1.15,4.54,1.17,4.56,-4.59,-5.11,-4.66,-3.44,-3.42,-3.38
95.39,1.24,4.65,1.17,4.58,-4.61,-5.09,-4.70,-3.36,-3.44,-3.41
96.34,1.16,4.61,1.17,4.61,-4.64,-5.07,-4.74,-3.47,-3.47,-3.45
97.30,1.13,4.61,1.19,4.66,-4.68,-5.05,-4.78,-3.54,-3.49,-3.48
98.28,1.21,4.72,1.25,4.75,-4.73,-5.03,-4.82,-3.52,-3.49,-3.50
99.26,1.36,4.89,1.30,4.83,-4.80,-5.01,-4.86,-3.43,-3.49,-3.52
100.25,1.40,4.95,1.34,4.89,-4.85,-4.99,-4.91,-3.45,-3.51,-3.55
101.25,1.24,4.82,1.35,4.92,-4.90,-4.97,-4.96,-3.65,-3.55,-3.58
102.27,1.34,4.95,1.33,4.94,-4.94,-4.95,-5.01,-3.60,-3.61,-3.61
103.29,1.35,5.01,1.31,4.96,-4.98,-4.93,-5.07,-3.63,-3.67,-3.65
104.32,1.32,5.00,1.32,5.00,-5.01,-4.92,-5.12,-3.69,-3.69,-3.67
105.37,1.26,4.97,1.32,5.03,-5.04,-4.90,-5.17,-3.77,-3.72,-3.71
106.42,1.33,5.07,1.32,5.06,-5.06,-4.88,-5.23,-3.73,-3.74,-3.74
107.48,1.36,5.14,1.32,5.10,-5.08,-4.86,-5.28,-3.72,-3.76,-3.78
108.56,1.28,5.10,1.30,5.11,-5.10,-4.84,-5.33,-3.81,-3.80,-3.82
109.64,1.23,5.09,1.25,5.10,-5.11,-4.82,-5.39,-3.87,-3.86,-3.85
110.74,1.21,5.10,1.21,5.10,-5.11,-4.81,-5.43,-3.90,-3.90,-3.88
111.85,1.20,5.11,1.21,5.13,-5.11,-4.79,-5.48,-3.91,-3.90,-3.91
112.97,1.19,5.15,1.18,5.12,-5.11,-4.78,-5.52,-3.92,-3.94,-3.96
114.10,1.16,5.14,1.12,5.10,-5.10,-4.76,-5.57,-3.94,-3.99,-3.98
115.24,1.00,5.02,1.07,5.08,-5.10,-4.75,-5.60,-4.09,-4.02,-4.01
116.39,1.03,5.07,1.05,5.09,-5.09,-4.73,-5.63,-4.06,-4.04,-4.04
117.55,1.07,5.14,1.02,5.09,-5.09,-4.72,-5.66,-4.02,-4.07,-4.07
118.73,1.03,5.13,1.00,5.09,-5.09,-4.71,-5.68,-4.06,-4.09,-4.09
119.92,0.90,5.00,0.97,5.07,-5.09,-4.70,-5.69,-4.18,-4.12,-4.10
121.12,0.94,5.07,0.96,5.08,-5.08,-4.69,-5.70,-4.14,-4.12,-4.12
122.33,0.99,5.13,0.96,5.10,-5.08,-4.68,-5.70,-4.09,-4.12,-4.14
123.55,1.00,5.15,0.95,5.10,-5.07,-4.68,-5.69,-4.07,-4.13,-4.14
124.79,0.86,5.03,0.91,5.08,-5.06,-4.67,-5.67,-4.20,-4.15,-4.17
126.03,0.82,5.01,0.88,5.06,-5.06,-4.67,-5.65,-4.24,-4.18,-4.18
127.29,0.90,5.10,0.83,5.03,-5.06,-4.66,-5.62,-4.16,-4.23,-4.20
128.57,0.84,5.06,0.82,5.03,-5.07,-4.66,-5.59,-4.23,-4.25,-4.22
129.85,0.72,4.96,0.81,5.04,-5.07,-4.66,-5.54,-4.35,-4.26,-4.23
131.15,0.82,5.07,0.81,5.06,-5.07,-4.66,-5.49,-4.25,-4.26,-4.25
132.46,0.86,5.12,0.84,5.09,-5.07,-4.67,-5.43,-4.20,-4.23,-4.26
133.79,0.86,5.12,0.85,5.12,-5.05,-4.67,-5.37,-4.19,-4.20,-4.26
135.12,0.79,5.08,0.82,5.10,-5.04,-4.68,-5.29,-4.24,-4.22,-4.29
136.48,0.74,5.03,0.75,5.04,-5.02,-4.68,-5.22,-4.28,-4.27,-4.29
137.84,0.70,5.01,0.64,4.96,-5.00,-4.69,-5.14,-4.29,-4.35,-4.31
139.22,0.54,4.88,0.58,4.92,-4.97,-4.70,-5.05,-4.43,-4.39,-4.34
140.61,0.47,4.83,0.55,4.90,-4.95,-4.72,-4.96,-4.47,-4.40,-4.36
142.02,0.61,4.97,0.54,4.90,-4.92,-4.73,-4.87,-4.31,-4.38,-4.36
143.44,0.56,4.94,0.55,4.93,-4.90,-4.75,-4.78,-4.34,-4.35,-4.37
144.87,0.51,4.91,0.54,4.93,-4.89,-4.76,-4.68,-4.38,-4.35,-4.40
146.32,0.48,4.91,0.47,4.90,-4.89,-4.78,-4.58,-4.40,-4.41,-4.43
147.78,0.42,4.88,0.43,4.89,-4.89,-4.80,-4.48,-4.46,-4.46,-4.45
149.26,0.38,4.87,0.38,4.87,-4.89,-4.82,-4.38,-4.51,-4.51,-4.49
150.75,0.33,4.88,0.33,4.86,-4.89,-4.84,-4.28,-4.56,-4.56,-4.54
152.26,0.26,4.85,0.27,4.86,-4.89,-4.86,-4.18,-4.63,-4.62,-4.59
153.78,0.22,4.86,0.22,4.87,-4.89,-4.87,-4.08,-4.66,-4.66,-4.64
155.32,0.16,4.87,0.17,4.87,-4.87,-4.89,-3.98,-4.71,-4.70,-4.70
156.88,0.13,4.89,0.12,4.88,-4.85,-4.91,-3.87,-4.72,-4.73,-4.76
158.44,0.03,4.86,0.04,4.86,-4.81,-4.92,-3.78,-4.77,-4.77,-4.83
160.03,-0.07,4.82,-0.07,4.81,-4.75,-4.93,-3.68,-4.82,-4.83,-4.89
161.63,-0.23,4.71,-0.22,4.73,-4.69,-4.93,-3.58,-4.91,-4.91,-4.94
163.24,-0.37,4.63,-0.38,4.61,-4.62,-4.93,-3.49,-4.98,-5.00,-5.00
164.88,-0.54,4.49,-0.53,4.50,-4.55,-4.92,-3.39,-5.08,-5.08,-5.03
166.53,-0.67,4.40,-0.65,4.42,-4.48,-4.91,-3.30,-5.14,-5.13,-5.07
168.19,-0.73,4.37,-0.73,4.37,-4.42,-4.89,-3.21,-5.15,-5.15,-5.10
169.87,-0.76,4.37,-0.76,4.37,-4.39,-4.86,-3.12,-5.15,-5.15,-5.13
171.57,-0.77,4.38,-0.77,4.37,-4.38,-4.82,-3.04,-5.15,-5.15,-5.14
173.29,-0.77,4.39,-0.77,4.38,-4.38,-4.78,-2.96,-5.15,-5.16,-5.15
175.02,-0.78,4.38,-0.78,4.38,-4.39,-4.73,-2.88,-5.17,-5.17,-5.16
176.77,-0.78,4.39,-0.77,4.40,-4.39,-4.67,-2.80,-5.17,-5.16,-5.16
178.54,-0.78,4.39,-0.73,4.43,-4.38,-4.59,-2.72,-5.16,-5.11,-5.17
180.32,-0.68,4.48,-0.73,4.43,-4.37,-4.52,-2.64,-5.04,-5.09,-5.16
182.13,-0.73,4.42,-0.79,4.37,-4.33,-4.43,-2.57,-5.06,-5.12,-5.15
183.95,-0.92,4.24,-0.87,4.29,-4.29,-4.34,-2.50,-5.21,-5.16,-5.15
185.79,-1.02,4.14,-0.96,4.20,-4.25,-4.24,-2.43,-5.26,-5.21,-5.16
187.65,-0.98,4.20,-1.02,4.14,-4.20,-4.14,-2.36,-5.17,-5.22,-5.17
189.52,-1.05,4.13,-1.04,4.14,-4.15,-4.02,-2.30,-5.19,-5.19,-5.18
191.42,-1.10,4.09,-1.09,4.10,-4.09,-3.91,-2.24,-5.19,-5.18,-5.19
193.33,-1.14,4.06,-1.18,4.02,-4.04,-3.79,-2.18,-5.18,-5.22,-5.20
195.27,-1.28,3.94,-1.22,3.99,-3.98,-3.68,-2.12,-5.26,-5.21,-5.21
197.22,-1.31,3.93,-1.28,3.95,-3.92,-3.56,-2.06,-5.23,-5.21,-5.23
199.19,-1.30,3.96,-1.37,3.88,-3.85,-3.43,-2.00,-5.15,-5.22,-5.25
201.18,-1.49,3.78,-1.47,3.80,-3.77,-3.31,-1.95,-5.26,-5.24,-5.27
203.19,-1.64,3.64,-1.62,3.66,-3.67,-3.19,-1.90,-5.31,-5.29,-5.28
205.23,-1.77,3.54,-1.77,3.52,-3.57,-3.07,-1.85,-5.34,-5.34,-5.31
207.28,-1.92,3.39,-1.88,3.43,-3.46,-2.95,-1.80,-5.37,-5.34,-5.31
209.35,-1.98,3.36,-2.00,3.34,-3.34,-2.83,-1.75,-5.31,-5.33,-5.34
211.44,-2.11,3.25,-2.13,3.22,-3.21,-2.71,-1.70,-5.31,-5.33,-5.35
213.56,-2.31,3.06,-2.29,3.07,-3.07,-2.59,-1.66,-5.37,-5.36,-5.36
215.69,-2.47,2.91,-2.48,2.90,-2.90,-2.48,-1.62,-5.37,-5.38,-5.37
217.85,-2.69,2.69,-2.65,2.74,-2.73,-2.37,-1.57,-5.42,-5.38,-5.38
220.03,-2.81,2.59,-2.82,2.58,-2.54,-2.25,-1.53,-5.34,-5.35,-5.40
222.23,-2.99,2.42,-3.02,2.38,-2.33,-2.15,-1.49,-5.31,-5.35,-5.41
224.45,-3.27,2.13,-3.28,2.12,-2.11,-2.04,-1.46,-5.37,-5.38,-5.39
226.70,-3.56,1.84,-3.55,1.84,-1.87,-1.93,-1.42,-5.43,-5.43,-5.39
228.96,-3.86,1.53,-3.79,1.59,-1.63,-1.83,-1.38,-5.48,-5.42,-5.39
231.25,-3.97,1.41,-3.97,1.40,-1.38,-1.73,-1.35,-5.35,-5.35,-5.37
233.57,-4.12,1.25,-4.17,1.19,-1.15,-1.63,-1.32,-5.27,-5.32,-5.36
235.90,-4.34,1.01,-4.38,0.97,-0.94,-1.54,-1.28,-5.28,-5.32,-5.35
238.26,-4.67,0.66,-4.58,0.74,-0.78,-1.45,-1.25,-5.44,-5.36,-5.32
240.64,-4.76,0.54,-4.76,0.53,-0.64,-1.35,-1.22,-5.40,-5.41,-5.30
243.05,-4.80,0.47,-4.84,0.43,-0.54,-1.26,-1.19,-5.34,-5.38,-5.26
245.48,-4.89,0.35,-4.80,0.44,-0.46,-1.18,-1.16,-5.34,-5.26,-5.24
247.93,-4.74,0.48,-4.78,0.44,-0.39,-1.09,-1.13,-5.13,-5.17,-5.22
250.41,-4.70,0.50,-4.76,0.43,-0.35,-1.01,-1.11,-5.05,-5.12,-5.20
252.92,-4.82,0.35,-4.76,0.41,-0.33,-0.93,-1.08,-5.15,-5.09,-5.17
255.45,-4.81,0.33,-4.80,0.35,-0.33,-0.85,-1.06,-5.13,-5.13,-5.14
258.00,-4.81,0.32,-4.83,0.29,-0.33,-0.77,-1.03,-5.13,-5.16,-5.12
260.58,-4.82,0.29,-4.82,0.28,-0.32,-0.70,-1.01,-5.14,-5.14,-5.11
263.19,-4.83,0.26,-4.80,0.29,-0.32,-0.62,-0.99,-5.15,-5.12,-5.08
265.82,-4.76,0.31,-4.75,0.32,-0.33,-0.55,-0.96,-5.08,-5.07,-5.07
268.48,-4.66,0.39,-4.69,0.35,-0.35,-0.48,-0.94,-5.00,-5.04,-5.04
271.16,-4.63,0.39,-4.63,0.39,-0.38,-0.42,-0.92,-5.01,-5.01,-5.02
273.87,-4.62,0.38,-4.58,0.41,-0.41,-0.35,-0.90,-5.03,-5.00,-5.00
276.61,-4.53,0.45,-4.53,0.44,-0.44,-0.29,-0.88,-4.97,-4.97,-4.97
279.38,-4.46,0.49,-4.47,0.47,-0.46,-0.23,-0.86,-4.92,-4.94,-4.95
282.17,-4.43,0.50,-4.43,0.49,-0.47,-0.17,-0.84,-4.89,-4.90,-4.93
284.99,-4.43,0.47,-4.41,0.49,-0.46,-0.11,-0.82,-4.89,-4.87,-4.89
287.84,-4.41,0.46,-4.39,0.47,-0.45,-0.06,-0.81,-4.85,-4.84,-4.87
290.72,-4.37,0.46,-4.42,0.41,-0.42,-0.01,-0.79,-4.79,-4.85,-4.83
293.63,-4.44,0.36,-4.43,0.37,-0.39,0.04,-0.77,-4.83,-4.82,-4.80
296.57,-4.52,0.25,-4.43,0.34,-0.35,0.09,-0.76,-4.87,-4.79,-4.76
299.53,-4.38,0.37,-4.45,0.29,-0.31,0.13,-0.74,-4.69,-4.76,-4.75
302.53,-4.43,0.29,-4.43,0.29,-0.27,0.18,-0.72,-4.70,-4.70,-4.72
305.55,-4.48,0.21,-4.44,0.25,-0.23,0.22,-0.71,-4.71,-4.67,-4.68
308.61,-4.44,0.23,-4.49,0.17,-0.18,0.26,-0.69,-4.62,-4.68,-4.66
311.69,-4.58,0.07,-4.51,0.13,-0.14,0.30,-0.68,-4.71,-4.64,-4.65
314.81,-4.51,0.10,-4.53,0.09,-0.09,0.33,-0.67,-4.59,-4.62,-4.61
317.96,-4.53,0.07,-4.56,0.04,-0.04,0.36,-0.65,-4.56,-4.60,-4.60
321.14,-4.62,-0.03,-4.57,0.01,0.02,0.39,-0.64,-4.60,-4.55,-4.58
324.35,-4.63,-0.05,-4.66,-0.09,0.08,0.42,-0.63,-4.55,-4.58,-4.57
327.59,-4.71,-0.15,-4.76,-0.20,0.15,0.44,-0.61,-4.56,-4.61,-4.56
330.87,-4.88,-0.33,-4.76,-0.21,0.22,0.47,-0.60,-4.66,-4.54,-4.55
334.18,-4.82,-0.28,-4.77,-0.23,0.29,0.49,-0.59,-4.53,-4.48,-4.54
337.52,-4.65,-0.11,-4.87,-0.34,0.35,0.50,-0.58,-4.29,-4.52,-4.53
340.90,-4.99,-0.47,-4.96,-0.44,0.43,0.52,-0.57,-4.56,-4.53,-4.51
344.30,-5.26,-0.75,-5.03,-0.52,0.50,0.53,-0.56,-4.76,-4.53,-4.50
347.75,-5.01,-0.51,-5.09,-0.60,0.56,0.54,-0.54,-4.45,-4.53,-4.50
351.23,-4.98,-0.49,-5.11,-0.62,0.62,0.55,-0.53,-4.35,-4.49,-4.49
354.74,-5.20,-0.71,-5.16,-0.67,0.70,0.56,-0.52,-4.50,-4.46,-4.49
358.28,-5.36,-0.88,-5.25,-0.76,0.77,0.56,-0.51,-4.58,-4.47,-4.48
361.87,-5.31,-0.82,-5.32,-0.84,0.85,0.57,-0.50,-4.46,-4.47,-4.48
365.49,-5.24,-0.76,-5.36,-0.88,0.92,0.57,-0.49,-4.32,-4.44,-4.47
369.14,-5.48,-1.00,-5.40,-0.93,0.99,0.56,-0.49,-4.49,-4.42,-4.47
372.83,-5.54,-1.06,-5.53,-1.05,1.05,0.56,-0.48,-4.49,-4.48,-4.48
376.56,-5.58,-1.10,-5.64,-1.17,1.10,0.55,-0.47,-4.47,-4.54,-4.48
380.33,-5.73,-1.27,-5.65,-1.18,1.14,0.54,-0.46,-4.59,-4.51,-4.46
384.13,-5.66,-1.19,-5.63,-1.16,1.15,0.53,-0.45,-4.50,-4.48,-4.47
387.97,-5.52,-1.05,-5.61,-1.15,1.14,0.52,-0.44,-4.37,-4.47,-4.47
391.85,-5.57,-1.10,-5.56,-1.09,1.11,0.51,-0.44,-4.46,-4.45,-4.47
395.77,-5.59,-1.12,-5.51,-1.05,1.04,0.49,-0.43,-4.55,-4.47,-4.46
399.73,-5.43,-0.96,-5.46,-0.99,0.94,0.47,-0.42,-4.48,-4.52,-4.46
403.72,-5.32,-0.84,-5.35,-0.88,0.84,0.45,-0.42,-4.48,-4.51,-4.47
407.76,-5.25,-0.77,-5.20,-0.73,0.74,0.43,-0.41,-4.51,-4.46,-4.47
411.84,-5.08,-0.61,-5.06,-0.59,0.63,0.41,-0.41,-4.44,-4.43,-4.46
415.96,-4.89,-0.41,-4.95,-0.48,0.53,0.38,-0.40,-4.36,-4.43,-4.48
420.12,-4.87,-0.39,-4.86,-0.39,0.43,0.36,-0.40,-4.43,-4.43,-4.48
424.32,-4.85,-0.38,-4.80,-0.33,0.35,0.33,-0.40,-4.50,-4.46,-4.47
428.56,-4.74,-0.27,-4.75,-0.28,0.27,0.30,-0.39,-4.47,-4.48,-4.47
432.85,-4.66,-0.21,-4.66,-0.22,0.20,0.27,-0.39,-4.46,-4.47,-4.45
437.18,-4.58,-0.15,-4.58,-0.15,0.14,0.23,-0.39,-4.44,-4.44,-4.43
441.55,-4.50,-0.11,-4.49,-0.10,0.08,0.20,-0.39,-4.41,-4.41,-4.39
445.96,-4.41,-0.05,-4.40,-0.03,0.03,0.16,-0.39,-4.38,-4.37,-4.36
