frequency,raw,error,smoothed,error_smoothed,equalization,parametric_eq,fixed_band_eq,equalized_raw,equalized_smoothed,target
20.00,14.38,3.38,14.38,3.39,-3.38,-3.87,-1.72,11.00,11.00,11.00
20.20,14.39,3.42,14.39,3.42,-3.42,-3.87,-1.77,10.97,10.97,10.97
20.40,14.40,3.45,14.40,3.45,-3.45,-3.87,-1.82,10.95,10.95,10.95
20.61,14.41,3.48,14.41,3.49,-3.49,-3.88,-1.88,10.93,10.93,10.93
20.81,14.42,3.52,14.42,3.51,-3.52,-3.88,-1.93,10.90,10.90,10.91
21.02,14.43,3.55,14.43,3.55,-3.55,-3.88,-1.99,10.88,10.88,10.89
21.23,14.44,3.58,14.45,3.58,-3.58,-3.89,-2.04,10.86,10.86,10.87
21.44,14.46,3.62,14.46,3.61,-3.61,-3.89,-2.10,10.85,10.85,10.85
21.66,14.47,3.65,14.47,3.64,-3.64,-3.89,-2.16,10.83,10.83,10.83
21.87,14.48,3.67,14.48,3.67,-3.67,-3.89,-2.23,10.81,10.81,10.81
22.09,14.49,3.70,14.50,3.70,-3.70,-3.90,-2.29,10.79,10.80,10.79
22.31,14.51,3.73,14.51,3.73,-3.73,-3.90,-2.36,10.79,10.78,10.78
22.54,14.52,3.75,14.52,3.75,-3.75,-3.90,-2.42,10.77,10.77,10.77
22.76,14.53,3.77,14.53,3.77,-3.77,-3.91,-2.49,10.76,10.76,10.76
22.99,14.54,3.79,14.54,3.79,-3.79,-3.91,-2.56,10.75,10.75,10.75
23.22,14.55,3.81,14.55,3.81,-3.81,-3.91,-2.64,10.74,10.74,10.74
23.45,14.56,3.83,14.56,3.83,-3.83,-3.92,-2.71,10.73,10.73,10.73
23.69,14.57,3.85,14.57,3.85,-3.85,-3.92,-2.78,10.72,10.72,10.72
23.92,14.58,3.86,14.58,3.87,-3.87,-3.92,-2.86,10.72,10.72,10.72
24.16,14.59,3.89,14.59,3.88,-3.88,-3.93,-2.94,10.71,10.71,10.71
24.40,14.60,3.90,14.60,3.90,-3.90,-3.93,-3.02,10.70,10.70,10.71
24.65,14.61,3.92,14.61,3.91,-3.92,-3.94,-3.10,10.70,10.70,10.70
24.89,14.62,3.93,14.62,3.93,-3.93,-3.94,-3.18,10.69,10.69,10.70
25.14,14.63,3.95,14.63,3.95,-3.95,-3.94,-3.26,10.68,10.68,10.68
25.39,14.64,3.97,14.64,3.97,-3.97,-3.95,-3.35,10.68,10.68,10.67
25.65,14.65,3.98,14.65,3.99,-3.98,-3.95,-3.43,10.67,10.67,10.67
25.91,14.66,4.00,14.66,4.00,-4.00,-3.95,-3.52,10.67,10.67,10.66
26.16,14.67,4.01,14.67,4.01,-4.01,-3.96,-3.60,10.66,10.66,10.66
26.43,14.67,4.01,14.68,4.02,-4.02,-3.96,-3.68,10.65,10.65,10.66
26.69,14.68,4.04,14.68,4.03,-4.03,-3.97,-3.76,10.65,10.65,10.65
26.96,14.69,4.05,14.69,4.05,-4.05,-3.97,-3.85,10.65,10.64,10.65
27.23,14.69,4.06,14.70,4.06,-4.06,-3.98,-3.93,10.64,10.64,10.64
27.50,14.70,4.07,14.70,4.07,-4.07,-3.98,-4.01,10.63,10.63,10.63
27.77,14.71,4.08,14.71,4.08,-4.08,-3.99,-4.08,10.63,10.63,10.63
28.05,14.71,4.09,14.72,4.09,-4.09,-3.99,-4.16,10.62,10.62,10.62
28.33,14.72,4.10,14.72,4.11,-4.11,-3.99,-4.23,10.62,10.62,10.62
28.62,14.73,4.12,14.73,4.12,-4.12,-4.00,-4.29,10.62,10.61,10.62
28.90,14.74,4.14,14.74,4.13,-4.13,-4.00,-4.36,10.61,10.61,10.61
29.19,14.74,4.14,14.75,4.14,-4.14,-4.01,-4.42,10.60,10.61,10.60
29.48,14.75,4.15,14.75,4.15,-4.15,-4.01,-4.47,10.60,10.60,10.60
29.78,14.76,4.16,14.76,4.16,-4.16,-4.02,-4.52,10.60,10.60,10.60
30.08,14.76,4.16,14.76,4.17,-4.17,-4.02,-4.57,10.60,10.60,10.60
30.38,14.76,4.18,14.77,4.18,-4.18,-4.03,-4.61,10.59,10.59,10.59
30.68,14.77,4.19,14.77,4.18,-4.18,-4.04,-4.64,10.59,10.58,10.59
30.99,14.77,4.19,14.77,4.19,-4.19,-4.04,-4.67,10.58,10.58,10.58
31.30,14.77,4.19,14.78,4.20,-4.20,-4.05,-4.70,10.57,10.58,10.58
31.61,14.78,4.21,14.78,4.21,-4.21,-4.05,-4.72,10.58,10.57,10.57
31.93,14.78,4.22,14.78,4.22,-4.22,-4.06,-4.73,10.57,10.57,10.57
32.24,14.78,4.22,14.78,4.22,-4.22,-4.06,-4.74,10.56,10.56,10.56
32.57,14.78,4.23,14.78,4.23,-4.23,-4.07,-4.74,10.56,10.56,10.55
32.89,14.78,4.23,14.78,4.23,-4.23,-4.07,-4.73,10.55,10.55,10.55
33.22,14.78,4.24,14.78,4.24,-4.24,-4.08,-4.72,10.55,10.54,10.55
33.55,14.77,4.24,14.78,4.24,-4.24,-4.09,-4.71,10.53,10.54,10.53
33.89,14.77,4.24,14.77,4.24,-4.24,-4.09,-4.70,10.53,10.53,10.53
34.23,14.77,4.25,14.77,4.25,-4.25,-4.10,-4.68,10.53,10.52,10.53
34.57,14.76,4.25,14.77,4.25,-4.25,-4.11,-4.65,10.51,10.52,10.51
34.92,14.76,4.25,14.76,4.25,-4.25,-4.11,-4.63,10.51,10.51,10.51
35.27,14.76,4.26,14.76,4.26,-4.26,-4.12,-4.60,10.50,10.50,10.51
35.62,14.76,4.27,14.76,4.27,-4.26,-4.13,-4.57,10.50,10.50,10.49
35.97,14.76,4.27,14.76,4.27,-4.27,-4.13,-4.54,10.49,10.49,10.49
36.33,14.76,4.28,14.76,4.28,-4.28,-4.14,-4.50,10.49,10.49,10.49
36.70,14.76,4.28,14.76,4.28,-4.28,-4.15,-4.47,10.48,10.48,10.48
37.06,14.76,4.28,14.76,4.29,-4.29,-4.15,-4.44,10.47,10.47,10.48
37.43,14.76,4.30,14.76,4.29,-4.30,-4.16,-4.40,10.47,10.47,10.46
37.81,14.76,4.30,14.76,4.30,-4.30,-4.17,-4.37,10.46,10.46,10.46
38.19,14.76,4.31,14.76,4.31,-4.31,-4.18,-4.34,10.45,10.45,10.46
38.57,14.76,4.32,14.76,4.32,-4.32,-4.18,-4.31,10.44,10.44,10.44
38.95,14.76,4.33,14.76,4.33,-4.33,-4.19,-4.28,10.43,10.43,10.44
39.34,14.76,4.34,14.76,4.34,-4.34,-4.20,-4.25,10.42,10.42,10.42
39.74,14.76,4.35,14.76,4.35,-4.35,-4.21,-4.23,10.41,10.41,10.42
40.14,14.76,4.36,14.76,4.36,-4.36,-4.21,-4.20,10.41,10.41,10.40
40.54,14.76,4.37,14.76,4.37,-4.37,-4.22,-4.18,10.40,10.40,10.40
40.94,14.76,4.37,14.76,4.37,-4.37,-4.23,-4.16,10.39,10.39,10.39
41.35,14.76,4.38,14.76,4.38,-4.38,-4.24,-4.15,10.38,10.38,10.38
41.76,14.76,4.39,14.76,4.39,-4.39,-4.25,-4.13,10.38,10.38,10.38
42.18,14.76,4.39,14.76,4.39,-4.39,-4.25,-4.12,10.37,10.37,10.37
42.60,14.76,4.40,14.76,4.40,-4.40,-4.26,-4.11,10.37,10.37,10.36
43.03,14.76,4.40,14.76,4.40,-4.40,-4.27,-4.11,10.36,10.36,10.37
43.46,14.76,4.40,14.76,4.40,-4.41,-4.28,-4.11,10.36,10.36,10.36
43.90,14.76,4.41,14.76,4.41,-4.41,-4.29,-4.11,10.35,10.35,10.35
44.33,14.76,4.42,14.76,4.42,-4.42,-4.30,-4.12,10.35,10.35,10.34
44.78,14.76,4.43,14.76,4.43,-4.42,-4.31,-4.12,10.34,10.34,10.34
45.23,14.76,4.44,14.76,4.44,-4.43,-4.31,-4.13,10.33,10.33,10.33
45.68,14.76,4.44,14.76,4.44,-4.44,-4.32,-4.15,10.32,10.32,10.32
46.13,14.76,4.45,14.76,4.45,-4.46,-4.33,-4.17,10.31,10.31,10.31
46.60,14.76,4.46,14.76,4.46,-4.47,-4.34,-4.19,10.29,10.29,10.30
47.06,14.76,4.47,14.77,4.48,-4.48,-4.35,-4.21,10.28,10.28,10.29
47.53,14.77,4.50,14.77,4.50,-4.50,-4.36,-4.23,10.27,10.27,10.27
48.01,14.78,4.52,14.78,4.52,-4.51,-4.37,-4.26,10.27,10.27,10.26
48.49,14.78,4.53,14.78,4.53,-4.53,-4.38,-4.29,10.25,10.25,10.25
48.97,14.78,4.54,14.78,4.54,-4.54,-4.39,-4.33,10.24,10.24,10.24
49.46,14.78,4.55,14.78,4.56,-4.56,-4.40,-4.37,10.23,10.23,10.23
49.96,14.78,4.57,14.78,4.57,-4.57,-4.41,-4.40,10.22,10.22,10.22
50.46,14.78,4.58,14.78,4.58,-4.57,-4.42,-4.44,10.21,10.21,10.20
50.96,14.77,4.58,14.77,4.58,-4.58,-4.43,-4.49,10.20,10.20,10.19
51.47,14.76,4.57,14.76,4.58,-4.58,-4.44,-4.53,10.18,10.19,10.19
51.99,14.75,4.58,14.75,4.58,-4.58,-4.45,-4.58,10.17,10.17,10.17
52.51,14.73,4.57,14.74,4.58,-4.58,-4.46,-4.62,10.15,10.16,10.16
53.03,14.72,4.58,14.73,4.58,-4.58,-4.47,-4.67,10.15,10.15,10.15
53.56,14.71,4.58,14.71,4.58,-4.57,-4.48,-4.72,10.14,10.14,10.13
54.10,14.70,4.58,14.70,4.57,-4.57,-4.49,-4.76,10.13,10.12,10.13
54.64,14.67,4.56,14.68,4.57,-4.57,-4.50,-4.81,10.10,10.11,10.11
55.18,14.66,4.57,14.66,4.57,-4.57,-4.51,-4.86,10.09,10.09,10.09
55.74,14.65,4.58,14.65,4.57,-4.57,-4.52,-4.90,10.08,10.07,10.08
56.29,14.63,4.56,14.64,4.57,-4.57,-4.53,-4.95,10.06,10.06,10.07
56.86,14.62,4.57,14.62,4.57,-4.57,-4.54,-4.99,10.05,10.05,10.05
57.42,14.61,4.58,14.61,4.57,-4.57,-4.55,-5.03,10.04,10.04,10.03
58.00,14.59,4.57,14.59,4.58,-4.57,-4.56,-5.07,10.03,10.03,10.02
58.58,14.57,4.57,14.57,4.57,-4.56,-4.57,-5.10,10.01,10.01,10.00
59.16,14.54,4.56,14.54,4.56,-4.56,-4.58,-5.13,9.99,9.99,9.98
59.76,14.51,4.54,14.51,4.54,-4.55,-4.59,-5.16,9.97,9.97,9.97
60.35,14.48,4.53,14.48,4.53,-4.54,-4.60,-5.18,9.94,9.94,9.95
60.96,14.45,4.53,14.46,4.53,-4.53,-4.61,-5.20,9.92,9.93,9.93
61.57,14.43,4.53,14.43,4.53,-4.52,-4.62,-5.22,9.91,9.91,9.90
62.18,14.40,4.52,14.40,4.52,-4.52,-4.63,-5.23,9.88,9.88,9.88
62.80,14.37,4.52,14.37,4.52,-4.52,-4.64,-5.24,9.86,9.86,9.86
63.43,14.34,4.51,14.35,4.52,-4.52,-4.65,-5.24,9.82,9.83,9.83
64.07,14.32,4.52,14.32,4.52,-4.52,-4.66,-5.24,9.80,9.80,9.80
64.71,14.30,4.52,14.30,4.52,-4.53,-4.67,-5.23,9.77,9.77,9.78
65.35,14.28,4.53,14.29,4.54,-4.54,-4.68,-5.22,9.74,9.75,9.75
66.01,14.27,4.55,14.27,4.55,-4.55,-4.69,-5.21,9.72,9.72,9.72
66.67,14.26,4.57,14.26,4.57,-4.56,-4.70,-5.19,9.70,9.70,9.69
67.33,14.24,4.58,14.25,4.58,-4.57,-4.71,-5.17,9.67,9.67,9.66
68.01,14.22,4.59,14.22,4.59,-4.58,-4.72,-5.15,9.64,9.64,9.63
68.69,14.19,4.59,14.19,4.59,-4.59,-4.73,-5.12,9.61,9.61,9.60
69.37,14.15,4.58,14.16,4.59,-4.59,-4.74,-5.09,9.57,9.57,9.57
70.07,14.13,4.60,14.13,4.59,-4.59,-4.75,-5.06,9.55,9.54,9.54
70.77,14.09,4.59,14.09,4.59,-4.59,-4.76,-5.03,9.51,9.51,9.50
71.48,14.06,4.58,14.06,4.59,-4.58,-4.77,-5.00,9.48,9.48,9.48
72.19,14.02,4.58,14.02,4.58,-4.59,-4.78,-4.97,9.44,9.44,9.44
72.91,13.99,4.58,13.99,4.58,-4.59,-4.79,-4.93,9.40,9.40,9.41
73.64,13.96,4.59,13.96,4.59,-4.60,-4.79,-4.90,9.36,9.36,9.37
74.38,13.94,4.60,13.95,4.60,-4.61,-4.80,-4.87,9.33,9.33,9.34
75.12,13.93,4.63,13.93,4.62,-4.63,-4.81,-4.84,9.30,9.30,9.31
75.87,13.92,4.65,13.92,4.65,-4.65,-4.82,-4.81,9.28,9.28,9.28
76.63,13.91,4.68,13.91,4.68,-4.66,-4.83,-4.78,9.25,9.25,9.24
77.40,13.89,4.70,13.89,4.69,-4.68,-4.84,-4.75,9.21,9.21,9.19
78.17,13.86,4.70,13.86,4.71,-4.70,-4.85,-4.73,9.17,9.17,9.16
78.95,13.83,4.71,13.83,4.71,-4.71,-4.86,-4.71,9.12,9.12,9.12
79.74,13.80,4.73,13.80,4.72,-4.72,-4.87,-4.69,9.08,9.08,9.08
80.54,13.77,4.73,13.77,4.73,-4.74,-4.87,-4.67,9.03,9.03,9.04
81.35,13.74,4.75,13.74,4.75,-4.76,-4.88,-4.66,8.99,8.99,9.00
82.16,13.71,4.76,13.72,4.76,-4.77,-4.89,-4.65,8.94,8.94,8.95
82.98,13.69,4.79,13.69,4.79,-4.79,-4.90,-4.64,8.90,8.90,8.91
83.81,13.67,4.81,13.68,4.82,-4.81,-4.91,-4.64,8.86,8.86,8.86
84.65,13.66,4.84,13.66,4.84,-4.84,-4.92,-4.63,8.83,8.83,8.82
85.50,13.64,4.87,13.64,4.86,-4.85,-4.92,-4.64,8.79,8.78,8.77
86.35,13.60,4.88,13.61,4.88,-4.87,-4.93,-4.64,8.73,8.74,8.72
87.22,13.56,4.89,13.57,4.89,-4.88,-4.94,-4.65,8.68,8.68,8.67
88.09,13.52,4.90,13.52,4.90,-4.89,-4.95,-4.66,8.63,8.63,8.62
88.97,13.47,4.90,13.47,4.90,-4.90,-4.96,-4.68,8.57,8.57,8.57
89.86,13.42,4.90,13.43,4.91,-4.91,-4.96,-4.70,8.51,8.51,8.52
90.76,13.38,4.91,13.38,4.91,-4.93,-4.97,-4.72,8.46,8.46,8.47
91.66,13.34,4.93,13.35,4.93,-4.94,-4.98,-4.75,8.40,8.41,8.42
92.58,13.31,4.95,13.31,4.95,-4.95,-4.99,-4.78,8.36,8.36,8.36
93.51,13.28,4.97,13.28,4.97,-4.97,-4.99,-4.81,8.31,8.31,8.31
94.44,13.25,5.00,13.25,5.00,-4.99,-5.00,-4.85,8.26,8.26,8.26
95.39,13.21,5.01,13.22,5.02,-5.01,-5.01,-4.89,8.21,8.21,8.20
96.34,13.18,5.04,13.18,5.03,-5.02,-5.02,-4.94,8.16,8.16,8.15
97.30,13.13,5.03,13.14,5.04,-5.04,-5.02,-4.98,8.10,8.10,8.10
98.28,13.09,5.05,13.09,5.05,-5.05,-5.03,-5.03,8.04,8.04,8.05
99.26,13.05,5.06,13.05,5.06,-5.07,-5.04,-5.08,7.98,7.98,7.99
100.25,13.01,5.08,13.01,5.08,-5.09,-5.04,-5.14,7.93,7.92,7.93
101.25,12.97,5.09,12.97,5.10,-5.11,-5.05,-5.19,7.87,7.87,7.88
102.27,12.93,5.11,12.94,5.12,-5.12,-5.06,-5.25,7.81,7.82,7.82
103.29,12.91,5.15,12.91,5.14,-5.14,-5.06,-5.31,7.77,7.77,7.77
104.32,12.88,5.16,12.88,5.17,-5.15,-5.07,-5.37,7.73,7.73,7.72
105.37,12.84,5.18,12.84,5.18,-5.16,-5.07,-5.43,7.68,7.68,7.66
106.42,12.79,5.19,12.79,5.18,-5.17,-5.08,-5.49,7.62,7.62,7.61
107.48,12.73,5.17,12.73,5.18,-5.17,-5.09,-5.55,7.56,7.56,7.56
108.56,12.67,5.17,12.67,5.17,-5.17,-5.09,-5.60,7.51,7.50,7.50
109.64,12.60,5.15,12.61,5.16,-5.16,-5.10,-5.66,7.44,7.44,7.45
110.74,12.54,5.15,12.54,5.15,-5.16,-5.10,-5.72,7.38,7.38,7.39
111.85,12.48,5.15,12.49,5.15,-5.15,-5.10,-5.77,7.33,7.33,7.34
112.97,12.43,5.14,12.43,5.15,-5.15,-5.11,-5.82,7.28,7.28,7.29
114.10,12.39,5.16,12.39,5.15,-5.16,-5.11,-5.87,7.24,7.23,7.24
115.24,12.33,5.15,12.35,5.16,-5.16,-5.11,-5.91,7.17,7.19,7.18
116.39,12.31,5.19,12.30,5.17,-5.17,-5.12,-5.95,7.14,7.13,7.13
117.55,12.26,5.18,12.26,5.18,-5.18,-5.12,-5.98,7.08,7.08,7.08
118.73,12.20,5.17,12.21,5.19,-5.19,-5.12,-6.01,7.01,7.03,7.03
119.92,12.17,5.20,12.17,5.19,-5.20,-5.12,-6.03,6.98,6.97,6.98
121.12,12.13,5.21,12.14,5.21,-5.20,-5.12,-6.04,6.93,6.93,6.92
122.33,12.10,5.22,12.10,5.22,-5.21,-5.12,-6.05,6.89,6.89,6.88
123.55,12.05,5.22,12.04,5.21,-5.21,-5.12,-6.05,6.84,6.83,6.83
124.79,11.98,5.20,11.99,5.21,-5.22,-5.12,-6.04,6.77,6.78,6.79
126.03,11.93,5.20,11.94,5.21,-5.21,-5.12,-6.02,6.72,6.73,6.74
127.29,11.90,5.21,11.90,5.21,-5.20,-5.11,-6.00,6.70,6.70,6.70
128.57,11.87,5.23,11.85,5.21,-5.19,-5.11,-5.97,6.68,6.66,6.65
129.85,11.79,5.19,11.79,5.19,-5.18,-5.10,-5.93,6.61,6.61,6.60
131.15,11.70,5.15,11.72,5.17,-5.17,-5.10,-5.89,6.53,6.55,6.55
132.46,11.66,5.15,11.65,5.14,-5.16,-5.09,-5.83,6.51,6.49,6.51
133.79,11.59,5.13,11.59,5.13,-5.14,-5.08,-5.78,6.45,6.45,6.47
135.12,11.53,5.11,11.54,5.12,-5.13,-5.07,-5.72,6.41,6.41,6.42
136.48,11.49,5.12,11.49,5.11,-5.11,-5.06,-5.65,6.38,6.38,6.38
137.84,11.43,5.10,11.44,5.11,-5.09,-5.05,-5.57,6.34,6.34,6.33
139.22,11.38,5.10,11.38,5.09,-5.08,-5.04,-5.50,6.30,6.30,6.29
140.61,11.32,5.08,11.32,5.07,-5.07,-5.02,-5.42,6.26,6.25,6.24
142.02,11.24,5.03,11.26,5.05,-5.05,-5.01,-5.34,6.19,6.20,6.21
143.44,11.20,5.03,11.20,5.03,-5.04,-4.99,-5.25,6.16,6.16,6.17
144.87,11.15,5.02,11.15,5.02,-5.02,-4.98,-5.16,6.13,6.13,6.13
146.32,11.11,5.01,11.11,5.01,-5.01,-4.96,-5.07,6.11,6.10,6.10
147.78,11.05,4.99,11.05,4.99,-4.99,-4.94,-4.98,6.07,6.07,6.06
149.26,11.00,4.98,11.00,4.97,-4.97,-4.91,-4.89,6.03,6.03,6.03
150.75,10.93,4.94,10.94,4.95,-4.95,-4.89,-4.80,5.99,5.99,6.00
152.26,10.89,4.93,10.89,4.93,-4.92,-4.86,-4.71,5.97,5.96,5.96
153.78,10.83,4.91,10.83,4.90,-4.90,-4.84,-4.62,5.94,5.93,5.93
155.32,10.77,4.87,10.77,4.88,-4.87,-4.81,-4.54,5.90,5.91,5.90
156.88,10.70,4.84,10.70,4.84,-4.84,-4.78,-4.45,5.86,5.87,5.87
158.44,10.64,4.81,10.64,4.80,-4.81,-4.75,-4.37,5.83,5.83,5.83
160.03,10.56,4.76,10.57,4.77,-4.78,-4.72,-4.28,5.78,5.79,5.80
161.63,10.51,4.74,10.52,4.74,-4.75,-4.68,-4.20,5.76,5.77,5.77
163.24,10.47,4.72,10.46,4.72,-4.72,-4.65,-4.12,5.76,5.75,5.75
164.88,10.41,4.69,10.42,4.70,-4.68,-4.61,-4.04,5.73,5.73,5.72
166.53,10.35,4.66,10.36,4.66,-4.65,-4.57,-3.97,5.70,5.70,5.69
168.19,10.29,4.63,10.28,4.62,-4.62,-4.53,-3.90,5.68,5.67,5.66
169.87,10.21,4.57,10.22,4.58,-4.58,-4.50,-3.83,5.63,5.64,5.64
171.57,10.14,4.53,10.15,4.54,-4.54,-4.45,-3.76,5.60,5.61,5.62
173.29,10.10,4.51,10.09,4.49,-4.50,-4.41,-3.70,5.60,5.59,5.59
175.02,10.02,4.46,10.03,4.46,-4.46,-4.37,-3.64,5.56,5.57,5.57
176.77,9.96,4.41,9.96,4.42,-4.42,-4.32,-3.58,5.54,5.55,5.55
178.54,9.90,4.38,9.91,4.38,-4.38,-4.28,-3.52,5.53,5.53,5.53
180.32,9.84,4.34,9.85,4.34,-4.33,-4.23,-3.47,5.51,5.51,5.50
182.13,9.79,4.31,9.78,4.30,-4.29,-4.18,-3.42,5.51,5.49,5.48
183.95,9.69,4.23,9.70,4.24,-4.24,-4.13,-3.37,5.45,5.46,5.46
185.79,9.62,4.18,9.62,4.18,-4.19,-4.08,-3.33,5.43,5.43,5.44
187.65,9.54,4.13,9.55,4.13,-4.14,-4.03,-3.28,5.40,5.41,5.42
189.52,9.48,4.09,9.48,4.09,-4.09,-3.98,-3.25,5.39,5.39,5.40
191.42,9.42,4.04,9.42,4.04,-4.04,-3.93,-3.21,5.38,5.38,5.38
193.33,9.35,3.99,9.35,3.99,-3.99,-3.87,-3.17,5.36,5.36,5.36
195.27,9.28,3.94,9.28,3.94,-3.94,-3.82,-3.14,5.35,5.34,5.34
197.22,9.20,3.88,9.21,3.88,-3.88,-3.76,-3.11,5.32,5.33,5.32
199.19,9.13,3.83,9.14,3.83,-3.83,-3.71,-3.08,5.31,5.31,5.31
201.18,9.07,3.77,9.07,3.77,-3.77,-3.65,-3.05,5.30,5.30,5.30
203.19,8.99,3.71,9.00,3.71,-3.71,-3.60,-3.03,5.28,5.29,5.28
205.23,8.92,3.65,8.92,3.65,-3.64,-3.54,-3.00,5.28,5.28,5.28
207.28,8.84,3.58,8.84,3.58,-3.58,-3.48,-2.98,5.26,5.26,5.26
209.35,8.76,3.51,8.77,3.51,-3.51,-3.43,-2.96,5.25,5.25,5.25
211.44,8.68,3.44,8.69,3.45,-3.45,-3.37,-2.94,5.24,5.24,5.24
213.56,8.61,3.38,8.60,3.37,-3.38,-3.31,-2.92,5.23,5.22,5.23
215.69,8.52,3.31,8.52,3.30,-3.31,-3.26,-2.90,5.21,5.21,5.22
217.85,8.43,3.23,8.45,3.24,-3.24,-3.20,-2.88,5.19,5.21,5.20
220.03,8.37,3.17,8.37,3.17,-3.17,-3.14,-2.86,5.21,5.20,5.20
222.23,8.30,3.11,8.29,3.10,-3.09,-3.08,-2.85,5.21,5.20,5.19
224.45,8.20,3.02,8.20,3.02,-3.02,-3.02,-2.83,5.19,5.19,5.18
226.70,8.10,2.94,8.11,2.93,-2.94,-2.96,-2.81,5.16,5.17,5.17
228.96,8.00,2.84,8.02,2.86,-2.86,-2.91,-2.79,5.14,5.16,5.17
231.25,7.94,2.79,7.93,2.78,-2.78,-2.85,-2.77,5.16,5.15,5.16
233.57,7.86,2.72,7.85,2.70,-2.70,-2.79,-2.75,5.16,5.15,5.15
235.90,7.74,2.60,7.76,2.62,-2.62,-2.73,-2.72,5.12,5.14,5.15
238.26,7.68,2.55,7.68,2.54,-2.54,-2.67,-2.70,5.15,5.14,5.14
240.64,7.59,2.45,7.60,2.46,-2.45,-2.62,-2.67,5.14,5.15,5.14
243.05,7.53,2.39,7.52,2.38,-2.37,-2.56,-2.64,5.16,5.15,5.14
245.48,7.43,2.29,7.43,2.29,-2.29,-2.50,-2.61,5.15,5.14,5.14
247.93,7.32,2.19,7.34,2.20,-2.20,-2.45,-2.58,5.12,5.13,5.13
250.41,7.25,2.12,7.24,2.11,-2.12,-2.39,-2.54,5.14,5.12,5.14
252.92,7.15,2.02,7.16,2.02,-2.03,-2.33,-2.51,5.12,5.13,5.14
255.45,7.08,1.94,7.09,1.95,-1.95,-2.28,-2.47,5.14,5.14,5.14
258.00,7.01,1.88,7.00,1.87,-1.86,-2.22,-2.43,5.15,5.14,5.13
260.58,6.92,1.79,6.92,1.79,-1.78,-2.16,-2.38,5.15,5.15,5.14
263.19,6.83,1.70,6.83,1.70,-1.70,-2.11,-2.34,5.13,5.13,5.13
265.82,6.74,1.62,6.75,1.62,-1.62,-2.05,-2.29,5.12,5.12,5.12
268.48,6.66,1.54,6.67,1.55,-1.55,-2.00,-2.24,5.11,5.12,5.13
271.16,6.61,1.49,6.60,1.48,-1.48,-1.94,-2.19,5.13,5.12,5.12
273.87,6.53,1.42,6.54,1.42,-1.42,-1.89,-2.14,5.11,5.12,5.12
276.61,6.48,1.36,6.49,1.37,-1.37,-1.83,-2.08,5.11,5.12,5.12
279.38,6.44,1.33,6.44,1.32,-1.33,-1.78,-2.03,5.12,5.11,5.12
282.17,6.40,1.28,6.40,1.29,-1.29,-1.73,-1.97,5.11,5.11,5.12
284.99,6.37,1.26,6.37,1.26,-1.26,-1.67,-1.91,5.11,5.11,5.12
287.84,6.34,1.23,6.35,1.24,-1.24,-1.62,-1.86,5.10,5.11,5.11
290.72,6.33,1.23,6.33,1.23,-1.22,-1.57,-1.80,5.11,5.11,5.11
293.63,6.32,1.22,6.32,1.22,-1.22,-1.51,-1.74,5.11,5.11,5.10
296.57,6.31,1.22,6.31,1.21,-1.21,-1.46,-1.68,5.10,5.10,5.10
299.53,6.30,1.20,6.31,1.21,-1.21,-1.41,-1.62,5.09,5.10,5.10
302.53,6.30,1.20,6.31,1.21,-1.21,-1.36,-1.55,5.09,5.10,5.10
305.55,6.31,1.22,6.31,1.21,-1.21,-1.31,-1.49,5.10,5.10,5.10
308.61,6.32,1.22,6.32,1.22,-1.21,-1.25,-1.43,5.11,5.11,5.10
311.69,6.32,1.22,6.32,1.22,-1.22,-1.20,-1.37,5.11,5.11,5.10
314.81,6.32,1.22,6.32,1.22,-1.22,-1.15,-1.31,5.10,5.11,5.10
317.96,6.32,1.22,6.32,1.22,-1.22,-1.10,-1.25,5.10,5.10,5.10
321.14,6.32,1.21,6.32,1.22,-1.23,-1.05,-1.19,5.10,5.10,5.11
324.35,6.32,1.22,6.33,1.22,-1.23,-1.00,-1.13,5.09,5.10,5.11
327.59,6.33,1.23,6.33,1.23,-1.23,-0.95,-1.07,5.10,5.10,5.10
330.87,6.34,1.23,6.34,1.23,-1.23,-0.90,-1.01,5.11,5.11,5.11
334.18,6.35,1.24,6.35,1.24,-1.23,-0.85,-0.95,5.12,5.12,5.12
337.52,6.35,1.24,6.35,1.23,-1.23,-0.81,-0.89,5.12,5.12,5.11
340.90,6.34,1.22,6.35,1.23,-1.23,-0.76,-0.84,5.12,5.12,5.12
344.30,6.33,1.21,6.34,1.22,-1.22,-0.71,-0.78,5.12,5.12,5.12
347.75,6.32,1.21,6.32,1.20,-1.20,-0.66,-0.72,5.12,5.12,5.12
351.23,6.30,1.19,6.30,1.18,-1.18,-0.61,-0.67,5.13,5.12,5.11
354.74,6.27,1.15,6.27,1.15,-1.15,-0.56,-0.61,5.13,5.12,5.12
358.28,6.22,1.10,6.23,1.11,-1.11,-0.51,-0.56,5.11,5.12,5.12
361.87,6.18,1.06,6.18,1.06,-1.07,-0.47,-0.50,5.12,5.12,5.12
365.49,6.13,1.02,6.13,1.02,-1.01,-0.42,-0.45,5.12,5.12,5.12
369.14,6.07,0.96,6.08,0.96,-0.96,-0.37,-0.39,5.12,5.12,5.11
372.83,6.01,0.90,6.01,0.89,-0.89,-0.32,-0.34,5.12,5.12,5.11
376.56,5.94,0.82,5.94,0.82,-0.82,-0.27,-0.29,5.12,5.12,5.12
380.33,5.86,0.74,5.87,0.75,-0.75,-0.23,-0.24,5.12,5.12,5.12
384.13,5.79,0.68,5.79,0.67,-0.67,-0.18,-0.18,5.12,5.12,5.12
387.97,5.70,0.59,5.71,0.59,-0.59,-0.13,-0.13,5.11,5.11,5.12
391.85,5.62,0.50,5.63,0.51,-0.51,-0.08,-0.08,5.11,5.12,5.12
395.77,5.55,0.43,5.55,0.43,-0.43,-0.03,-0.03,5.12,5.12,5.12
399.73,5.48,0.35,5.48,0.35,-0.35,0.01,0.02,5.13,5.13,5.13
403.72,5.41,0.28,5.41,0.28,-0.28,0.06,0.07,5.14,5.13,5.13
407.76,5.33,0.19,5.34,0.20,-0.20,0.11,0.12,5.13,5.14,5.14
411.84,5.26,0.13,5.26,0.12,-0.12,0.16,0.17,5.14,5.14,5.14
415.96,5.19,0.05,5.19,0.05,-0.05,0.21,0.22,5.14,5.14,5.15
420.12,5.12,-0.02,5.12,-0.03,0.03,0.25,0.27,5.15,5.15,5.15
424.32,5.04,-0.10,5.05,-0.10,0.10,0.30,0.32,5.14,5.15,5.14
428.56,4.97,-0.18,4.97,-0.18,0.18,0.35,0.36,5.15,5.15,5.15
432.85,4.90,-0.25,4.90,-0.25,0.25,0.40,0.41,5.15,5.15,5.15
437.18,4.82,-0.33,4.83,-0.33,0.33,0.45,0.46,5.15,5.15,5.15
441.55,4.75,-0.40,4.75,-0.40,0.40,0.50,0.51,5.15,5.15,5.15
445.96,4.67,-0.48,4.67,-0.48,0.48,0.55,0.55,5.15,5.15,5.15
450.42,4.59,-0.56,4.60,-0.55,0.55,0.60,0.60,5.15,5.15,5.15
454.93,4.52,-0.62,4.52,-0.63,0.63,0.64,0.65,5.15,5.15,5.15
459.48,4.44,-0.70,4.44,-0.70,0.71,0.69,0.69,5.15,5.15,5.15
464.07,4.36,-0.78,4.36,-0.78,0.79,0.74,0.74,5.15,5.15,5.15
468.71,4.28,-0.86,4.28,-0.87,0.86,0.80,0.78,5.15,5.14,5.14
473.40,4.19,-0.95,4.20,-0.94,0.94,0.85,0.83,5.13,5.14,5.14
478.13,4.13,-1.02,4.13,-1.02,1.01,0.90,0.87,5.15,5.15,5.15
482.91,4.07,-1.08,4.06,-1.09,1.09,0.95,0.92,5.16,5.15,5.15
