frequency,raw,error,smoothed,error_smoothed,equalization,parametric_eq,fixed_band_eq,equalized_raw,equalized_smoothed,target
20.00,-9.78,-9.57,-9.78,-9.57,6.00,4.07,2.07,-3.78,-3.78,-0.21
20.20,-9.66,-9.42,-9.67,-9.43,6.00,4.23,2.13,-3.66,-3.67,-0.24
20.40,-9.55,-9.29,-9.55,-9.29,6.00,4.39,2.20,-3.55,-3.55,-0.26
20.61,-9.43,-9.15,-9.43,-9.15,6.00,4.56,2.26,-3.43,-3.43,-0.28
20.81,-9.32,-9.02,-9.32,-9.02,6.00,4.73,2.33,-3.32,-3.32,-0.30
21.02,-9.20,-8.88,-9.20,-8.88,6.00,4.90,2.40,-3.20,-3.20,-0.32
21.23,-9.08,-8.74,-9.08,-8.74,6.00,5.07,2.47,-3.08,-3.08,-0.34
21.44,-8.96,-8.60,-8.96,-8.60,6.00,5.24,2.55,-2.96,-2.96,-0.36
21.66,-8.85,-8.47,-8.85,-8.47,6.00,5.42,2.62,-2.85,-2.85,-0.38
21.87,-8.73,-8.34,-8.73,-8.33,6.00,5.59,2.70,-2.73,-2.73,-0.39
22.09,-8.61,-8.20,-8.61,-8.20,6.00,5.75,2.78,-2.61,-2.61,-0.41
22.31,-8.49,-8.07,-8.49,-8.07,6.00,5.91,2.87,-2.49,-2.49,-0.42
22.54,-8.38,-7.95,-8.38,-7.95,6.00,6.06,2.95,-2.38,-2.38,-0.43
22.76,-8.26,-7.82,-8.26,-7.82,6.00,6.21,3.04,-2.26,-2.26,-0.44
22.99,-8.15,-7.70,-8.15,-7.70,6.00,6.34,3.13,-2.15,-2.15,-0.45
23.22,-8.03,-7.57,-8.03,-7.57,6.00,6.45,3.22,-2.03,-2.03,-0.46
23.45,-7.91,-7.44,-7.91,-7.44,6.00,6.55,3.31,-1.91,-1.91,-0.47
23.69,-7.79,-7.31,-7.79,-7.32,6.00,6.63,3.41,-1.79,-1.79,-0.48
23.92,-7.68,-7.20,-7.68,-7.19,6.00,6.69,3.50,-1.68,-1.68,-0.48
24.16,-7.56,-7.07,-7.56,-7.07,6.00,6.73,3.60,-1.56,-1.56,-0.49
24.40,-7.44,-6.95,-7.44,-6.95,6.00,6.75,3.70,-1.44,-1.44,-0.49
24.65,-7.33,-6.83,-7.33,-6.83,6.00,6.74,3.80,-1.33,-1.33,-0.50
24.89,-7.21,-6.71,-7.21,-6.71,6.01,6.72,3.91,-1.20,-1.20,-0.50
25.14,-7.09,-6.58,-7.09,-6.58,6.02,6.67,4.01,-1.07,-1.08,-0.51
25.39,-6.98,-6.47,-6.98,-6.46,6.02,6.60,4.11,-0.96,-0.95,-0.51
25.65,-6.86,-6.34,-6.86,-6.34,6.02,6.52,4.22,-0.85,-0.85,-0.52
25.91,-6.74,-6.22,-6.75,-6.22,6.00,6.42,4.32,-0.75,-0.75,-0.52
26.16,-6.63,-6.10,-6.63,-6.10,5.96,6.30,4.42,-0.67,-0.67,-0.53
26.43,-6.51,-5.98,-6.51,-5.98,5.91,6.18,4.53,-0.60,-0.60,-0.53
26.69,-6.40,-5.86,-6.40,-5.87,5.84,6.05,4.63,-0.56,-0.56,-0.54
26.96,-6.29,-5.75,-6.29,-5.75,5.75,5.90,4.72,-0.54,-0.54,-0.54
27.23,-6.18,-5.64,-6.18,-5.63,5.65,5.76,4.82,-0.53,-0.53,-0.54
27.50,-6.06,-5.51,-6.07,-5.52,5.54,5.61,4.91,-0.52,-0.53,-0.55
27.77,-5.95,-5.40,-5.95,-5.40,5.42,5.46,5.00,-0.53,-0.54,-0.55
28.05,-5.84,-5.28,-5.84,-5.28,5.29,5.31,5.08,-0.55,-0.55,-0.56
28.33,-5.73,-5.17,-5.73,-5.17,5.17,5.16,5.16,-0.56,-0.56,-0.56
28.62,-5.62,-5.06,-5.63,-5.06,5.06,5.01,5.23,-0.56,-0.57,-0.56
28.90,-5.52,-4.95,-5.52,-4.95,4.95,4.87,5.30,-0.57,-0.57,-0.57
29.19,-5.41,-4.84,-5.41,-4.84,4.84,4.73,5.35,-0.57,-0.57,-0.57
29.48,-5.30,-4.73,-5.30,-4.73,4.73,4.59,5.40,-0.57,-0.57,-0.57
29.78,-5.19,-4.62,-5.20,-4.62,4.62,4.46,5.44,-0.57,-0.57,-0.57
30.08,-5.09,-4.52,-5.09,-4.52,4.52,4.33,5.47,-0.57,-0.57,-0.57
30.38,-4.99,-4.42,-4.99,-4.42,4.42,4.21,5.49,-0.57,-0.57,-0.57
30.68,-4.89,-4.31,-4.89,-4.31,4.32,4.09,5.50,-0.57,-0.57,-0.58
30.99,-4.79,-4.21,-4.80,-4.22,4.22,3.98,5.50,-0.57,-0.58,-0.58
31.30,-4.70,-4.12,-4.70,-4.12,4.12,3.87,5.49,-0.58,-0.58,-0.58
31.61,-4.61,-4.03,-4.61,-4.03,4.02,3.77,5.47,-0.59,-0.59,-0.58
31.93,-4.52,-3.93,-4.52,-3.93,3.93,3.67,5.44,-0.60,-0.59,-0.59
32.24,-4.43,-3.84,-4.43,-3.83,3.83,3.58,5.39,-0.60,-0.60,-0.59
32.57,-4.33,-3.73,-4.33,-3.74,3.74,3.49,5.34,-0.60,-0.60,-0.60
32.89,-4.24,-3.64,-4.24,-3.64,3.64,3.40,5.28,-0.60,-0.60,-0.60
33.22,-4.15,-3.55,-4.15,-3.55,3.55,3.32,5.21,-0.60,-0.60,-0.60
33.55,-4.06,-3.46,-4.06,-3.46,3.46,3.24,5.13,-0.61,-0.60,-0.60
33.89,-3.97,-3.36,-3.97,-3.36,3.36,3.16,5.04,-0.61,-0.61,-0.61
34.23,-3.88,-3.27,-3.88,-3.27,3.27,3.08,4.94,-0.61,-0.61,-0.61
34.57,-3.80,-3.18,-3.80,-3.18,3.18,3.01,4.84,-0.62,-0.62,-0.62
34.92,-3.71,-3.09,-3.71,-3.09,3.09,2.94,4.73,-0.62,-0.62,-0.62
35.27,-3.63,-3.01,-3.63,-3.01,3.01,2.87,4.61,-0.63,-0.62,-0.62
35.62,-3.54,-2.92,-3.54,-2.92,2.92,2.80,4.49,-0.62,-0.62,-0.62
35.97,-3.46,-2.83,-3.46,-2.83,2.84,2.74,4.37,-0.62,-0.62,-0.63
36.33,-3.38,-2.75,-3.38,-2.75,2.75,2.67,4.24,-0.63,-0.63,-0.63
36.70,-3.30,-2.67,-3.30,-2.67,2.67,2.60,4.11,-0.63,-0.63,-0.63
37.06,-3.23,-2.60,-3.22,-2.59,2.59,2.54,3.97,-0.64,-0.64,-0.63
37.43,-3.14,-2.51,-3.14,-2.51,2.50,2.47,3.84,-0.64,-0.64,-0.63
37.81,-3.06,-2.42,-3.06,-2.42,2.42,2.40,3.70,-0.64,-0.64,-0.64
38.19,-2.98,-2.34,-2.98,-2.34,2.34,2.33,3.56,-0.64,-0.64,-0.64
38.57,-2.91,-2.26,-2.91,-2.26,2.26,2.26,3.42,-0.65,-0.65,-0.65
38.95,-2.83,-2.18,-2.83,-2.18,2.18,2.19,3.28,-0.65,-0.65,-0.65
39.34,-2.75,-2.09,-2.75,-2.10,2.10,2.12,3.14,-0.65,-0.65,-0.66
39.74,-2.68,-2.02,-2.68,-2.02,2.02,2.05,3.00,-0.66,-0.66,-0.66
40.14,-2.61,-1.95,-2.61,-1.95,1.94,1.98,2.86,-0.67,-0.67,-0.66
40.54,-2.54,-1.87,-2.54,-1.87,1.87,1.90,2.73,-0.67,-0.67,-0.67
40.94,-2.47,-1.80,-2.47,-1.80,1.80,1.83,2.59,-0.68,-0.67,-0.67
41.35,-2.39,-1.72,-2.39,-1.72,1.72,1.75,2.45,-0.67,-0.67,-0.67
41.76,-2.31,-1.64,-2.32,-1.65,1.65,1.67,2.32,-0.66,-0.67,-0.67
42.18,-2.24,-1.58,-2.24,-1.58,1.58,1.59,2.18,-0.66,-0.66,-0.66
42.60,-2.17,-1.51,-2.17,-1.51,1.50,1.51,2.05,-0.67,-0.66,-0.66
43.03,-2.09,-1.43,-2.10,-1.43,1.43,1.43,1.91,-0.66,-0.66,-0.66
43.46,-2.02,-1.36,-2.02,-1.36,1.36,1.35,1.78,-0.66,-0.66,-0.66
43.90,-1.94,-1.28,-1.94,-1.28,1.28,1.27,1.65,-0.66,-0.66,-0.66
44.33,-1.86,-1.21,-1.86,-1.21,1.21,1.18,1.52,-0.65,-0.66,-0.65
44.78,-1.78,-1.13,-1.78,-1.13,1.13,1.10,1.39,-0.65,-0.65,-0.65
45.23,-1.70,-1.05,-1.70,-1.05,1.05,1.02,1.27,-0.65,-0.65,-0.65
45.68,-1.62,-0.97,-1.63,-0.97,0.97,0.93,1.14,-0.65,-0.65,-0.65
46.13,-1.55,-0.90,-1.55,-0.89,0.89,0.85,1.02,-0.66,-0.66,-0.65
46.60,-1.47,-0.81,-1.47,-0.81,0.81,0.77,0.89,-0.66,-0.66,-0.66
47.06,-1.39,-0.73,-1.39,-0.73,0.73,0.68,0.77,-0.66,-0.66,-0.66
47.53,-1.31,-0.65,-1.31,-0.65,0.65,0.60,0.65,-0.66,-0.66,-0.66
48.01,-1.23,-0.57,-1.23,-0.57,0.57,0.52,0.53,-0.66,-0.66,-0.66
48.49,-1.15,-0.48,-1.15,-0.48,0.49,0.43,0.41,-0.66,-0.66,-0.67
48.97,-1.07,-0.40,-1.08,-0.40,0.41,0.35,0.29,-0.66,-0.66,-0.67
49.46,-1.00,-0.33,-1.00,-0.33,0.33,0.27,0.18,-0.67,-0.67,-0.67
49.96,-0.93,-0.26,-0.93,-0.26,0.26,0.19,0.06,-0.68,-0.67,-0.67
50.46,-0.85,-0.19,-0.85,-0.19,0.18,0.11,-0.05,-0.67,-0.67,-0.66
50.96,-0.77,-0.11,-0.77,-0.11,0.11,0.03,-0.16,-0.67,-0.67,-0.66
51.47,-0.69,-0.03,-0.69,-0.03,0.03,-0.05,-0.28,-0.66,-0.66,-0.66
51.99,-0.61,0.05,-0.61,0.05,-0.04,-0.12,-0.39,-0.66,-0.66,-0.66
52.51,-0.53,0.12,-0.53,0.12,-0.12,-0.20,-0.49,-0.65,-0.65,-0.65
53.03,-0.46,0.19,-0.46,0.19,-0.19,-0.28,-0.60,-0.65,-0.65,-0.65
53.56,-0.38,0.27,-0.39,0.27,-0.27,-0.35,-0.70,-0.65,-0.65,-0.65
54.10,-0.31,0.34,-0.31,0.34,-0.34,-0.42,-0.81,-0.65,-0.65,-0.65
54.64,-0.24,0.41,-0.24,0.41,-0.41,-0.50,-0.91,-0.65,-0.65,-0.65
55.18,-0.16,0.48,-0.16,0.48,-0.48,-0.57,-1.00,-0.64,-0.64,-0.64
55.74,-0.09,0.55,-0.09,0.55,-0.55,-0.64,-1.10,-0.64,-0.64,-0.64
56.29,-0.01,0.63,-0.02,0.62,-0.62,-0.71,-1.19,-0.63,-0.64,-0.64
56.86,0.05,0.68,0.05,0.69,-0.69,-0.78,-1.28,-0.64,-0.64,-0.63
57.42,0.12,0.75,0.12,0.75,-0.75,-0.85,-1.36,-0.63,-0.63,-0.63
58.00,0.19,0.82,0.19,0.82,-0.82,-0.92,-1.45,-0.63,-0.63,-0.63
58.58,0.26,0.89,0.26,0.89,-0.88,-0.98,-1.53,-0.62,-0.62,-0.63
59.16,0.33,0.95,0.33,0.95,-0.95,-1.05,-1.60,-0.62,-0.62,-0.62
59.76,0.39,1.01,0.39,1.01,-1.01,-1.12,-1.67,-0.63,-0.62,-0.62
60.35,0.46,1.08,0.46,1.07,-1.08,-1.18,-1.74,-0.62,-0.62,-0.62
60.96,0.53,1.14,0.53,1.14,-1.15,-1.24,-1.81,-0.62,-0.62,-0.61
61.57,0.60,1.21,0.60,1.21,-1.22,-1.31,-1.87,-0.62,-0.62,-0.61
62.18,0.68,1.29,0.68,1.29,-1.29,-1.37,-1.92,-0.61,-0.61,-0.61
62.80,0.75,1.36,0.75,1.36,-1.36,-1.43,-1.98,-0.61,-0.61,-0.61
63.43,0.82,1.43,0.82,1.43,-1.43,-1.49,-2.03,-0.61,-0.61,-0.61
64.07,0.89,1.50,0.89,1.50,-1.50,-1.55,-2.07,-0.61,-0.61,-0.61
64.71,0.96,1.57,0.96,1.57,-1.57,-1.61,-2.11,-0.61,-0.61,-0.61
65.35,1.03,1.64,1.03,1.64,-1.63,-1.67,-2.15,-0.60,-0.61,-0.61
66.01,1.09,1.70,1.09,1.70,-1.70,-1.73,-2.18,-0.61,-0.61,-0.61
66.67,1.16,1.77,1.15,1.77,-1.77,-1.79,-2.21,-0.61,-0.62,-0.61
67.33,1.22,1.83,1.22,1.83,-1.84,-1.84,-2.24,-0.62,-0.62,-0.61
68.01,1.29,1.90,1.29,1.90,-1.91,-1.90,-2.27,-0.62,-0.62,-0.61
68.69,1.37,1.98,1.37,1.98,-1.98,-1.95,-2.29,-0.61,-0.61,-0.61
69.37,1.44,2.05,1.44,2.05,-2.05,-2.01,-2.31,-0.61,-0.61,-0.61
70.07,1.52,2.13,1.51,2.13,-2.12,-2.06,-2.33,-0.60,-0.61,-0.61
70.77,1.58,2.19,1.58,2.19,-2.19,-2.12,-2.35,-0.61,-0.61,-0.61
71.48,1.65,2.26,1.65,2.26,-2.26,-2.17,-2.37,-0.61,-0.61,-0.61
72.19,1.72,2.32,1.72,2.32,-2.33,-2.23,-2.38,-0.61,-0.61,-0.60
72.91,1.79,2.39,1.79,2.39,-2.39,-2.28,-2.40,-0.61,-0.61,-0.60
73.64,1.86,2.46,1.86,2.46,-2.46,-2.33,-2.41,-0.60,-0.60,-0.60
74.38,1.93,2.52,1.93,2.53,-2.52,-2.38,-2.43,-0.59,-0.59,-0.59
75.12,2.00,2.59,2.00,2.59,-2.58,-2.43,-2.44,-0.59,-0.59,-0.59
75.87,2.07,2.66,2.06,2.65,-2.65,-2.48,-2.46,-0.58,-0.58,-0.59
76.63,2.12,2.70,2.12,2.71,-2.70,-2.54,-2.47,-0.59,-0.58,-0.58
77.40,2.18,2.76,2.18,2.76,-2.76,-2.59,-2.49,-0.58,-0.58,-0.58
78.17,2.24,2.81,2.24,2.82,-2.82,-2.63,-2.51,-0.58,-0.58,-0.57
78.95,2.31,2.88,2.30,2.87,-2.88,-2.68,-2.52,-0.57,-0.57,-0.57
79.74,2.36,2.93,2.36,2.93,-2.93,-2.73,-2.54,-0.57,-0.57,-0.57
80.54,2.42,2.98,2.42,2.99,-2.99,-2.78,-2.57,-0.57,-0.57,-0.56
81.35,2.48,3.04,2.48,3.04,-3.04,-2.83,-2.59,-0.56,-0.56,-0.56
82.16,2.54,3.10,2.54,3.10,-3.09,-2.88,-2.61,-0.56,-0.56,-0.56
82.98,2.59,3.15,2.59,3.15,-3.14,-2.92,-2.64,-0.55,-0.55,-0.56
83.81,2.63,3.19,2.63,3.19,-3.18,-2.97,-2.67,-0.56,-0.55,-0.56
84.65,2.68,3.24,2.67,3.23,-3.22,-3.01,-2.70,-0.55,-0.55,-0.56
85.50,2.71,3.26,2.71,3.26,-3.26,-3.06,-2.73,-0.55,-0.55,-0.55
86.35,2.74,3.29,2.74,3.29,-3.29,-3.10,-2.77,-0.56,-0.55,-0.55
87.22,2.77,3.32,2.77,3.32,-3.33,-3.15,-2.80,-0.56,-0.56,-0.55
88.09,2.80,3.35,2.80,3.35,-3.36,-3.19,-2.84,-0.56,-0.56,-0.55
88.97,2.84,3.39,2.83,3.39,-3.39,-3.24,-2.89,-0.55,-0.56,-0.55
89.86,2.87,3.42,2.87,3.42,-3.42,-3.28,-2.93,-0.56,-0.55,-0.55
90.76,2.91,3.46,2.91,3.46,-3.46,-3.32,-2.98,-0.55,-0.55,-0.55
91.66,2.95,3.50,2.94,3.50,-3.50,-3.36,-3.02,-0.55,-0.55,-0.55
92.58,2.98,3.53,2.98,3.53,-3.54,-3.40,-3.08,-0.56,-0.55,-0.55
93.51,3.02,3.57,3.02,3.57,-3.57,-3.45,-3.13,-0.55,-0.55,-0.55
94.44,3.06,3.61,3.06,3.61,-3.60,-3.49,-3.18,-0.54,-0.55,-0.55
95.39,3.09,3.64,3.09,3.64,-3.63,-3.53,-3.24,-0.54,-0.54,-0.55
96.34,3.12,3.67,3.12,3.66,-3.66,-3.57,-3.30,-0.54,-0.54,-0.55
97.30,3.14,3.68,3.14,3.68,-3.68,-3.60,-3.36,-0.54,-0.54,-0.54
98.28,3.16,3.70,3.16,3.70,-3.71,-3.64,-3.42,-0.55,-0.55,-0.54
99.26,3.18,3.72,3.18,3.72,-3.73,-3.68,-3.49,-0.55,-0.55,-0.54
100.25,3.20,3.74,3.20,3.74,-3.75,-3.72,-3.55,-0.55,-0.54,-0.54
101.25,3.23,3.77,3.23,3.77,-3.76,-3.75,-3.62,-0.54,-0.54,-0.54
102.27,3.25,3.79,3.25,3.79,-3.78,-3.79,-3.69,-0.53,-0.53,-0.54
103.29,3.27,3.81,3.27,3.81,-3.80,-3.82,-3.76,-0.53,-0.53,-0.54
104.32,3.29,3.82,3.29,3.82,-3.82,-3.86,-3.83,-0.53,-0.53,-0.53
105.37,3.31,3.84,3.31,3.84,-3.84,-3.89,-3.90,-0.54,-0.54,-0.53
106.42,3.33,3.86,3.33,3.86,-3.87,-3.93,-3.96,-0.54,-0.54,-0.53
107.48,3.36,3.88,3.36,3.88,-3.89,-3.96,-4.03,-0.53,-0.53,-0.52
108.56,3.39,3.91,3.39,3.91,-3.92,-3.99,-4.10,-0.53,-0.53,-0.52
109.64,3.43,3.95,3.43,3.95,-3.95,-4.02,-4.17,-0.52,-0.52,-0.52
110.74,3.46,3.98,3.46,3.98,-3.97,-4.05,-4.23,-0.51,-0.51,-0.52
111.85,3.50,4.01,3.49,4.01,-4.00,-4.08,-4.29,-0.50,-0.50,-0.51
112.97,3.52,4.03,3.52,4.03,-4.02,-4.11,-4.35,-0.50,-0.50,-0.51
114.10,3.54,4.05,3.54,4.05,-4.04,-4.14,-4.41,-0.50,-0.51,-0.51
115.24,3.55,4.06,3.55,4.06,-4.06,-4.16,-4.46,-0.51,-0.51,-0.51
116.39,3.56,4.07,3.56,4.07,-4.07,-4.19,-4.51,-0.51,-0.51,-0.51
117.55,3.58,4.08,3.58,4.08,-4.09,-4.22,-4.56,-0.51,-0.51,-0.50
118.73,3.60,4.10,3.60,4.10,-4.10,-4.24,-4.60,-0.50,-0.50,-0.50
119.92,3.62,4.12,3.62,4.12,-4.12,-4.27,-4.64,-0.50,-0.50,-0.50
121.12,3.64,4.13,3.64,4.13,-4.14,-4.29,-4.67,-0.50,-0.50,-0.49
122.33,3.66,4.15,3.66,4.15,-4.16,-4.31,-4.70,-0.50,-0.50,-0.49
123.55,3.69,4.17,3.69,4.18,-4.18,-4.33,-4.72,-0.49,-0.49,-0.48
124.79,3.73,4.21,3.73,4.21,-4.21,-4.35,-4.73,-0.48,-0.48,-0.48
126.03,3.77,4.25,3.76,4.24,-4.24,-4.37,-4.74,-0.47,-0.48,-0.48
127.29,3.79,4.26,3.79,4.27,-4.27,-4.39,-4.75,-0.48,-0.47,-0.47
128.57,3.82,4.29,3.82,4.29,-4.29,-4.41,-4.75,-0.47,-0.47,-0.47
129.85,3.86,4.32,3.85,4.32,-4.32,-4.43,-4.74,-0.46,-0.46,-0.46
131.15,3.88,4.34,3.88,4.34,-4.33,-4.44,-4.73,-0.46,-0.46,-0.46
132.46,3.89,4.35,3.89,4.35,-4.35,-4.46,-4.71,-0.46,-0.45,-0.46
133.79,3.90,4.36,3.90,4.36,-4.35,-4.47,-4.69,-0.46,-0.45,-0.46
135.12,3.91,4.37,3.90,4.36,-4.36,-4.49,-4.66,-0.45,-0.45,-0.46
136.48,3.90,4.36,3.90,4.36,-4.36,-4.50,-4.64,-0.46,-0.46,-0.46
137.84,3.90,4.35,3.90,4.35,-4.36,-4.51,-4.60,-0.46,-0.46,-0.45
139.22,3.89,4.34,3.89,4.34,-4.35,-4.52,-4.57,-0.46,-0.46,-0.45
140.61,3.89,4.34,3.89,4.34,-4.35,-4.53,-4.53,-0.46,-0.46,-0.45
142.02,3.89,4.34,3.89,4.34,-4.34,-4.54,-4.49,-0.45,-0.45,-0.45
143.44,3.89,4.34,3.89,4.34,-4.34,-4.55,-4.45,-0.45,-0.45,-0.45
144.87,3.89,4.33,3.89,4.33,-4.33,-4.56,-4.41,-0.44,-0.44,-0.44
146.32,3.89,4.33,3.89,4.33,-4.33,-4.56,-4.37,-0.44,-0.44,-0.44
147.78,3.89,4.33,3.89,4.33,-4.33,-4.57,-4.32,-0.44,-0.44,-0.44
149.26,3.89,4.32,3.89,4.32,-4.32,-4.57,-4.28,-0.43,-0.43,-0.43
150.75,3.89,4.32,3.89,4.32,-4.32,-4.57,-4.24,-0.43,-0.43,-0.43
152.26,3.89,4.32,3.89,4.32,-4.32,-4.58,-4.19,-0.43,-0.43,-0.43
153.78,3.89,4.31,3.89,4.31,-4.31,-4.58,-4.15,-0.42,-0.42,-0.42
155.32,3.89,4.31,3.89,4.31,-4.31,-4.58,-4.11,-0.42,-0.42,-0.42
156.88,3.89,4.31,3.89,4.31,-4.31,-4.58,-4.08,-0.42,-0.42,-0.42
158.44,3.89,4.30,3.89,4.30,-4.30,-4.57,-4.04,-0.42,-0.42,-0.41
160.03,3.89,4.30,3.89,4.30,-4.30,-4.57,-4.01,-0.41,-0.41,-0.41
161.63,3.89,4.30,3.89,4.30,-4.30,-4.57,-3.97,-0.41,-0.41,-0.41
163.24,3.89,4.30,3.89,4.30,-4.30,-4.56,-3.94,-0.41,-0.41,-0.41
164.88,3.89,4.30,3.89,4.30,-4.29,-4.56,-3.92,-0.41,-0.41,-0.41
166.53,3.89,4.29,3.89,4.29,-4.29,-4.55,-3.89,-0.40,-0.40,-0.40
168.19,3.89,4.29,3.89,4.29,-4.29,-4.54,-3.87,-0.40,-0.40,-0.40
169.87,3.89,4.29,3.89,4.29,-4.29,-4.53,-3.85,-0.40,-0.40,-0.40
171.57,3.89,4.28,3.89,4.28,-4.28,-4.53,-3.83,-0.40,-0.40,-0.39
173.29,3.89,4.28,3.89,4.28,-4.28,-4.52,-3.82,-0.39,-0.39,-0.39
175.02,3.89,4.28,3.89,4.28,-4.28,-4.50,-3.81,-0.39,-0.39,-0.39
176.77,3.89,4.28,3.89,4.28,-4.27,-4.49,-3.80,-0.39,-0.39,-0.39
178.54,3.89,4.27,3.89,4.27,-4.27,-4.48,-3.80,-0.39,-0.39,-0.38
180.32,3.89,4.27,3.89,4.27,-4.27,-4.47,-3.80,-0.39,-0.39,-0.38
182.13,3.89,4.27,3.89,4.27,-4.27,-4.45,-3.80,-0.39,-0.39,-0.38
183.95,3.89,4.27,3.89,4.27,-4.27,-4.44,-3.80,-0.39,-0.39,-0.38
185.79,3.89,4.28,3.89,4.28,-4.28,-4.42,-3.81,-0.39,-0.39,-0.39
187.65,3.89,4.28,3.89,4.28,-4.28,-4.40,-3.82,-0.39,-0.39,-0.39
189.52,3.89,4.28,3.89,4.28,-4.28,-4.39,-3.83,-0.39,-0.39,-0.39
191.42,3.89,4.28,3.89,4.28,-4.28,-4.37,-3.85,-0.39,-0.39,-0.39
193.33,3.89,4.27,3.89,4.27,-4.27,-4.35,-3.86,-0.39,-0.39,-0.38
195.27,3.89,4.27,3.89,4.27,-4.27,-4.33,-3.88,-0.38,-0.38,-0.38
197.22,3.89,4.27,3.89,4.27,-4.27,-4.31,-3.91,-0.38,-0.38,-0.38
199.19,3.89,4.27,3.89,4.27,-4.27,-4.29,-3.93,-0.38,-0.38,-0.38
201.18,3.89,4.26,3.89,4.26,-4.26,-4.27,-3.96,-0.37,-0.37,-0.37
203.19,3.89,4.26,3.89,4.26,-4.26,-4.24,-3.98,-0.37,-0.37,-0.37
205.23,3.89,4.26,3.89,4.26,-4.26,-4.22,-4.01,-0.37,-0.37,-0.37
207.28,3.89,4.25,3.89,4.25,-4.25,-4.20,-4.04,-0.36,-0.36,-0.36
209.35,3.89,4.25,3.89,4.25,-4.25,-4.17,-4.07,-0.36,-0.36,-0.36
211.44,3.89,4.25,3.89,4.25,-4.25,-4.15,-4.11,-0.36,-0.36,-0.36
213.56,3.89,4.24,3.89,4.24,-4.24,-4.12,-4.14,-0.36,-0.36,-0.35
215.69,3.89,4.24,3.89,4.24,-4.24,-4.10,-4.17,-0.35,-0.36,-0.35
217.85,3.89,4.24,3.89,4.24,-4.24,-4.07,-4.20,-0.36,-0.36,-0.35
220.03,3.89,4.24,3.89,4.24,-4.25,-4.04,-4.23,-0.36,-0.35,-0.35
222.23,3.90,4.24,3.90,4.24,-4.25,-4.02,-4.26,-0.35,-0.35,-0.34
224.45,3.90,4.24,3.90,4.25,-4.25,-3.99,-4.29,-0.35,-0.34,-0.34
226.70,3.91,4.25,3.91,4.25,-4.24,-3.96,-4.31,-0.33,-0.33,-0.34
228.96,3.91,4.25,3.91,4.24,-4.24,-3.93,-4.33,-0.33,-0.33,-0.34
231.25,3.90,4.23,3.90,4.23,-4.22,-3.90,-4.35,-0.33,-0.33,-0.33
233.57,3.88,4.21,3.88,4.21,-4.21,-3.87,-4.37,-0.33,-0.33,-0.33
235.90,3.86,4.18,3.86,4.19,-4.18,-3.84,-4.38,-0.33,-0.32,-0.32
238.26,3.84,4.16,3.84,4.16,-4.15,-3.81,-4.39,-0.32,-0.32,-0.32
240.64,3.82,4.13,3.81,4.12,-4.12,-3.78,-4.40,-0.30,-0.31,-0.31
243.05,3.78,4.08,3.78,4.09,-4.08,-3.75,-4.40,-0.30,-0.30,-0.30
245.48,3.75,4.05,3.75,4.04,-4.04,-3.72,-4.39,-0.30,-0.30,-0.30
247.93,3.71,4.00,3.71,4.00,-4.01,-3.68,-4.39,-0.30,-0.30,-0.29
250.41,3.68,3.96,3.68,3.96,-3.97,-3.65,-4.37,-0.29,-0.29,-0.28
252.92,3.65,3.92,3.65,3.93,-3.94,-3.62,-4.35,-0.29,-0.28,-0.27
255.45,3.63,3.90,3.63,3.90,-3.90,-3.59,-4.33,-0.27,-0.27,-0.27
258.00,3.62,3.88,3.61,3.88,-3.87,-3.55,-4.30,-0.25,-0.26,-0.26
260.58,3.59,3.85,3.59,3.85,-3.84,-3.52,-4.27,-0.25,-0.25,-0.26
263.19,3.57,3.82,3.57,3.82,-3.82,-3.49,-4.23,-0.25,-0.25,-0.25
265.82,3.54,3.79,3.54,3.79,-3.79,-3.45,-4.19,-0.26,-0.25,-0.25
268.48,3.52,3.76,3.52,3.77,-3.77,-3.42,-4.14,-0.25,-0.25,-0.24
271.16,3.51,3.75,3.50,3.74,-3.75,-3.39,-4.09,-0.24,-0.25,-0.24
273.87,3.48,3.72,3.48,3.72,-3.72,-3.35,-4.04,-0.24,-0.24,-0.24
276.61,3.46,3.69,3.46,3.70,-3.69,-3.32,-3.99,-0.23,-0.23,-0.23
279.38,3.44,3.67,3.44,3.67,-3.66,-3.29,-3.93,-0.22,-0.22,-0.23
282.17,3.41,3.64,3.41,3.64,-3.63,-3.25,-3.87,-0.22,-0.22,-0.23
284.99,3.38,3.60,3.37,3.59,-3.59,-3.22,-3.80,-0.21,-0.22,-0.22
287.84,3.32,3.54,3.32,3.54,-3.54,-3.18,-3.74,-0.22,-0.22,-0.22
290.72,3.27,3.49,3.27,3.50,-3.50,-3.15,-3.67,-0.23,-0.22,-0.22
293.63,3.23,3.45,3.23,3.45,-3.45,-3.11,-3.61,-0.22,-0.23,-0.22
296.57,3.19,3.41,3.18,3.40,-3.41,-3.08,-3.54,-0.22,-0.22,-0.22
299.53,3.14,3.36,3.14,3.36,-3.37,-3.04,-3.47,-0.23,-0.22,-0.22
302.53,3.10,3.31,3.10,3.32,-3.33,-3.01,-3.41,-0.23,-0.22,-0.21
305.55,3.07,3.28,3.07,3.28,-3.29,-2.98,-3.34,-0.22,-0.22,-0.21
308.61,3.05,3.25,3.05,3.25,-3.25,-2.94,-3.27,-0.21,-0.21,-0.20
311.69,3.03,3.23,3.03,3.23,-3.22,-2.91,-3.21,-0.19,-0.19,-0.20
314.81,3.01,3.20,3.00,3.20,-3.18,-2.87,-3.14,-0.17,-0.18,-0.19
317.96,2.97,3.16,2.97,3.16,-3.15,-2.84,-3.08,-0.18,-0.18,-0.19
321.14,2.93,3.11,2.93,3.12,-3.11,-2.80,-3.02,-0.18,-0.18,-0.18
324.35,2.89,3.07,2.89,3.07,-3.07,-2.77,-2.96,-0.18,-0.18,-0.18
327.59,2.85,3.03,2.85,3.03,-3.03,-2.73,-2.90,-0.19,-0.19,-0.18
330.87,2.81,2.98,2.81,2.99,-3.00,-2.70,-2.84,-0.19,-0.19,-0.17
334.18,2.78,2.95,2.78,2.95,-2.96,-2.67,-2.78,-0.18,-0.18,-0.17
337.52,2.76,2.92,2.76,2.92,-2.93,-2.63,-2.73,-0.17,-0.16,-0.16
340.90,2.75,2.90,2.74,2.90,-2.89,-2.60,-2.68,-0.14,-0.15,-0.15
344.30,2.72,2.87,2.72,2.87,-2.85,-2.56,-2.63,-0.14,-0.14,-0.15
347.75,2.68,2.83,2.68,2.83,-2.82,-2.53,-2.58,-0.14,-0.13,-0.15
351.23,2.64,2.79,2.64,2.79,-2.78,-2.50,-2.53,-0.14,-0.14,-0.15
354.74,2.60,2.74,2.59,2.74,-2.74,-2.46,-2.49,-0.14,-0.14,-0.14
358.28,2.55,2.69,2.55,2.69,-2.70,-2.43,-2.45,-0.15,-0.15,-0.14
361.87,2.50,2.64,2.50,2.64,-2.66,-2.40,-2.40,-0.16,-0.16,-0.14
365.49,2.47,2.61,2.47,2.61,-2.63,-2.36,-2.37,-0.16,-0.16,-0.14
369.14,2.44,2.58,2.44,2.58,-2.59,-2.33,-2.33,-0.15,-0.15,-0.14
372.83,2.43,2.57,2.42,2.56,-2.56,-2.30,-2.29,-0.13,-0.13,-0.14
376.56,2.40,2.53,2.40,2.53,-2.52,-2.27,-2.26,-0.12,-0.12,-0.13
380.33,2.37,2.50,2.37,2.50,-2.48,-2.23,-2.23,-0.11,-0.11,-0.13
384.13,2.33,2.46,2.33,2.46,-2.44,-2.20,-2.20,-0.12,-0.12,-0.13
387.97,2.28,2.41,2.28,2.41,-2.41,-2.17,-2.17,-0.13,-0.13,-0.13
391.85,2.23,2.35,2.23,2.36,-2.37,-2.14,-2.14,-0.14,-0.13,-0.12
395.77,2.19,2.31,2.19,2.31,-2.33,-2.11,-2.12,-0.14,-0.14,-0.12
399.73,2.16,2.27,2.16,2.27,-2.29,-2.08,-2.09,-0.13,-0.13,-0.11
403.72,2.13,2.24,2.13,2.24,-2.25,-2.05,-2.07,-0.12,-0.11,-0.11
407.76,2.11,2.21,2.11,2.21,-2.21,-2.01,-2.05,-0.10,-0.10,-0.10
411.84,2.09,2.19,2.08,2.18,-2.17,-1.98,-2.03,-0.08,-0.09,-0.10
415.96,2.05,2.14,2.05,2.14,-2.13,-1.95,-2.01,-0.08,-0.08,-0.09
420.12,2.01,2.10,2.01,2.10,-2.09,-1.92,-1.99,-0.08,-0.08,-0.09
424.32,1.96,2.05,1.96,2.05,-2.05,-1.89,-1.97,-0.09,-0.09,-0.09
428.56,1.91,1.99,1.91,2.00,-2.01,-1.86,-1.95,-0.10,-0.09,-0.08
432.85,1.87,1.95,1.87,1.95,-1.96,-1.83,-1.93,-0.10,-0.10,-0.08
437.18,1.83,1.91,1.83,1.91,-1.93,-1.81,-1.92,-0.10,-0.09,-0.08
441.55,1.80,1.88,1.80,1.88,-1.89,-1.78,-1.90,-0.09,-0.09,-0.08
445.96,1.78,1.86,1.77,1.85,-1.85,-1.75,-1.88,-0.07,-0.08,-0.08
450.42,1.74,1.82,1.75,1.83,-1.81,-1.72,-1.87,-0.07,-0.07,-0.08
454.93,1.72,1.80,1.71,1.79,-1.78,-1.69,-1.85,-0.06,-0.07,-0.08
459.48,1.67,1.75,1.67,1.75,-1.74,-1.66,-1.83,-0.07,-0.07,-0.08
