frequency,raw,error,smoothed,error_smoothed,equalization,parametric_eq,fixed_band_eq,equalized_raw,equalized_smoothed,target
20.00,-7.26,-5.83,-7.26,-5.82,5.83,5.52,1.64,-1.43,-1.43,-1.43
20.20,-7.15,-5.81,-7.15,-5.81,5.81,5.53,1.69,-1.34,-1.34,-1.34
20.40,-7.04,-5.79,-7.05,-5.79,5.79,5.53,1.74,-1.25,-1.26,-1.25
20.61,-6.94,-5.76,-6.94,-5.76,5.76,5.52,1.79,-1.18,-1.18,-1.19
20.81,-6.83,-5.74,-6.83,-5.73,5.73,5.51,1.84,-1.10,-1.10,-1.09
21.02,-6.72,-5.71,-6.72,-5.70,5.69,5.50,1.89,-1.03,-1.03,-1.02
21.23,-6.61,-5.66,-6.61,-5.66,5.65,5.48,1.95,-0.96,-0.96,-0.96
21.44,-6.50,-5.60,-6.50,-5.61,5.61,5.45,2.01,-0.89,-0.89,-0.89
21.66,-6.39,-5.57,-6.39,-5.56,5.56,5.42,2.06,-0.83,-0.83,-0.83
21.87,-6.28,-5.50,-6.28,-5.50,5.50,5.38,2.13,-0.77,-0.78,-0.78
22.09,-6.17,-5.44,-6.17,-5.45,5.45,5.34,2.19,-0.72,-0.72,-0.73
22.31,-6.06,-5.38,-6.06,-5.38,5.38,5.30,2.25,-0.67,-0.67,-0.68
22.54,-5.95,-5.32,-5.95,-5.32,5.32,5.25,2.32,-0.63,-0.63,-0.63
22.76,-5.84,-5.25,-5.84,-5.26,5.26,5.20,2.38,-0.58,-0.59,-0.59
22.99,-5.74,-5.19,-5.74,-5.19,5.19,5.14,2.45,-0.55,-0.54,-0.55
23.22,-5.63,-5.12,-5.63,-5.13,5.13,5.08,2.52,-0.50,-0.50,-0.51
23.45,-5.52,-5.06,-5.52,-5.06,5.06,5.02,2.60,-0.46,-0.46,-0.46
23.69,-5.41,-4.99,-5.41,-4.99,4.99,4.95,2.67,-0.42,-0.42,-0.42
23.92,-5.30,-4.92,-5.30,-4.93,4.92,4.88,2.74,-0.38,-0.38,-0.38
24.16,-5.19,-4.86,-5.19,-4.86,4.85,4.81,2.82,-0.34,-0.34,-0.33
24.40,-5.08,-4.79,-5.08,-4.79,4.78,4.74,2.90,-0.29,-0.30,-0.29
24.65,-4.97,-4.71,-4.97,-4.71,4.71,4.66,2.97,-0.26,-0.26,-0.26
24.89,-4.86,-4.64,-4.86,-4.64,4.64,4.59,3.05,-0.22,-0.22,-0.22
25.14,-4.75,-4.57,-4.75,-4.57,4.57,4.51,3.13,-0.18,-0.18,-0.18
25.39,-4.64,-4.50,-4.64,-4.50,4.50,4.43,3.21,-0.14,-0.14,-0.14
25.65,-4.54,-4.44,-4.54,-4.43,4.43,4.35,3.29,-0.11,-0.11,-0.10
25.91,-4.43,-4.36,-4.43,-4.36,4.36,4.27,3.37,-0.07,-0.07,-0.07
26.16,-4.32,-4.29,-4.32,-4.29,4.29,4.19,3.45,-0.03,-0.04,-0.03
26.43,-4.21,-4.21,-4.21,-4.21,4.21,4.11,3.52,0.00,0.00,-0.00
26.69,-4.11,-4.15,-4.11,-4.14,4.14,4.03,3.60,0.03,0.04,0.04
26.96,-4.00,-4.08,-4.00,-4.07,4.07,3.95,3.67,0.07,0.07,0.07
27.23,-3.89,-4.00,-3.89,-4.00,4.00,3.87,3.75,0.10,0.10,0.10
27.50,-3.78,-3.92,-3.78,-3.93,3.92,3.79,3.82,0.14,0.14,0.14
27.77,-3.68,-3.85,-3.68,-3.85,3.85,3.71,3.88,0.17,0.18,0.17
28.05,-3.57,-3.78,-3.57,-3.78,3.78,3.63,3.95,0.21,0.21,0.21
28.33,-3.47,-3.70,-3.47,-3.71,3.71,3.55,4.01,0.24,0.24,0.23
28.62,-3.37,-3.64,-3.37,-3.64,3.64,3.47,4.06,0.27,0.27,0.27
28.90,-3.26,-3.57,-3.26,-3.57,3.57,3.39,4.11,0.31,0.31,0.31
29.19,-3.16,-3.50,-3.16,-3.50,3.50,3.31,4.15,0.34,0.34,0.34
29.48,-3.06,-3.45,-3.06,-3.44,3.44,3.23,4.19,0.38,0.38,0.39
29.78,-2.96,-3.37,-2.96,-3.37,3.38,3.16,4.22,0.42,0.41,0.41
30.08,-2.87,-3.32,-2.87,-3.32,3.32,3.08,4.25,0.44,0.44,0.44
30.38,-2.78,-3.26,-2.78,-3.25,3.25,3.01,4.26,0.47,0.48,0.47
30.68,-2.69,-3.20,-2.69,-3.20,3.19,2.93,4.27,0.50,0.51,0.51
30.99,-2.59,-3.12,-2.60,-3.14,3.14,2.86,4.28,0.54,0.54,0.53
31.30,-2.51,-3.08,-2.51,-3.08,3.08,2.79,4.27,0.56,0.57,0.57
31.61,-2.42,-3.02,-2.42,-3.02,3.02,2.72,4.26,0.60,0.60,0.60
31.93,-2.33,-2.96,-2.33,-2.96,2.96,2.65,4.24,0.63,0.63,0.63
32.24,-2.24,-2.89,-2.24,-2.90,2.90,2.58,4.21,0.66,0.65,0.65
32.57,-2.16,-2.84,-2.16,-2.84,2.84,2.51,4.18,0.67,0.68,0.68
32.89,-2.07,-2.78,-2.07,-2.78,2.77,2.45,4.14,0.70,0.70,0.71
33.22,-1.98,-2.71,-1.98,-2.72,2.71,2.38,4.09,0.73,0.73,0.73
33.55,-1.90,-2.65,-1.90,-2.65,2.65,2.32,4.03,0.75,0.75,0.75
33.89,-1.81,-2.58,-1.81,-2.58,2.59,2.25,3.97,0.77,0.78,0.77
34.23,-1.72,-2.52,-1.72,-2.52,2.52,2.19,3.91,0.80,0.80,0.80
34.57,-1.64,-2.46,-1.64,-2.45,2.45,2.13,3.84,0.81,0.81,0.82
34.92,-1.56,-2.39,-1.56,-2.39,2.39,2.07,3.76,0.83,0.83,0.82
35.27,-1.48,-2.33,-1.48,-2.32,2.32,2.01,3.68,0.84,0.84,0.85
35.62,-1.39,-2.25,-1.39,-2.25,2.25,1.95,3.60,0.86,0.86,0.86
35.97,-1.31,-2.18,-1.31,-2.18,2.19,1.89,3.51,0.88,0.88,0.87
36.33,-1.23,-2.12,-1.23,-2.11,2.12,1.84,3.42,0.89,0.89,0.89
36.70,-1.15,-2.04,-1.15,-2.05,2.05,1.78,3.33,0.90,0.90,0.89
37.06,-1.08,-1.98,-1.08,-1.98,1.98,1.73,3.24,0.90,0.90,0.90
37.43,-1.00,-1.92,-1.00,-1.91,1.91,1.67,3.15,0.91,0.91,0.92
37.81,-0.92,-1.85,-0.92,-1.85,1.84,1.62,3.05,0.92,0.92,0.93
38.19,-0.84,-1.77,-0.84,-1.78,1.77,1.57,2.96,0.93,0.93,0.93
38.57,-0.77,-1.71,-0.77,-1.70,1.70,1.52,2.86,0.93,0.94,0.94
38.95,-0.69,-1.63,-0.69,-1.63,1.63,1.47,2.77,0.94,0.94,0.94
39.34,-0.62,-1.55,-0.62,-1.56,1.56,1.42,2.67,0.94,0.94,0.93
39.74,-0.55,-1.49,-0.55,-1.48,1.48,1.37,2.57,0.93,0.94,0.94
40.14,-0.47,-1.41,-0.47,-1.41,1.41,1.32,2.48,0.94,0.94,0.94
40.54,-0.40,-1.34,-0.40,-1.34,1.34,1.28,2.38,0.94,0.94,0.93
40.94,-0.32,-1.26,-0.32,-1.26,1.27,1.23,2.29,0.95,0.94,0.94
41.35,-0.25,-1.19,-0.25,-1.19,1.20,1.19,2.20,0.95,0.95,0.94
41.76,-0.18,-1.12,-0.18,-1.12,1.13,1.14,2.11,0.95,0.95,0.94
42.18,-0.11,-1.06,-0.11,-1.06,1.06,1.10,2.02,0.95,0.95,0.95
42.60,-0.04,-0.99,-0.04,-0.99,0.99,1.05,1.93,0.95,0.95,0.95
43.03,0.03,-0.92,0.03,-0.92,0.91,1.01,1.84,0.94,0.94,0.95
43.46,0.10,-0.85,0.10,-0.85,0.84,0.97,1.75,0.94,0.94,0.95
43.90,0.16,-0.77,0.16,-0.77,0.77,0.93,1.67,0.93,0.94,0.93
44.33,0.23,-0.70,0.23,-0.70,0.70,0.89,1.58,0.93,0.93,0.93
44.78,0.30,-0.62,0.30,-0.63,0.63,0.85,1.50,0.93,0.92,0.92
45.23,0.36,-0.56,0.36,-0.55,0.56,0.81,1.42,0.92,0.92,0.92
45.68,0.43,-0.48,0.43,-0.49,0.49,0.77,1.34,0.92,0.92,0.91
46.13,0.49,-0.42,0.49,-0.42,0.43,0.74,1.26,0.92,0.92,0.91
46.60,0.55,-0.36,0.55,-0.36,0.36,0.70,1.18,0.91,0.91,0.91
47.06,0.61,-0.31,0.61,-0.31,0.30,0.66,1.10,0.91,0.91,0.92
47.53,0.66,-0.25,0.66,-0.25,0.25,0.63,1.03,0.91,0.91,0.91
48.01,0.72,-0.20,0.71,-0.20,0.19,0.59,0.95,0.91,0.91,0.92
48.49,0.76,-0.15,0.76,-0.15,0.14,0.55,0.88,0.90,0.90,0.91
48.97,0.81,-0.09,0.81,-0.09,0.09,0.52,0.81,0.90,0.90,0.90
49.46,0.85,-0.04,0.85,-0.04,0.05,0.48,0.73,0.90,0.90,0.89
49.96,0.89,0.00,0.89,-0.01,0.01,0.45,0.66,0.90,0.90,0.89
50.46,0.92,0.01,0.92,0.02,-0.02,0.42,0.60,0.90,0.90,0.91
50.96,0.95,0.04,0.95,0.04,-0.04,0.38,0.53,0.91,0.91,0.91
51.47,0.97,0.07,0.97,0.06,-0.06,0.35,0.46,0.91,0.91,0.90
51.99,0.99,0.08,0.99,0.08,-0.07,0.32,0.40,0.91,0.92,0.91
52.51,1.01,0.08,1.01,0.08,-0.08,0.28,0.33,0.93,0.92,0.92
53.03,1.02,0.08,1.02,0.09,-0.09,0.25,0.27,0.93,0.93,0.94
53.56,1.03,0.09,1.03,0.09,-0.09,0.22,0.21,0.94,0.93,0.94
54.10,1.03,0.09,1.03,0.09,-0.10,0.19,0.15,0.93,0.94,0.94
54.64,1.04,0.09,1.04,0.10,-0.10,0.16,0.09,0.94,0.94,0.95
55.18,1.05,0.10,1.04,0.10,-0.10,0.13,0.03,0.95,0.94,0.95
55.74,1.04,0.09,1.04,0.10,-0.10,0.09,-0.03,0.94,0.94,0.94
56.29,1.04,0.10,1.04,0.09,-0.10,0.06,-0.08,0.94,0.94,0.94
56.86,1.03,0.09,1.03,0.09,-0.09,0.03,-0.13,0.94,0.94,0.94
57.42,1.03,0.10,1.03,0.09,-0.09,0.00,-0.19,0.94,0.94,0.93
58.00,1.02,0.09,1.02,0.09,-0.08,-0.03,-0.24,0.94,0.94,0.93
58.58,1.00,0.07,1.00,0.08,-0.07,-0.06,-0.29,0.92,0.93,0.93
59.16,0.99,0.07,0.99,0.06,-0.07,-0.09,-0.33,0.92,0.92,0.92
59.76,0.97,0.05,0.98,0.06,-0.07,-0.12,-0.38,0.90,0.90,0.92
60.35,0.97,0.06,0.97,0.06,-0.07,-0.15,-0.42,0.90,0.90,0.90
60.96,0.96,0.07,0.96,0.07,-0.07,-0.18,-0.47,0.89,0.89,0.89
61.57,0.95,0.08,0.95,0.09,-0.08,-0.21,-0.51,0.87,0.87,0.86
62.18,0.95,0.11,0.94,0.10,-0.09,-0.24,-0.55,0.86,0.85,0.84
62.80,0.93,0.10,0.93,0.11,-0.10,-0.27,-0.58,0.83,0.83,0.83
63.43,0.93,0.12,0.93,0.12,-0.12,-0.30,-0.62,0.81,0.81,0.81
64.07,0.93,0.13,0.93,0.13,-0.14,-0.33,-0.65,0.78,0.79,0.80
64.71,0.95,0.16,0.95,0.16,-0.17,-0.36,-0.69,0.78,0.78,0.79
65.35,0.98,0.19,0.98,0.19,-0.20,-0.39,-0.72,0.78,0.78,0.78
66.01,1.01,0.23,1.01,0.24,-0.23,-0.42,-0.75,0.78,0.78,0.78
66.67,1.05,0.28,1.05,0.28,-0.27,-0.45,-0.78,0.78,0.78,0.77
67.33,1.08,0.31,1.08,0.31,-0.30,-0.48,-0.80,0.78,0.78,0.77
68.01,1.11,0.34,1.11,0.35,-0.34,-0.51,-0.83,0.77,0.77,0.77
68.69,1.15,0.38,1.15,0.38,-0.38,-0.53,-0.86,0.77,0.77,0.77
69.37,1.19,0.42,1.18,0.42,-0.42,-0.56,-0.88,0.77,0.76,0.77
70.07,1.22,0.46,1.22,0.46,-0.47,-0.59,-0.91,0.75,0.76,0.76
70.77,1.27,0.50,1.27,0.51,-0.52,-0.62,-0.93,0.75,0.76,0.77
71.48,1.33,0.56,1.33,0.56,-0.57,-0.66,-0.95,0.76,0.76,0.77
72.19,1.39,0.63,1.39,0.62,-0.62,-0.69,-0.98,0.77,0.76,0.76
72.91,1.44,0.68,1.44,0.69,-0.68,-0.72,-1.00,0.76,0.76,0.76
73.64,1.50,0.75,1.50,0.75,-0.74,-0.75,-1.02,0.76,0.76,0.75
74.38,1.55,0.80,1.55,0.80,-0.79,-0.78,-1.05,0.75,0.75,0.75
75.12,1.60,0.86,1.60,0.85,-0.85,-0.81,-1.07,0.75,0.75,0.74
75.87,1.64,0.89,1.64,0.90,-0.90,-0.84,-1.09,0.74,0.74,0.75
76.63,1.69,0.95,1.69,0.95,-0.95,-0.87,-1.12,0.74,0.74,0.74
77.40,1.73,0.99,1.73,0.99,-0.99,-0.90,-1.14,0.74,0.74,0.74
78.17,1.78,1.05,1.78,1.04,-1.03,-0.93,-1.16,0.75,0.74,0.73
78.95,1.82,1.07,1.82,1.07,-1.07,-0.96,-1.19,0.75,0.75,0.75
79.74,1.86,1.10,1.86,1.11,-1.11,-1.00,-1.22,0.75,0.75,0.76
80.54,1.90,1.13,1.90,1.14,-1.14,-1.03,-1.24,0.76,0.76,0.77
81.35,1.95,1.17,1.95,1.17,-1.17,-1.06,-1.27,0.78,0.77,0.77
82.16,1.99,1.21,1.99,1.20,-1.20,-1.09,-1.30,0.79,0.79,0.78
82.98,2.02,1.21,2.02,1.22,-1.22,-1.13,-1.33,0.80,0.80,0.81
83.81,2.06,1.24,2.06,1.24,-1.24,-1.16,-1.36,0.82,0.82,0.82
84.65,2.10,1.27,2.10,1.26,-1.26,-1.19,-1.39,0.84,0.84,0.83
85.50,2.14,1.28,2.14,1.28,-1.27,-1.22,-1.42,0.87,0.87,0.86
86.35,2.17,1.29,2.17,1.29,-1.28,-1.26,-1.46,0.89,0.88,0.88
87.22,2.19,1.29,2.19,1.29,-1.29,-1.29,-1.49,0.90,0.90,0.89
88.09,2.20,1.30,2.20,1.30,-1.30,-1.33,-1.53,0.90,0.91,0.90
88.97,2.22,1.29,2.22,1.30,-1.30,-1.36,-1.56,0.91,0.91,0.92
89.86,2.23,1.30,2.23,1.30,-1.31,-1.39,-1.60,0.92,0.92,0.93
90.76,2.25,1.33,2.25,1.32,-1.32,-1.43,-1.64,0.93,0.93,0.92
91.66,2.27,1.33,2.27,1.34,-1.34,-1.46,-1.68,0.93,0.93,0.94
92.58,2.29,1.37,2.29,1.36,-1.36,-1.50,-1.73,0.93,0.93,0.92
93.51,2.31,1.39,2.31,1.38,-1.38,-1.54,-1.77,0.92,0.92,0.92
94.44,2.32,1.41,2.32,1.41,-1.42,-1.57,-1.81,0.90,0.90,0.91
95.39,2.34,1.44,2.34,1.45,-1.46,-1.61,-1.86,0.88,0.88,0.90
96.34,2.37,1.50,2.37,1.50,-1.51,-1.64,-1.91,0.86,0.86,0.87
97.30,2.40,1.56,2.40,1.56,-1.56,-1.68,-1.95,0.84,0.84,0.84
98.28,2.44,1.63,2.44,1.62,-1.62,-1.72,-2.00,0.82,0.82,0.81
99.26,2.47,1.69,2.47,1.69,-1.68,-1.75,-2.05,0.79,0.79,0.78
100.25,2.49,1.75,2.49,1.75,-1.74,-1.79,-2.10,0.75,0.75,0.74
101.25,2.52,1.82,2.51,1.81,-1.80,-1.83,-2.15,0.72,0.71,0.70
102.27,2.53,1.85,2.53,1.86,-1.86,-1.87,-2.20,0.67,0.67,0.67
103.29,2.55,1.92,2.55,1.92,-1.92,-1.91,-2.26,0.63,0.63,0.63
104.32,2.57,1.97,2.57,1.97,-1.98,-1.94,-2.31,0.59,0.59,0.60
105.37,2.59,2.03,2.59,2.03,-2.04,-1.98,-2.36,0.55,0.56,0.56
106.42,2.62,2.09,2.62,2.09,-2.10,-2.02,-2.41,0.52,0.52,0.53
107.48,2.64,2.15,2.64,2.15,-2.16,-2.06,-2.46,0.48,0.48,0.49
108.56,2.67,2.22,2.67,2.22,-2.22,-2.10,-2.51,0.45,0.45,0.45
109.64,2.69,2.28,2.69,2.28,-2.28,-2.14,-2.56,0.41,0.41,0.41
110.74,2.72,2.34,2.72,2.34,-2.34,-2.18,-2.61,0.37,0.38,0.38
111.85,2.76,2.40,2.76,2.41,-2.40,-2.22,-2.66,0.35,0.35,0.36
112.97,2.80,2.49,2.79,2.47,-2.46,-2.26,-2.71,0.34,0.33,0.31
114.10,2.82,2.53,2.82,2.53,-2.52,-2.30,-2.75,0.30,0.30,0.29
115.24,2.84,2.57,2.84,2.57,-2.57,-2.35,-2.80,0.27,0.27,0.27
116.39,2.85,2.60,2.86,2.61,-2.62,-2.39,-2.84,0.23,0.24,0.25
117.55,2.88,2.66,2.88,2.66,-2.66,-2.43,-2.88,0.22,0.22,0.22
118.73,2.91,2.71,2.91,2.70,-2.70,-2.47,-2.91,0.21,0.21,0.20
119.92,2.94,2.74,2.94,2.75,-2.74,-2.51,-2.95,0.20,0.20,0.20
121.12,2.97,2.79,2.96,2.78,-2.78,-2.55,-2.98,0.19,0.18,0.18
122.33,2.98,2.82,2.98,2.82,-2.82,-2.60,-3.01,0.16,0.16,0.16
123.55,3.01,2.85,3.01,2.86,-2.86,-2.64,-3.03,0.14,0.15,0.16
124.79,3.04,2.90,3.04,2.90,-2.91,-2.68,-3.06,0.13,0.13,0.14
126.03,3.08,2.95,3.08,2.95,-2.95,-2.72,-3.08,0.13,0.12,0.13
127.29,3.11,2.99,3.11,2.99,-3.00,-2.77,-3.09,0.11,0.11,0.12
128.57,3.14,3.04,3.15,3.05,-3.04,-2.81,-3.11,0.10,0.10,0.10
129.85,3.18,3.10,3.18,3.09,-3.08,-2.85,-3.12,0.10,0.09,0.08
131.15,3.21,3.14,3.20,3.13,-3.12,-2.90,-3.13,0.09,0.08,0.07
132.46,3.22,3.16,3.23,3.17,-3.16,-2.94,-3.13,0.06,0.07,0.06
133.79,3.24,3.18,3.24,3.19,-3.19,-2.98,-3.14,0.05,0.05,0.06
135.12,3.25,3.22,3.25,3.21,-3.21,-3.03,-3.14,0.04,0.04,0.03
136.48,3.25,3.23,3.25,3.23,-3.23,-3.07,-3.14,0.02,0.02,0.02
137.84,3.25,3.25,3.25,3.25,-3.25,-3.11,-3.14,0.00,-0.00,0.00
139.22,3.24,3.27,3.24,3.26,-3.26,-3.15,-3.14,-0.02,-0.02,-0.03
140.61,3.23,3.27,3.23,3.27,-3.28,-3.20,-3.14,-0.05,-0.04,-0.04
142.02,3.23,3.28,3.23,3.29,-3.29,-3.24,-3.13,-0.06,-0.06,-0.05
143.44,3.23,3.30,3.23,3.31,-3.30,-3.28,-3.13,-0.07,-0.07,-0.07
144.87,3.23,3.33,3.23,3.33,-3.32,-3.32,-3.12,-0.09,-0.09,-0.10
146.32,3.23,3.35,3.23,3.34,-3.34,-3.37,-3.12,-0.11,-0.11,-0.13
147.78,3.22,3.35,3.22,3.36,-3.36,-3.41,-3.11,-0.14,-0.14,-0.13
149.26,3.21,3.37,3.21,3.38,-3.39,-3.45,-3.11,-0.18,-0.17,-0.16
150.75,3.21,3.41,3.21,3.40,-3.42,-3.49,-3.11,-0.21,-0.20,-0.20
152.26,3.22,3.45,3.22,3.45,-3.45,-3.53,-3.10,-0.23,-0.23,-0.23
153.78,3.24,3.49,3.24,3.49,-3.49,-3.57,-3.10,-0.25,-0.25,-0.25
155.32,3.25,3.53,3.26,3.53,-3.53,-3.61,-3.10,-0.28,-0.28,-0.28
156.88,3.28,3.59,3.27,3.58,-3.58,-3.65,-3.11,-0.30,-0.30,-0.31
158.44,3.29,3.63,3.29,3.63,-3.62,-3.69,-3.11,-0.33,-0.34,-0.34
160.03,3.30,3.68,3.30,3.68,-3.67,-3.73,-3.11,-0.37,-0.37,-0.38
161.63,3.31,3.72,3.31,3.72,-3.72,-3.76,-3.12,-0.41,-0.41,-0.41
163.24,3.32,3.76,3.33,3.76,-3.77,-3.80,-3.13,-0.45,-0.44,-0.44
164.88,3.35,3.81,3.34,3.81,-3.81,-3.84,-3.14,-0.46,-0.47,-0.46
166.53,3.37,3.86,3.37,3.86,-3.86,-3.87,-3.16,-0.49,-0.50,-0.49
168.19,3.38,3.91,3.39,3.91,-3.91,-3.91,-3.17,-0.53,-0.52,-0.53
169.87,3.41,3.96,3.41,3.96,-3.96,-3.94,-3.19,-0.55,-0.55,-0.55
171.57,3.43,4.00,3.43,4.00,-4.00,-3.98,-3.21,-0.57,-0.57,-0.57
173.29,3.45,4.05,3.45,4.05,-4.05,-4.01,-3.24,-0.60,-0.60,-0.60
175.02,3.47,4.09,3.47,4.09,-4.09,-4.04,-3.26,-0.62,-0.62,-0.62
176.77,3.48,4.13,3.48,4.13,-4.13,-4.07,-3.29,-0.65,-0.65,-0.65
178.54,3.49,4.17,3.49,4.16,-4.16,-4.10,-3.32,-0.67,-0.67,-0.68
180.32,3.50,4.19,3.50,4.19,-4.20,-4.13,-3.36,-0.70,-0.70,-0.69
182.13,3.51,4.21,3.51,4.22,-4.23,-4.16,-3.39,-0.72,-0.72,-0.70
183.95,3.53,4.25,3.53,4.25,-4.26,-4.18,-3.43,-0.73,-0.73,-0.72
185.79,3.55,4.29,3.55,4.28,-4.28,-4.21,-3.47,-0.73,-0.73,-0.74
187.65,3.56,4.31,3.56,4.32,-4.30,-4.23,-3.52,-0.74,-0.74,-0.75
189.52,3.58,4.34,3.57,4.33,-4.32,-4.25,-3.56,-0.74,-0.75,-0.76
191.42,3.57,4.35,3.57,4.35,-4.34,-4.28,-3.61,-0.77,-0.77,-0.78
193.33,3.56,4.35,3.56,4.35,-4.36,-4.30,-3.66,-0.80,-0.80,-0.79
195.27,3.56,4.36,3.56,4.36,-4.38,-4.31,-3.71,-0.82,-0.82,-0.80
197.22,3.56,4.37,3.56,4.38,-4.39,-4.33,-3.77,-0.83,-0.83,-0.81
199.19,3.57,4.41,3.57,4.40,-4.41,-4.35,-3.82,-0.84,-0.84,-0.84
201.18,3.58,4.42,3.58,4.42,-4.42,-4.36,-3.88,-0.84,-0.84,-0.84
203.19,3.58,4.43,3.58,4.43,-4.43,-4.38,-3.94,-0.85,-0.85,-0.85
205.23,3.57,4.44,3.57,4.44,-4.43,-4.39,-4.00,-0.86,-0.86,-0.87
207.28,3.56,4.43,3.56,4.44,-4.43,-4.40,-4.06,-0.87,-0.87,-0.87
209.35,3.55,4.44,3.54,4.44,-4.43,-4.41,-4.12,-0.88,-0.88,-0.89
211.44,3.52,4.43,3.52,4.42,-4.41,-4.41,-4.18,-0.90,-0.90,-0.91
213.56,3.49,4.40,3.49,4.40,-4.40,-4.42,-4.24,-0.91,-0.91,-0.91
215.69,3.45,4.36,3.45,4.37,-4.37,-4.42,-4.30,-0.92,-0.92,-0.91
217.85,3.42,4.33,3.42,4.34,-4.35,-4.43,-4.36,-0.93,-0.93,-0.92
220.03,3.39,4.32,3.39,4.32,-4.32,-4.43,-4.42,-0.93,-0.93,-0.93
222.23,3.36,4.30,3.36,4.29,-4.28,-4.43,-4.47,-0.92,-0.93,-0.94
224.45,3.33,4.26,3.33,4.26,-4.25,-4.42,-4.52,-0.92,-0.93,-0.93
226.70,3.29,4.22,3.29,4.23,-4.23,-4.42,-4.57,-0.94,-0.94,-0.93
228.96,3.26,4.20,3.26,4.20,-4.21,-4.42,-4.62,-0.95,-0.94,-0.94
231.25,3.24,4.18,3.24,4.18,-4.19,-4.41,-4.66,-0.95,-0.95,-0.94
233.57,3.22,4.16,3.22,4.17,-4.18,-4.40,-4.69,-0.96,-0.96,-0.94
235.90,3.21,4.16,3.21,4.16,-4.17,-4.39,-4.73,-0.96,-0.96,-0.95
238.26,3.21,4.17,3.21,4.17,-4.17,-4.38,-4.75,-0.96,-0.96,-0.97
240.64,3.21,4.17,3.21,4.18,-4.17,-4.37,-4.77,-0.96,-0.96,-0.96
243.05,3.22,4.19,3.22,4.18,-4.18,-4.35,-4.79,-0.96,-0.96,-0.97
245.48,3.23,4.19,3.23,4.19,-4.18,-4.34,-4.80,-0.96,-0.96,-0.96
247.93,3.23,4.20,3.23,4.20,-4.19,-4.32,-4.80,-0.96,-0.96,-0.97
250.41,3.23,4.20,3.23,4.19,-4.19,-4.30,-4.80,-0.96,-0.96,-0.97
252.92,3.23,4.19,3.23,4.19,-4.18,-4.29,-4.79,-0.95,-0.95,-0.96
255.45,3.23,4.17,3.23,4.18,-4.18,-4.26,-4.77,-0.95,-0.95,-0.94
258.00,3.23,4.16,3.23,4.16,-4.16,-4.24,-4.75,-0.94,-0.94,-0.93
260.58,3.23,4.16,3.23,4.15,-4.15,-4.22,-4.72,-0.92,-0.92,-0.93
263.19,3.23,4.13,3.23,4.14,-4.14,-4.20,-4.69,-0.91,-0.91,-0.90
265.82,3.23,4.13,3.23,4.12,-4.12,-4.17,-4.65,-0.89,-0.89,-0.90
268.48,3.23,4.11,3.23,4.11,-4.11,-4.14,-4.61,-0.88,-0.88,-0.88
271.16,3.23,4.09,3.23,4.09,-4.10,-4.12,-4.56,-0.87,-0.87,-0.86
273.87,3.23,4.08,3.23,4.08,-4.09,-4.09,-4.50,-0.86,-0.86,-0.85
276.61,3.24,4.07,3.24,4.07,-4.08,-4.06,-4.45,-0.84,-0.84,-0.83
279.38,3.25,4.07,3.25,4.07,-4.07,-4.03,-4.38,-0.82,-0.82,-0.82
282.17,3.25,4.07,3.25,4.06,-4.05,-4.00,-4.32,-0.80,-0.80,-0.82
284.99,3.25,4.04,3.25,4.04,-4.03,-3.96,-4.25,-0.78,-0.79,-0.79
287.84,3.24,4.02,3.24,4.02,-4.01,-3.93,-4.19,-0.77,-0.77,-0.78
290.72,3.22,3.98,3.22,3.98,-3.98,-3.90,-4.11,-0.76,-0.76,-0.76
293.63,3.20,3.95,3.20,3.94,-3.94,-3.86,-4.04,-0.74,-0.75,-0.75
296.57,3.17,3.89,3.17,3.90,-3.90,-3.83,-3.97,-0.73,-0.73,-0.72
299.53,3.14,3.85,3.14,3.85,-3.85,-3.79,-3.90,-0.71,-0.71,-0.71
302.53,3.11,3.80,3.11,3.80,-3.79,-3.75,-3.83,-0.68,-0.68,-0.69
305.55,3.08,3.74,3.07,3.74,-3.73,-3.72,-3.75,-0.65,-0.66,-0.66
308.61,3.04,3.68,3.04,3.68,-3.67,-3.68,-3.68,-0.63,-0.63,-0.64
311.69,3.00,3.61,3.01,3.61,-3.62,-3.64,-3.61,-0.62,-0.61,-0.61
314.81,2.98,3.55,2.98,3.56,-3.56,-3.60,-3.54,-0.58,-0.58,-0.57
317.96,2.95,3.50,2.95,3.50,-3.51,-3.56,-3.47,-0.56,-0.56,-0.55
321.14,2.93,3.46,2.93,3.45,-3.46,-3.52,-3.40,-0.53,-0.54,-0.53
324.35,2.90,3.41,2.91,3.41,-3.42,-3.48,-3.33,-0.52,-0.52,-0.51
327.59,2.90,3.38,2.90,3.38,-3.39,-3.44,-3.27,-0.49,-0.49,-0.48
330.87,2.90,3.35,2.90,3.36,-3.36,-3.40,-3.21,-0.46,-0.46,-0.45
334.18,2.91,3.34,2.91,3.34,-3.33,-3.36,-3.15,-0.43,-0.43,-0.43
337.52,2.92,3.32,2.91,3.32,-3.31,-3.32,-3.09,-0.39,-0.39,-0.40
340.90,2.91,3.29,2.91,3.29,-3.28,-3.28,-3.03,-0.37,-0.36,-0.38
344.30,2.90,3.25,2.90,3.25,-3.24,-3.24,-2.98,-0.34,-0.34,-0.35
347.75,2.89,3.22,2.88,3.21,-3.20,-3.20,-2.93,-0.31,-0.32,-0.33
351.23,2.86,3.16,2.86,3.16,-3.16,-3.16,-2.87,-0.30,-0.30,-0.30
354.74,2.83,3.10,2.83,3.11,-3.10,-3.12,-2.83,-0.28,-0.27,-0.27
358.28,2.80,3.05,2.80,3.05,-3.05,-3.07,-2.78,-0.25,-0.25,-0.25
361.87,2.77,2.99,2.77,2.99,-2.99,-3.03,-2.74,-0.22,-0.23,-0.22
365.49,2.73,2.93,2.73,2.94,-2.94,-2.99,-2.70,-0.21,-0.21,-0.20
369.14,2.70,2.88,2.70,2.88,-2.89,-2.95,-2.66,-0.19,-0.19,-0.19
372.83,2.67,2.84,2.67,2.83,-2.84,-2.91,-2.62,-0.17,-0.17,-0.17
376.56,2.64,2.79,2.64,2.78,-2.79,-2.87,-2.59,-0.15,-0.15,-0.15
380.33,2.62,2.74,2.62,2.74,-2.75,-2.83,-2.55,-0.13,-0.13,-0.12
384.13,2.60,2.71,2.60,2.71,-2.72,-2.78,-2.52,-0.12,-0.12,-0.11
387.97,2.59,2.69,2.59,2.68,-2.68,-2.74,-2.49,-0.10,-0.10,-0.10
391.85,2.57,2.66,2.57,2.66,-2.65,-2.70,-2.47,-0.08,-0.08,-0.09
395.77,2.55,2.62,2.55,2.63,-2.62,-2.66,-2.44,-0.07,-0.07,-0.07
399.73,2.54,2.60,2.54,2.60,-2.59,-2.62,-2.42,-0.05,-0.06,-0.06
403.72,2.52,2.57,2.52,2.57,-2.56,-2.58,-2.39,-0.04,-0.04,-0.05
407.76,2.50,2.54,2.49,2.53,-2.53,-2.54,-2.37,-0.03,-0.03,-0.04
411.84,2.46,2.48,2.46,2.49,-2.49,-2.50,-2.35,-0.03,-0.03,-0.02
415.96,2.43,2.45,2.43,2.46,-2.46,-2.46,-2.33,-0.03,-0.03,-0.03
420.12,2.40,2.43,2.39,2.42,-2.42,-2.42,-2.32,-0.02,-0.03,-0.03
424.32,2.36,2.39,2.36,2.39,-2.39,-2.38,-2.30,-0.03,-0.03,-0.03
428.56,2.33,2.36,2.33,2.36,-2.36,-2.34,-2.28,-0.03,-0.03,-0.03
432.85,2.31,2.34,2.30,2.33,-2.34,-2.30,-2.27,-0.03,-0.04,-0.03
437.18,2.28,2.31,2.29,2.31,-2.32,-2.26,-2.25,-0.04,-0.04,-0.03
441.55,2.27,2.30,2.27,2.30,-2.31,-2.23,-2.24,-0.04,-0.04,-0.03
445.96,2.27,2.30,2.26,2.30,-2.30,-2.19,-2.22,-0.03,-0.04,-0.03
450.42,2.26,2.30,2.26,2.30,-2.29,-2.15,-2.21,-0.03,-0.03,-0.04
454.93,2.25,2.29,2.25,2.29,-2.28,-2.11,-2.19,-0.03,-0.03,-0.04
459.48,2.24,2.28,2.24,2.28,-2.27,-2.08,-2.18,-0.03,-0.03,-0.04
464.07,2.22,2.26,2.22,2.26,-2.25,-2.04,-2.16,-0.03,-0.03,-0.04
468.71,2.21,2.24,2.20,2.24,-2.23,-2.00,-2.14,-0.02,-0.03,-0.03
473.40,2.17,2.21,2.18,2.21,-2.21,-1.96,-2.12,-0.04,-0.03,-0.04
478.13,2.15,2.18,2.14,2.18,-2.18,-1.93,-2.10,-0.03,-0.04,-0.03
482.91,2.11,2.15,2.11,2.15,-2.15,-1.89,-2.08,-0.04,-0.04,-0.04
487.74,2.08,2.11,2.08,2.12,-2.12,-1.86,-2.06,-0.04,-0.04,-0.03
492.62,2.06,2.08,2.06,2.08,-2.09,-1.82,-2.04,-0.03,-0.03,-0.02
497.55,2.03,2.05,2.03,2.05,-2.05,-1.79,-2.01,-0.02,-0.02,-0.02
502.52,2.01,2.02,2.01,2.02,-2.02,-1.75,-1.98,-0.01,-0.01,-0.01
