frequency,raw,error,smoothed,error_smoothed,equalization,parametric_eq,fixed_band_eq,equalized_raw,equalized_smoothed,target
20.00,7.34,6.44,7.34,6.44,-6.45,-6.46,-3.34,0.89,0.89,0.90
20.20,7.35,6.48,7.34,6.47,-6.47,-6.49,-3.43,0.87,0.87,0.87
20.40,7.35,6.50,7.35,6.50,-6.50,-6.52,-3.52,0.85,0.85,0.85
20.61,7.36,6.53,7.36,6.53,-6.53,-6.55,-3.62,0.83,0.83,0.83
20.81,7.37,6.56,7.36,6.56,-6.56,-6.58,-3.72,0.81,0.80,0.81
21.02,7.38,6.59,7.38,6.59,-6.59,-6.61,-3.82,0.79,0.79,0.79
21.23,7.39,6.62,7.39,6.62,-6.62,-6.64,-3.93,0.76,0.77,0.77
21.44,7.41,6.66,7.40,6.66,-6.66,-6.66,-4.04,0.75,0.75,0.75
21.66,7.42,6.69,7.42,6.69,-6.69,-6.69,-4.15,0.73,0.73,0.73
21.87,7.44,6.72,7.44,6.72,-6.72,-6.72,-4.26,0.71,0.71,0.72
22.09,7.46,6.76,7.45,6.76,-6.76,-6.75,-4.38,0.70,0.70,0.70
22.31,7.48,6.79,7.48,6.79,-6.80,-6.77,-4.50,0.68,0.68,0.69
22.54,7.51,6.83,7.51,6.83,-6.83,-6.80,-4.63,0.67,0.67,0.68
22.76,7.54,6.87,7.54,6.87,-6.87,-6.83,-4.76,0.66,0.66,0.67
22.99,7.57,6.91,7.57,6.91,-6.91,-6.85,-4.89,0.65,0.65,0.66
23.22,7.60,6.95,7.60,6.95,-6.95,-6.88,-5.02,0.64,0.64,0.65
23.45,7.63,6.99,7.62,6.99,-6.99,-6.90,-5.16,0.64,0.64,0.64
23.69,7.65,7.02,7.65,7.02,-7.02,-6.93,-5.30,0.63,0.63,0.63
23.92,7.68,7.05,7.68,7.05,-7.05,-6.95,-5.44,0.63,0.63,0.63
24.16,7.70,7.08,7.69,7.08,-7.07,-6.97,-5.59,0.63,0.63,0.62
24.40,7.71,7.09,7.71,7.09,-7.08,-7.00,-5.73,0.62,0.62,0.62
24.65,7.71,7.10,7.71,7.10,-7.09,-7.02,-5.88,0.61,0.62,0.61
24.89,7.71,7.10,7.70,7.10,-7.10,-7.04,-6.04,0.61,0.61,0.61
25.14,7.70,7.10,7.70,7.10,-7.10,-7.06,-6.19,0.59,0.59,0.60
25.39,7.69,7.10,7.69,7.10,-7.11,-7.09,-6.35,0.58,0.58,0.59
25.65,7.69,7.10,7.69,7.11,-7.11,-7.11,-6.51,0.57,0.57,0.59
25.91,7.70,7.12,7.69,7.11,-7.12,-7.13,-6.67,0.57,0.57,0.58
26.16,7.71,7.13,7.71,7.13,-7.14,-7.15,-6.83,0.57,0.57,0.58
26.43,7.73,7.15,7.73,7.16,-7.16,-7.17,-6.98,0.56,0.57,0.58
26.69,7.76,7.19,7.75,7.19,-7.19,-7.19,-7.14,0.57,0.57,0.57
26.96,7.79,7.22,7.78,7.22,-7.22,-7.21,-7.30,0.57,0.57,0.57
27.23,7.82,7.26,7.82,7.26,-7.25,-7.23,-7.45,0.56,0.56,0.56
27.50,7.85,7.29,7.85,7.29,-7.29,-7.25,-7.61,0.56,0.56,0.56
27.77,7.88,7.32,7.88,7.32,-7.32,-7.27,-7.75,0.55,0.55,0.56
28.05,7.91,7.36,7.91,7.36,-7.36,-7.28,-7.90,0.55,0.55,0.55
28.33,7.94,7.39,7.94,7.39,-7.39,-7.30,-8.03,0.55,0.55,0.55
28.62,7.97,7.42,7.96,7.42,-7.42,-7.32,-8.17,0.55,0.54,0.55
28.90,7.99,7.45,7.99,7.45,-7.45,-7.33,-8.29,0.54,0.54,0.54
29.19,8.01,7.47,8.01,7.47,-7.47,-7.35,-8.40,0.54,0.54,0.54
29.48,8.03,7.49,8.02,7.49,-7.48,-7.37,-8.51,0.54,0.54,0.54
29.78,8.04,7.50,8.03,7.50,-7.50,-7.38,-8.60,0.54,0.54,0.54
30.08,8.04,7.50,8.04,7.51,-7.50,-7.40,-8.69,0.53,0.54,0.54
30.38,8.04,7.51,8.04,7.51,-7.51,-7.41,-8.76,0.53,0.53,0.53
30.68,8.04,7.51,8.03,7.51,-7.51,-7.42,-8.82,0.53,0.53,0.53
30.99,8.03,7.50,8.03,7.50,-7.51,-7.44,-8.87,0.52,0.52,0.53
31.30,8.03,7.50,8.02,7.50,-7.50,-7.45,-8.90,0.52,0.52,0.53
31.61,8.02,7.50,8.02,7.50,-7.50,-7.46,-8.92,0.51,0.51,0.52
31.93,8.02,7.50,8.02,7.50,-7.50,-7.48,-8.93,0.51,0.51,0.52
32.24,8.02,7.50,8.02,7.50,-7.50,-7.49,-8.93,0.51,0.51,0.52
32.57,8.02,7.51,8.02,7.51,-7.51,-7.50,-8.92,0.51,0.51,0.51
32.89,8.02,7.51,8.02,7.51,-7.51,-7.51,-8.89,0.51,0.51,0.51
33.22,8.02,7.51,8.02,7.51,-7.51,-7.52,-8.85,0.50,0.50,0.51
33.55,8.02,7.52,8.02,7.52,-7.52,-7.53,-8.81,0.50,0.50,0.50
33.89,8.02,7.52,8.02,7.52,-7.52,-7.54,-8.75,0.50,0.50,0.50
34.23,8.02,7.52,8.02,7.52,-7.52,-7.55,-8.69,0.49,0.49,0.50
34.57,8.02,7.53,8.02,7.53,-7.53,-7.56,-8.62,0.49,0.49,0.49
34.92,8.02,7.53,8.02,7.53,-7.53,-7.57,-8.55,0.49,0.49,0.49
35.27,8.02,7.53,8.02,7.53,-7.53,-7.58,-8.47,0.48,0.48,0.49
35.62,8.02,7.54,8.02,7.54,-7.54,-7.58,-8.39,0.48,0.48,0.48
35.97,8.02,7.54,8.02,7.54,-7.54,-7.59,-8.31,0.48,0.48,0.48
36.33,8.02,7.54,8.02,7.54,-7.54,-7.60,-8.22,0.48,0.48,0.48
36.70,8.02,7.54,8.02,7.54,-7.54,-7.60,-8.14,0.47,0.47,0.48
37.06,8.02,7.54,8.02,7.54,-7.54,-7.61,-8.05,0.47,0.47,0.48
37.43,8.02,7.55,8.02,7.55,-7.55,-7.62,-7.96,0.47,0.47,0.47
37.81,8.02,7.55,8.02,7.55,-7.55,-7.62,-7.88,0.47,0.47,0.47
38.19,8.02,7.55,8.02,7.55,-7.55,-7.63,-7.80,0.46,0.46,0.47
38.57,8.02,7.56,8.02,7.56,-7.56,-7.63,-7.72,0.46,0.46,0.46
38.95,8.02,7.56,8.02,7.56,-7.56,-7.63,-7.64,0.45,0.45,0.46
39.34,8.02,7.57,8.02,7.57,-7.57,-7.64,-7.57,0.45,0.45,0.45
39.74,8.02,7.57,8.02,7.57,-7.57,-7.64,-7.50,0.44,0.44,0.45
40.14,8.02,7.58,8.02,7.58,-7.58,-7.64,-7.43,0.44,0.44,0.44
40.54,8.02,7.58,8.02,7.58,-7.58,-7.65,-7.37,0.44,0.44,0.44
40.94,8.02,7.58,8.02,7.58,-7.58,-7.65,-7.31,0.44,0.44,0.44
41.35,8.02,7.58,8.02,7.58,-7.58,-7.65,-7.26,0.44,0.44,0.44
41.76,8.02,7.58,8.02,7.58,-7.58,-7.65,-7.21,0.44,0.44,0.44
42.18,8.02,7.58,8.02,7.58,-7.58,-7.65,-7.17,0.44,0.44,0.44
42.60,8.02,7.58,8.02,7.58,-7.58,-7.65,-7.13,0.44,0.44,0.44
43.03,8.02,7.57,8.02,7.57,-7.57,-7.65,-7.10,0.44,0.44,0.45
43.46,8.02,7.57,8.02,7.57,-7.57,-7.65,-7.07,0.44,0.44,0.45
43.90,8.02,7.57,8.02,7.57,-7.57,-7.65,-7.05,0.44,0.44,0.45
44.33,8.02,7.57,8.02,7.57,-7.57,-7.65,-7.03,0.45,0.45,0.45
44.78,8.02,7.57,8.02,7.57,-7.57,-7.65,-7.02,0.45,0.45,0.45
45.23,8.02,7.57,8.02,7.57,-7.57,-7.65,-7.01,0.45,0.45,0.45
45.68,8.02,7.57,8.02,7.57,-7.57,-7.65,-7.01,0.45,0.45,0.45
46.13,8.02,7.57,8.02,7.57,-7.57,-7.64,-7.01,0.44,0.44,0.45
46.60,8.02,7.57,8.02,7.57,-7.57,-7.64,-7.02,0.44,0.44,0.45
47.06,8.02,7.57,8.02,7.57,-7.57,-7.64,-7.04,0.44,0.44,0.45
47.53,8.02,7.58,8.02,7.58,-7.58,-7.63,-7.06,0.44,0.44,0.44
48.01,8.02,7.58,8.02,7.58,-7.58,-7.63,-7.08,0.44,0.44,0.44
48.49,8.02,7.58,8.02,7.58,-7.58,-7.62,-7.11,0.44,0.44,0.44
48.97,8.02,7.58,8.02,7.58,-7.58,-7.62,-7.14,0.44,0.44,0.44
49.46,8.02,7.58,8.02,7.58,-7.58,-7.62,-7.18,0.44,0.44,0.44
49.96,8.02,7.58,8.02,7.58,-7.58,-7.61,-7.22,0.44,0.44,0.44
50.46,8.02,7.58,8.02,7.58,-7.58,-7.60,-7.26,0.44,0.44,0.44
50.96,8.02,7.58,8.02,7.58,-7.58,-7.60,-7.31,0.44,0.44,0.44
51.47,8.02,7.57,8.02,7.57,-7.58,-7.59,-7.36,0.44,0.44,0.45
51.99,8.02,7.57,8.02,7.57,-7.57,-7.59,-7.41,0.44,0.44,0.45
52.51,8.02,7.57,8.02,7.57,-7.57,-7.58,-7.46,0.45,0.45,0.45
53.03,8.02,7.57,8.02,7.57,-7.57,-7.57,-7.52,0.45,0.45,0.45
53.56,8.02,7.57,8.02,7.57,-7.57,-7.57,-7.57,0.45,0.45,0.45
54.10,8.02,7.56,8.02,7.56,-7.56,-7.56,-7.63,0.45,0.45,0.46
54.64,8.02,7.56,8.02,7.56,-7.56,-7.55,-7.69,0.46,0.46,0.46
55.18,8.02,7.56,8.02,7.56,-7.56,-7.54,-7.74,0.46,0.46,0.46
55.74,8.02,7.56,8.02,7.56,-7.56,-7.53,-7.79,0.46,0.46,0.46
56.29,8.02,7.55,8.02,7.55,-7.56,-7.53,-7.85,0.46,0.46,0.47
56.86,8.02,7.55,8.02,7.55,-7.56,-7.52,-7.90,0.46,0.46,0.47
57.42,8.02,7.55,8.02,7.55,-7.56,-7.51,-7.94,0.46,0.46,0.47
58.00,8.03,7.55,8.03,7.56,-7.56,-7.50,-7.98,0.47,0.47,0.48
58.58,8.04,7.56,8.04,7.56,-7.56,-7.49,-8.02,0.48,0.48,0.48
59.16,8.05,7.57,8.04,7.56,-7.56,-7.48,-8.05,0.49,0.48,0.48
59.76,8.05,7.56,8.04,7.56,-7.56,-7.47,-8.07,0.49,0.49,0.49
60.35,8.04,7.55,8.04,7.55,-7.55,-7.46,-8.09,0.49,0.49,0.49
60.96,8.03,7.54,8.03,7.54,-7.54,-7.45,-8.11,0.49,0.49,0.49
61.57,8.01,7.52,8.01,7.52,-7.52,-7.44,-8.11,0.49,0.49,0.49
62.18,7.99,7.50,7.98,7.50,-7.50,-7.43,-8.11,0.49,0.49,0.49
62.80,7.96,7.47,7.96,7.47,-7.47,-7.42,-8.10,0.49,0.49,0.49
63.43,7.93,7.44,7.93,7.44,-7.44,-7.41,-8.08,0.48,0.48,0.49
64.07,7.90,7.41,7.90,7.41,-7.41,-7.39,-8.05,0.48,0.48,0.49
64.71,7.87,7.38,7.87,7.38,-7.38,-7.38,-8.02,0.49,0.49,0.49
65.35,7.84,7.35,7.84,7.35,-7.35,-7.37,-7.98,0.49,0.49,0.49
66.01,7.81,7.32,7.81,7.32,-7.32,-7.36,-7.94,0.49,0.49,0.49
66.67,7.78,7.29,7.78,7.29,-7.29,-7.35,-7.88,0.49,0.49,0.49
67.33,7.75,7.26,7.75,7.26,-7.26,-7.34,-7.83,0.48,0.49,0.49
68.01,7.73,7.24,7.72,7.24,-7.24,-7.32,-7.76,0.49,0.48,0.49
68.69,7.71,7.22,7.70,7.22,-7.22,-7.31,-7.70,0.48,0.48,0.49
69.37,7.69,7.20,7.69,7.20,-7.21,-7.30,-7.63,0.48,0.48,0.49
70.07,7.68,7.19,7.68,7.19,-7.20,-7.29,-7.55,0.48,0.48,0.49
70.77,7.68,7.19,7.68,7.19,-7.19,-7.27,-7.47,0.48,0.48,0.49
71.48,7.68,7.18,7.68,7.19,-7.19,-7.26,-7.40,0.49,0.49,0.50
72.19,7.69,7.19,7.68,7.19,-7.19,-7.25,-7.32,0.50,0.50,0.50
72.91,7.69,7.19,7.69,7.19,-7.19,-7.24,-7.24,0.50,0.50,0.50
73.64,7.70,7.20,7.69,7.20,-7.19,-7.22,-7.16,0.51,0.51,0.50
74.38,7.70,7.19,7.70,7.19,-7.19,-7.21,-7.08,0.51,0.51,0.51
75.12,7.70,7.19,7.70,7.19,-7.19,-7.20,-7.00,0.51,0.51,0.51
75.87,7.70,7.18,7.70,7.18,-7.19,-7.18,-6.92,0.51,0.51,0.52
76.63,7.70,7.18,7.70,7.18,-7.18,-7.17,-6.85,0.51,0.51,0.52
77.40,7.70,7.18,7.70,7.18,-7.18,-7.16,-6.78,0.51,0.51,0.52
78.17,7.70,7.17,7.70,7.18,-7.18,-7.14,-6.71,0.51,0.52,0.53
78.95,7.71,7.18,7.71,7.18,-7.18,-7.13,-6.64,0.52,0.52,0.53
79.74,7.72,7.19,7.71,7.18,-7.18,-7.12,-6.58,0.53,0.53,0.53
80.54,7.72,7.18,7.72,7.19,-7.18,-7.10,-6.52,0.54,0.54,0.54
81.35,7.72,7.18,7.71,7.18,-7.17,-7.09,-6.46,0.54,0.54,0.54
82.16,7.71,7.17,7.70,7.17,-7.16,-7.08,-6.41,0.54,0.54,0.54
82.98,7.69,7.15,7.69,7.15,-7.15,-7.06,-6.36,0.54,0.54,0.54
83.81,7.67,7.13,7.67,7.13,-7.13,-7.05,-6.32,0.54,0.54,0.54
84.65,7.65,7.10,7.64,7.10,-7.10,-7.04,-6.28,0.54,0.54,0.55
85.50,7.62,7.07,7.62,7.07,-7.07,-7.02,-6.25,0.54,0.54,0.55
86.35,7.59,7.04,7.59,7.04,-7.04,-7.01,-6.22,0.55,0.55,0.55
87.22,7.56,7.01,7.56,7.01,-7.01,-6.99,-6.19,0.55,0.55,0.55
88.09,7.53,6.98,7.52,6.98,-6.98,-6.98,-6.17,0.55,0.55,0.55
88.97,7.49,6.94,7.49,6.94,-6.94,-6.96,-6.15,0.54,0.55,0.55
89.86,7.46,6.91,7.46,6.91,-6.92,-6.95,-6.14,0.54,0.54,0.55
90.76,7.44,6.89,7.43,6.89,-6.89,-6.93,-6.13,0.54,0.54,0.55
91.66,7.41,6.86,7.41,6.87,-6.87,-6.92,-6.13,0.53,0.54,0.55
92.58,7.40,6.85,7.40,6.85,-6.85,-6.90,-6.13,0.54,0.54,0.55
93.51,7.39,6.84,7.38,6.84,-6.84,-6.88,-6.14,0.55,0.54,0.55
94.44,7.38,6.83,7.38,6.83,-6.83,-6.87,-6.15,0.55,0.55,0.55
95.39,7.37,6.82,7.37,6.82,-6.82,-6.85,-6.16,0.55,0.55,0.55
96.34,7.36,6.81,7.36,6.81,-6.81,-6.83,-6.18,0.55,0.55,0.55
97.30,7.36,6.80,7.35,6.80,-6.80,-6.81,-6.20,0.56,0.55,0.56
98.28,7.35,6.79,7.34,6.79,-6.78,-6.80,-6.23,0.56,0.56,0.56
99.26,7.33,6.77,7.33,6.77,-6.77,-6.78,-6.25,0.56,0.56,0.56
100.25,7.31,6.75,7.30,6.75,-6.74,-6.76,-6.29,0.56,0.56,0.56
101.25,7.28,6.72,7.28,6.72,-6.72,-6.74,-6.32,0.56,0.56,0.56
102.27,7.25,6.69,7.25,6.69,-6.69,-6.72,-6.36,0.56,0.56,0.56
103.29,7.22,6.66,7.22,6.66,-6.66,-6.70,-6.40,0.56,0.56,0.56
104.32,7.19,6.62,7.19,6.62,-6.62,-6.68,-6.44,0.56,0.56,0.57
105.37,7.16,6.59,7.16,6.59,-6.59,-6.65,-6.48,0.57,0.57,0.57
106.42,7.13,6.56,7.13,6.56,-6.56,-6.63,-6.52,0.57,0.57,0.57
107.48,7.10,6.52,7.10,6.53,-6.53,-6.61,-6.57,0.57,0.57,0.58
108.56,7.08,6.50,7.07,6.50,-6.51,-6.59,-6.61,0.57,0.57,0.58
109.64,7.06,6.48,7.06,6.48,-6.49,-6.57,-6.66,0.56,0.57,0.58
110.74,7.05,6.47,7.05,6.47,-6.48,-6.54,-6.70,0.57,0.57,0.58
111.85,7.05,6.47,7.04,6.47,-6.47,-6.52,-6.74,0.58,0.57,0.58
112.97,7.05,6.46,7.05,6.46,-6.46,-6.50,-6.78,0.58,0.58,0.59
114.10,7.05,6.46,7.05,6.46,-6.46,-6.47,-6.81,0.59,0.59,0.59
115.24,7.05,6.46,7.04,6.46,-6.45,-6.45,-6.84,0.60,0.59,0.59
116.39,7.04,6.45,7.04,6.45,-6.44,-6.42,-6.87,0.60,0.60,0.59
117.55,7.03,6.43,7.02,6.43,-6.43,-6.40,-6.90,0.60,0.60,0.60
118.73,7.01,6.41,7.00,6.41,-6.41,-6.38,-6.91,0.60,0.60,0.60
119.92,6.98,6.38,6.98,6.38,-6.38,-6.35,-6.93,0.59,0.60,0.60
121.12,6.96,6.36,6.95,6.36,-6.35,-6.33,-6.93,0.60,0.60,0.60
122.33,6.93,6.32,6.93,6.32,-6.32,-6.30,-6.94,0.61,0.61,0.61
123.55,6.90,6.29,6.90,6.29,-6.29,-6.28,-6.93,0.61,0.61,0.61
124.79,6.87,6.25,6.87,6.25,-6.26,-6.26,-6.92,0.61,0.61,0.62
126.03,6.84,6.22,6.83,6.22,-6.22,-6.23,-6.90,0.61,0.61,0.62
127.29,6.81,6.18,6.81,6.19,-6.20,-6.21,-6.87,0.61,0.61,0.63
128.57,6.79,6.16,6.79,6.16,-6.17,-6.18,-6.84,0.62,0.62,0.63
129.85,6.78,6.15,6.77,6.14,-6.14,-6.16,-6.80,0.63,0.63,0.63
131.15,6.76,6.13,6.76,6.13,-6.12,-6.13,-6.76,0.63,0.63,0.63
132.46,6.74,6.10,6.74,6.10,-6.10,-6.11,-6.71,0.63,0.64,0.64
133.79,6.72,6.08,6.72,6.08,-6.08,-6.08,-6.65,0.63,0.63,0.64
135.12,6.70,6.06,6.70,6.06,-6.06,-6.06,-6.59,0.63,0.63,0.64
136.48,6.68,6.04,6.68,6.04,-6.04,-6.03,-6.53,0.64,0.64,0.64
137.84,6.66,6.02,6.66,6.02,-6.02,-6.01,-6.46,0.64,0.64,0.64
139.22,6.64,6.00,6.63,6.00,-5.99,-5.98,-6.39,0.64,0.64,0.64
140.61,6.61,5.97,6.61,5.97,-5.97,-5.96,-6.32,0.64,0.64,0.64
142.02,6.59,5.94,6.58,5.94,-5.94,-5.93,-6.24,0.64,0.64,0.65
143.44,6.56,5.91,6.56,5.91,-5.91,-5.91,-6.16,0.64,0.64,0.65
144.87,6.53,5.88,6.53,5.88,-5.89,-5.88,-6.08,0.64,0.65,0.65
146.32,6.51,5.85,6.51,5.85,-5.86,-5.86,-6.00,0.65,0.65,0.66
147.78,6.49,5.83,6.48,5.83,-5.82,-5.83,-5.92,0.66,0.66,0.66
149.26,6.46,5.80,6.46,5.80,-5.79,-5.80,-5.84,0.67,0.67,0.66
150.75,6.43,5.76,6.43,5.77,-5.76,-5.78,-5.76,0.67,0.67,0.67
152.26,6.40,5.73,6.39,5.73,-5.73,-5.75,-5.68,0.67,0.67,0.67
153.78,6.36,5.69,6.36,5.69,-5.69,-5.73,-5.61,0.66,0.67,0.67
155.32,6.33,5.65,6.33,5.66,-5.66,-5.70,-5.53,0.66,0.67,0.68
156.88,6.31,5.63,6.30,5.63,-5.63,-5.67,-5.46,0.67,0.67,0.68
158.44,6.28,5.60,6.28,5.60,-5.61,-5.65,-5.39,0.67,0.67,0.68
160.03,6.26,5.58,6.26,5.58,-5.58,-5.62,-5.32,0.68,0.68,0.68
161.63,6.24,5.56,6.23,5.56,-5.55,-5.59,-5.26,0.68,0.68,0.68
163.24,6.22,5.53,6.21,5.53,-5.53,-5.56,-5.19,0.69,0.68,0.69
164.88,6.19,5.50,6.19,5.51,-5.50,-5.53,-5.13,0.68,0.69,0.69
166.53,6.17,5.48,6.17,5.48,-5.48,-5.50,-5.08,0.69,0.69,0.69
168.19,6.15,5.46,6.14,5.45,-5.45,-5.48,-5.03,0.70,0.69,0.69
169.87,6.12,5.42,6.11,5.42,-5.42,-5.45,-4.98,0.70,0.70,0.70
171.57,6.08,5.38,6.08,5.39,-5.38,-5.42,-4.93,0.69,0.70,0.70
173.29,6.05,5.35,6.05,5.35,-5.35,-5.39,-4.89,0.69,0.69,0.70
175.02,6.02,5.32,6.02,5.32,-5.32,-5.36,-4.85,0.70,0.70,0.70
176.77,5.99,5.28,5.99,5.29,-5.29,-5.32,-4.82,0.70,0.70,0.71
178.54,5.97,5.26,5.96,5.26,-5.26,-5.29,-4.79,0.70,0.70,0.71
180.32,5.94,5.23,5.94,5.23,-5.24,-5.26,-4.76,0.70,0.70,0.71
182.13,5.92,5.21,5.92,5.21,-5.21,-5.23,-4.74,0.70,0.70,0.71
183.95,5.90,5.19,5.90,5.19,-5.19,-5.20,-4.72,0.71,0.71,0.71
185.79,5.88,5.17,5.88,5.17,-5.16,-5.16,-4.70,0.71,0.71,0.71
187.65,5.86,5.15,5.85,5.15,-5.14,-5.13,-4.69,0.72,0.71,0.71
189.52,5.82,5.11,5.82,5.11,-5.11,-5.10,-4.68,0.71,0.71,0.71
191.42,5.79,5.08,5.79,5.08,-5.08,-5.06,-4.67,0.71,0.71,0.71
193.33,5.75,5.04,5.75,5.04,-5.04,-5.03,-4.67,0.70,0.70,0.71
195.27,5.72,5.01,5.71,5.01,-5.01,-5.00,-4.67,0.71,0.70,0.71
197.22,5.68,4.97,5.68,4.97,-4.98,-4.97,-4.67,0.70,0.70,0.71
199.19,5.65,4.94,5.65,4.94,-4.94,-4.93,-4.67,0.70,0.71,0.71
201.18,5.63,4.91,5.62,4.91,-4.91,-4.90,-4.68,0.71,0.71,0.72
203.19,5.60,4.88,5.60,4.88,-4.88,-4.87,-4.69,0.71,0.72,0.72
205.23,5.58,4.85,5.58,4.85,-4.86,-4.84,-4.70,0.72,0.72,0.73
207.28,5.56,4.83,5.55,4.83,-4.83,-4.81,-4.71,0.73,0.72,0.73
209.35,5.53,4.80,5.53,4.80,-4.80,-4.79,-4.72,0.72,0.73,0.73
211.44,5.52,4.78,5.51,4.78,-4.78,-4.76,-4.74,0.74,0.73,0.74
213.56,5.49,4.75,5.49,4.75,-4.75,-4.73,-4.75,0.74,0.74,0.74
215.69,5.47,4.73,5.46,4.73,-4.72,-4.71,-4.77,0.74,0.74,0.74
217.85,5.44,4.70,5.43,4.70,-4.69,-4.68,-4.79,0.74,0.74,0.74
220.03,5.41,4.66,5.41,4.67,-4.67,-4.66,-4.80,0.74,0.74,0.75
222.23,5.38,4.63,5.38,4.63,-4.64,-4.64,-4.82,0.74,0.74,0.75
224.45,5.36,4.61,5.35,4.61,-4.61,-4.61,-4.83,0.74,0.74,0.75
226.70,5.33,4.58,5.33,4.58,-4.58,-4.59,-4.84,0.74,0.75,0.75
228.96,5.31,4.55,5.31,4.56,-4.55,-4.57,-4.85,0.75,0.75,0.76
231.25,5.29,4.53,5.28,4.53,-4.52,-4.55,-4.86,0.76,0.76,0.76
233.57,5.26,4.50,5.26,4.50,-4.49,-4.53,-4.86,0.77,0.77,0.76
235.90,5.23,4.46,5.23,4.47,-4.46,-4.50,-4.86,0.77,0.77,0.77
238.26,5.20,4.43,5.20,4.43,-4.42,-4.48,-4.86,0.77,0.77,0.77
240.64,5.17,4.39,5.17,4.39,-4.39,-4.46,-4.86,0.78,0.78,0.78
243.05,5.14,4.35,5.14,4.35,-4.36,-4.43,-4.85,0.78,0.78,0.79
245.48,5.12,4.32,5.11,4.32,-4.33,-4.41,-4.83,0.78,0.78,0.80
247.93,5.10,4.30,5.10,4.30,-4.31,-4.39,-4.82,0.79,0.79,0.80
250.41,5.09,4.28,5.09,4.28,-4.30,-4.36,-4.79,0.79,0.80,0.81
252.92,5.10,4.28,5.09,4.28,-4.29,-4.34,-4.77,0.81,0.81,0.82
255.45,5.10,4.27,5.10,4.28,-4.28,-4.31,-4.74,0.82,0.82,0.83
258.00,5.11,4.28,5.11,4.28,-4.27,-4.28,-4.70,0.83,0.84,0.83
260.58,5.12,4.28,5.11,4.28,-4.27,-4.26,-4.66,0.85,0.84,0.84
263.19,5.11,4.27,5.10,4.27,-4.26,-4.23,-4.62,0.85,0.85,0.84
265.82,5.09,4.25,5.09,4.25,-4.24,-4.20,-4.57,0.85,0.85,0.84
268.48,5.07,4.22,5.07,4.23,-4.22,-4.17,-4.52,0.85,0.85,0.85
271.16,5.05,4.20,5.04,4.20,-4.20,-4.15,-4.46,0.85,0.85,0.85
273.87,5.02,4.17,5.01,4.17,-4.17,-4.12,-4.41,0.85,0.84,0.85
276.61,4.99,4.13,4.99,4.14,-4.14,-4.09,-4.35,0.84,0.85,0.86
279.38,4.96,4.10,4.96,4.10,-4.11,-4.06,-4.28,0.84,0.85,0.86
282.17,4.95,4.08,4.94,4.08,-4.08,-4.03,-4.22,0.87,0.86,0.87
284.99,4.92,4.05,4.92,4.05,-4.05,-3.99,-4.15,0.87,0.87,0.87
287.84,4.89,4.02,4.89,4.02,-4.01,-3.96,-4.09,0.87,0.87,0.87
290.72,4.86,3.99,4.85,3.99,-3.98,-3.93,-4.02,0.88,0.88,0.87
293.63,4.82,3.95,4.82,3.95,-3.94,-3.90,-3.95,0.87,0.87,0.87
296.57,4.78,3.91,4.78,3.91,-3.91,-3.87,-3.88,0.87,0.87,0.87
299.53,4.74,3.86,4.73,3.86,-3.87,-3.83,-3.81,0.86,0.86,0.88
302.53,4.70,3.82,4.70,3.82,-3.84,-3.80,-3.74,0.86,0.86,0.88
305.55,4.67,3.79,4.67,3.79,-3.81,-3.76,-3.68,0.86,0.86,0.88
308.61,4.65,3.76,4.65,3.77,-3.77,-3.73,-3.61,0.87,0.88,0.89
311.69,4.64,3.75,4.63,3.75,-3.74,-3.70,-3.54,0.90,0.89,0.89
314.81,4.62,3.72,4.61,3.72,-3.71,-3.66,-3.48,0.91,0.91,0.90
317.96,4.59,3.69,4.58,3.69,-3.67,-3.63,-3.41,0.92,0.91,0.90
321.14,4.55,3.64,4.55,3.64,-3.63,-3.59,-3.35,0.92,0.91,0.91
324.35,4.50,3.59,4.50,3.60,-3.59,-3.55,-3.29,0.91,0.91,0.91
327.59,4.46,3.55,4.45,3.54,-3.55,-3.52,-3.23,0.91,0.91,0.91
330.87,4.41,3.49,4.41,3.49,-3.50,-3.48,-3.18,0.90,0.90,0.92
334.18,4.37,3.44,4.37,3.45,-3.46,-3.45,-3.12,0.90,0.91,0.93
337.52,4.34,3.41,4.34,3.41,-3.42,-3.41,-3.07,0.91,0.92,0.93
340.90,4.32,3.38,4.31,3.38,-3.38,-3.37,-3.02,0.93,0.93,0.94
344.30,4.29,3.35,4.29,3.35,-3.35,-3.33,-2.97,0.94,0.94,0.94
347.75,4.26,3.32,4.26,3.32,-3.31,-3.30,-2.93,0.95,0.95,0.94
351.23,4.23,3.29,4.22,3.28,-3.27,-3.26,-2.88,0.96,0.95,0.94
354.74,4.18,3.23,4.18,3.24,-3.23,-3.22,-2.84,0.95,0.95,0.95
358.28,4.14,3.19,4.13,3.19,-3.19,-3.18,-2.80,0.95,0.95,0.95
361.87,4.09,3.14,4.08,3.14,-3.14,-3.14,-2.76,0.94,0.94,0.95
365.49,4.04,3.09,4.04,3.09,-3.10,-3.10,-2.73,0.93,0.93,0.95
369.14,4.00,3.05,4.00,3.05,-3.07,-3.06,-2.69,0.93,0.93,0.95
372.83,3.97,3.02,3.97,3.02,-3.03,-3.03,-2.66,0.94,0.94,0.95
376.56,3.95,2.99,3.95,2.99,-3.00,-2.99,-2.63,0.95,0.95,0.96
380.33,3.93,2.97,3.92,2.97,-2.96,-2.95,-2.61,0.97,0.96,0.96
384.13,3.90,2.94,3.90,2.94,-2.93,-2.91,-2.58,0.97,0.97,0.96
387.97,3.87,2.91,3.86,2.91,-2.89,-2.87,-2.56,0.97,0.97,0.96
391.85,3.83,2.86,3.83,2.86,-2.86,-2.83,-2.54,0.97,0.97,0.97
395.77,3.79,2.82,3.79,2.82,-2.82,-2.79,-2.52,0.97,0.96,0.97
399.73,3.75,2.77,3.75,2.77,-2.78,-2.75,-2.50,0.96,0.96,0.98
403.72,3.71,2.73,3.71,2.73,-2.75,-2.71,-2.48,0.96,0.97,0.98
407.76,3.69,2.70,3.68,2.70,-2.71,-2.67,-2.46,0.98,0.97,0.99
411.84,3.66,2.67,3.66,2.67,-2.67,-2.62,-2.45,0.99,0.99,0.99
415.96,3.64,2.64,3.64,2.64,-2.63,-2.58,-2.43,1.00,1.00,1.00
420.12,3.61,2.61,3.60,2.61,-2.60,-2.54,-2.42,1.01,1.01,1.00
424.32,3.57,2.57,3.56,2.56,-2.56,-2.50,-2.41,1.01,1.01,1.00
428.56,3.52,2.51,3.52,2.52,-2.52,-2.46,-2.39,1.00,1.00,1.01
432.85,3.48,2.47,3.48,2.47,-2.48,-2.42,-2.38,1.00,1.00,1.01
437.18,3.44,2.43,3.44,2.43,-2.44,-2.38,-2.37,1.00,1.00,1.01
441.55,3.41,2.40,3.40,2.39,-2.40,-2.34,-2.36,1.01,1.00,1.01
445.96,3.36,2.35,3.36,2.35,-2.35,-2.30,-2.34,1.00,1.01,1.01
450.42,3.32,2.31,3.32,2.31,-2.31,-2.26,-2.33,1.00,1.01,1.01
454.93,3.28,2.27,3.28,2.27,-2.27,-2.22,-2.32,1.01,1.01,1.01
459.48,3.24,2.23,3.24,2.23,-2.23,-2.17,-2.30,1.01,1.01,1.01
464.07,3.20,2.19,3.19,2.19,-2.18,-2.13,-2.29,1.01,1.01,1.01
468.71,3.15,2.14,3.15,2.14,-2.14,-2.09,-2.27,1.01,1.01,1.01
473.40,3.10,2.09,3.10,2.09,-2.09,-2.05,-2.25,1.00,1.01,1.01
478.13,3.06,2.04,3.05,2.04,-2.05,-2.01,-2.23,1.01,1.01,1.02
482.91,3.02,2.00,3.02,2.00,-2.01,-1.97,-2.21,1.01,1.01,1.02
487.74,2.98,1.96,2.98,1.96,-1.96,-1.93,-2.18,1.01,1.01,1.02
492.62,2.95,1.93,2.94,1.92,-1.92,-1.89,-2.16,1.02,1.02,1.02
497.55,2.91,1.88,2.91,1.89,-1.88,-1.85,-2.13,1.02,1.03,1.03
502.52,2.88,1.85,2.87,1.85,-1.84,-1.81,-2.10,1.03,1.03,1.03
507.55,2.84,1.81,2.83,1.81,-1.81,-1.77,-2.07,1.03,1.03,1.03
512.62,2.80,1.77,2.80,1.77,-1.77,-1.73,-2.03,1.03,1.03,1.03
517.75,2.76,1.72,2.76,1.73,-1.73,-1.69,-2.00,1.02,1.03,1.04
522.93,2.73,1.69,2.73,1.69,-1.69,-1.65,-1.96,1.03,1.03,1.04
528.16,2.70,1.66,2.69,1.66,-1.66,-1.61,-1.92,1.04,1.04,1.04
533.44,2.66,1.62,2.66,1.62,-1.62,-1.57,-1.87,1.04,1.04,1.04
538.77,2.63,1.58,2.62,1.58,-1.58,-1.53,-1.83,1.05,1.04,1.05
544.16,2.59,1.54,2.59,1.54,-1.54,-1.49,-1.78,1.04,1.04,1.05
