frequency,raw
20.00,-2.08
20.20,-2.05
20.40,-2.03
20.61,-2.00
20.81,-1.96
21.02,-1.93
21.23,-1.90
21.44,-1.87
21.66,-1.84
21.87,-1.81
22.09,-1.78
22.31,-1.75
22.54,-1.70
22.76,-1.66
22.99,-1.63
23.22,-1.59
23.45,-1.56
23.69,-1.52
23.92,-1.48
24.16,-1.45
24.40,-1.41
24.65,-1.37
24.89,-1.33
25.14,-1.29
25.39,-1.26
25.65,-1.21
25.91,-1.17
26.16,-1.13
26.43,-1.09
26.69,-1.05
26.96,-1.00
27.23,-0.97
27.50,-0.92
27.77,-0.89
28.05,-0.85
28.33,-0.82
28.62,-0.79
28.90,-0.74
29.19,-0.71
29.48,-0.67
29.78,-0.64
30.08,-0.61
30.38,-0.59
30.68,-0.57
30.99,-0.54
31.30,-0.52
31.61,-0.50
31.93,-0.47
32.24,-0.45
32.57,-0.42
32.89,-0.39
33.22,-0.36
33.55,-0.33
33.89,-0.30
34.23,-0.28
34.57,-0.25
34.92,-0.22
35.27,-0.19
35.62,-0.15
35.97,-0.11
36.33,-0.08
36.70,-0.04
37.06,-0.01
37.43,0.03
37.81,0.07
38.19,0.10
38.57,0.14
38.95,0.18
39.34,0.22
39.74,0.25
40.14,0.29
40.54,0.32
40.94,0.35
41.35,0.38
41.76,0.42
42.18,0.45
42.60,0.48
43.03,0.52
43.46,0.55
43.90,0.58
44.33,0.62
44.78,0.64
45.23,0.68
45.68,0.71
46.13,0.75
46.60,0.77
47.06,0.80
47.53,0.83
48.01,0.86
48.49,0.89
48.97,0.91
49.46,0.93
49.96,0.95
50.46,0.95
50.96,0.96
51.47,0.97
51.99,0.99
52.51,1.00
53.03,1.01
53.56,1.03
54.10,1.04
54.64,1.06
55.18,1.09
55.74,1.11
56.29,1.14
56.86,1.16
57.42,1.19
58.00,1.22
58.58,1.24
59.16,1.27
59.76,1.29
60.35,1.31
60.96,1.35
61.57,1.38
62.18,1.42
62.80,1.45
63.43,1.49
64.07,1.53
64.71,1.57
65.35,1.60
66.01,1.63
66.67,1.66
67.33,1.68
68.01,1.70
68.69,1.72
69.37,1.73
70.07,1.73
70.77,1.74
71.48,1.74
72.19,1.76
72.91,1.77
73.64,1.77
74.38,1.78
75.12,1.79
75.87,1.80
76.63,1.79
77.40,1.78
78.17,1.76
78.95,1.74
79.74,1.73
80.54,1.73
81.35,1.73
82.16,1.73
82.98,1.74
83.81,1.74
84.65,1.76
85.50,1.76
86.35,1.77
87.22,1.79
88.09,1.79
88.97,1.81
89.86,1.82
90.76,1.82
91.66,1.83
92.58,1.83
93.51,1.84
94.44,1.82
95.39,1.82
96.34,1.81
97.30,1.79
98.28,1.77
99.26,1.77
100.25,1.77
101.25,1.78
102.27,1.78
103.29,1.78
104.32,1.79
105.37,1.80
106.42,1.80
107.48,1.81
108.56,1.82
109.64,1.82
110.74,1.83
111.85,1.83
112.97,1.84
114.10,1.84
115.24,1.84
116.39,1.84
117.55,1.83
118.73,1.83
119.92,1.82
121.12,1.81
122.33,1.80
123.55,1.79
124.79,1.78
126.03,1.79
127.29,1.78
128.57,1.76
129.85,1.73
131.15,1.70
132.46,1.68
133.79,1.64
135.12,1.59
136.48,1.56
137.84,1.52
139.22,1.48
140.61,1.45
142.02,1.39
143.44,1.38
144.87,1.36
146.32,1.35
147.78,1.33
149.26,1.31
150.75,1.29
152.26,1.28
153.78,1.27
155.32,1.25
156.88,1.20
158.44,1.18
160.03,1.14
161.63,1.12
163.24,1.10
164.88,1.06
166.53,1.03
168.19,1.00
169.87,0.96
171.57,0.92
173.29,0.90
175.02,0.86
176.77,0.83
178.54,0.80
180.32,0.77
182.13,0.73
183.95,0.66
185.79,0.61
187.65,0.56
189.52,0.49
191.42,0.45
193.33,0.42
195.27,0.39
197.22,0.35
199.19,0.32
201.18,0.27
203.19,0.22
205.23,0.17
207.28,0.11
209.35,0.07
211.44,0.02
213.56,-0.02
215.69,-0.07
217.85,-0.14
220.03,-0.17
222.23,-0.22
224.45,-0.27
226.70,-0.30
228.96,-0.36
231.25,-0.39
233.57,-0.41
235.90,-0.45
238.26,-0.49
240.64,-0.52
243.05,-0.55
245.48,-0.58
247.93,-0.62
250.41,-0.63
252.92,-0.65
255.45,-0.66
258.00,-0.68
260.58,-0.70
263.19,-0.70
265.82,-0.70
268.48,-0.70
271.16,-0.69
273.87,-0.69
276.61,-0.70
279.38,-0.71
282.17,-0.72
284.99,-0.73
287.84,-0.76
290.72,-0.79
293.63,-0.82
296.57,-0.86
299.53,-0.90
302.53,-0.95
305.55,-0.98
308.61,-1.02
311.69,-1.06
314.81,-1.07
317.96,-1.10
321.14,-1.11
324.35,-1.13
327.59,-1.14
330.87,-1.15
334.18,-1.16
337.52,-1.16
340.90,-1.15
344.30,-1.14
347.75,-1.12
351.23,-1.11
354.74,-1.11
358.28,-1.10
361.87,-1.11
365.49,-1.12
369.14,-1.14
372.83,-1.16
376.56,-1.19
380.33,-1.21
384.13,-1.24
387.97,-1.27
391.85,-1.30
395.77,-1.33
399.73,-1.34
403.72,-1.36
407.76,-1.37
411.84,-1.38
415.96,-1.38
420.12,-1.40
424.32,-1.41
428.56,-1.40
432.85,-1.41
437.18,-1.42
441.55,-1.43
445.96,-1.45
450.42,-1.48
454.93,-1.48
459.48,-1.50
464.07,-1.50
468.71,-1.50
473.40,-1.49
478.13,-1.50
482.91,-1.49
487.74,-1.49
492.62,-1.49
497.55,-1.50
502.52,-1.52
507.55,-1.54
512.62,-1.58
517.75,-1.60
522.93,-1.64
528.16,-1.66
533.44,-1.68
538.77,-1.71
544.16,-1.74
549.60,-1.75
555.10,-1.75
560.65,-1.75
566.25,-1.74
571.92,-1.73
577.64,-1.72
583.41,-1.72
589.25,-1.71
595.14,-1.71
601.09,-1.70
607.10,-1.69
613.17,-1.68
619.30,-1.67
625.50,-1.65
631.75,-1.65
638.07,-1.64
644.45,-1.63
650.89,-1.63
657.40,-1.63
663.98,-1.64
670.62,-1.64
677.32,-1.64
684.10,-1.65
690.94,-1.65
697.85,-1.65
704.83,-1.65
711.87,-1.64
718.99,-1.64
726.18,-1.63
733.44,-1.61
740.78,-1.59
748.19,-1.57
755.67,-1.54
763.23,-1.50
770.86,-1.47
778.57,-1.43
786.35,-1.39
794.22,-1.35
802.16,-1.31
810.18,-1.26
818.28,-1.22
826.46,-1.17
834.73,-1.12
843.08,-1.07
851.51,-1.02
860.02,-0.97
868.62,-0.92
877.31,-0.87
886.08,-0.82
894.94,-0.77
903.89,-0.73
912.93,-0.68
922.06,-0.64
931.28,-0.59
940.59,-0.55
950.00,-0.50
959.50,-0.46
969.09,-0.41
978.78,-0.38
988.57,-0.35
998.46,-0.30
1008.44,-0.25
1018.53,-0.19
1028.71,-0.13
1039.00,-0.06
1049.39,0.02
1059.88,0.09
1070.48,0.17
1081.19,0.24
1092.00,0.32
1102.92,0.39
1113.95,0.46
1125.09,0.53
1136.34,0.60
1147.70,0.67
1159.18,0.75
1170.77,0.83
1182.48,0.90
1194.30,0.97
1206.25,1.04
1218.31,1.12
1230.49,1.20
1242.80,1.31
1255.22,1.42
1267.78,1.53
1280.45,1.64
1293.26,1.74
1306.19,1.84
1319.25,1.95
1332.45,2.05
1345.77,2.16
1359.23,2.28
1372.82,2.41
1386.55,2.53
1400.41,2.65
1414.42,2.77
1428.56,2.90
1442.85,3.02
1457.28,3.15
1471.85,3.27
1486.57,3.40
1501.43,3.53
1516.45,3.68
1531.61,3.83
1546.93,3.96
1562.40,4.08
1578.02,4.22
1593.80,4.38
1609.74,4.52
1625.84,4.67
1642.10,4.82
1658.52,4.97
1675.10,5.13
1691.85,5.29
1708.77,5.45
1725.86,5.62
1743.12,5.81
1760.55,5.99
1778.15,6.16
1795.94,6.34
1813.90,6.52
1832.03,6.71
1850.36,6.89
1868.86,7.05
1887.55,7.23
1906.42,7.41
1925.49,7.59
1944.74,7.75
1964.19,7.91
1983.83,8.07
2003.67,8.23
2023.71,8.39
2043.94,8.56
2064.38,8.70
2085.03,8.84
2105.88,8.99
2126.94,9.11
2148.20,9.23
2169.69,9.34
2191.38,9.44
2213.30,9.54
2235.43,9.63
2257.78,9.72
2280.36,9.82
2303.17,9.89
2326.20,9.96
2349.46,10.02
2372.95,10.08
2396.68,10.14
2420.65,10.19
2444.86,10.24
2469.31,10.26
2494.00,10.30
2518.94,10.32
2544.13,10.32
2569.57,10.30
2595.27,10.27
2621.22,10.23
2647.43,10.17
2673.90,10.10
2700.64,10.03
2727.65,9.95
2754.93,9.85
2782.48,9.74
2810.30,9.63
2838.40,9.52
2866.79,9.40
2895.46,9.29
2924.41,9.17
2953.65,9.06
2983.19,8.95
3013.02,8.85
3043.15,8.75
3073.58,8.63
3104.32,8.50
3135.36,8.39
3166.72,8.26
3198.38,8.13
3230.37,8.00
3262.67,7.86
3295.30,7.70
3328.25,7.54
3361.53,7.35
3395.15,7.15
3429.10,6.95
3463.39,6.71
3498.03,6.47
3533.01,6.22
3568.34,5.93
3604.02,5.67
3640.06,5.37
3676.46,5.07
3713.22,4.75
3750.36,4.43
3787.86,4.12
3825.74,3.81
3864.00,3.51
3902.64,3.22
3941.66,2.93
3981.08,2.66
4020.89,2.41
4061.10,2.16
4101.71,1.94
4142.73,1.75
4184.15,1.57
4226.00,1.42
4268.26,1.28
4310.94,1.18
4354.05,1.10
4397.59,1.04
4441.56,1.03
4485.98,1.03
4530.84,1.07
4576.15,1.15
4621.91,1.28
4668.13,1.42
4714.81,1.60
4761.96,1.83
4809.58,2.07
4857.67,2.35
4906.25,2.66
4955.31,2.99
5004.87,3.33
5054.91,3.68
5105.46,4.03
5156.52,4.36
5208.08,4.69
5260.16,5.01
5312.77,5.32
5365.89,5.60
5419.55,5.86
5473.75,6.09
5528.49,6.27
5583.77,6.42
5639.61,6.50
5696.00,6.54
5752.96,6.55
5810.49,6.50
5868.60,6.40
5927.28,6.24
5986.56,6.01
6046.42,5.75
6106.89,5.44
6167.96,5.09
6229.64,4.73
6291.93,4.33
6354.85,3.92
6418.40,3.52
6482.58,3.12
6547.41,2.73
6612.88,2.36
6679.01,2.01
6745.80,1.70
6813.26,1.41
6881.39,1.16
6950.21,0.94
7019.71,0.75
7089.91,0.57
7160.81,0.41
7232.41,0.26
7304.74,0.14
7377.79,0.04
7451.56,-0.04
7526.08,-0.09
7601.34,-0.15
7677.35,-0.19
7754.13,-0.23
7831.67,-0.27
7909.98,-0.34
7989.08,-0.42
8068.98,-0.54
8149.67,-0.72
8231.16,-0.95
8313.47,-1.27
8396.61,-1.67
8480.57,-2.13
8565.38,-2.67
8651.03,-3.26
8737.54,-3.91
8824.92,-4.55
8913.17,-5.20
9002.30,-5.82
9092.32,-6.37
9183.25,-6.82
9275.08,-7.18
9367.83,-7.39
9461.51,-7.48
9556.12,-7.43
9651.68,-7.23
9748.20,-6.94
9845.68,-6.55
9944.14,-6.09
10043.58,-5.62
10144.02,-5.16
10245.46,-4.73
10347.91,-4.37
10451.39,-4.10
10555.91,-3.93
10661.46,-3.83
10768.08,-3.82
10875.76,-3.87
10984.52,-3.98
11094.36,-4.10
11205.31,-4.26
11317.36,-4.40
11430.53,-4.51
11544.84,-4.58
11660.29,-4.59
11776.89,-4.54
11894.66,-4.42
12013.60,-4.26
12133.74,-4.08
12255.08,-3.89
12377.63,-3.73
12501.41,-3.61
12626.42,-3.53
12752.68,-3.51
12880.21,-3.56
13009.01,-3.65
13139.10,-3.76
13270.49,-3.90
13403.20,-4.07
13537.23,-4.25
13672.60,-4.44
13809.33,-4.64
13947.42,-4.84
14086.90,-5.05
14227.77,-5.25
14370.04,-5.42
14513.74,-5.55
14658.88,-5.65
14805.47,-5.72
14953.52,-5.75
15103.06,-5.75
15254.09,-5.74
15406.63,-5.72
15560.70,-5.72
15716.30,-5.75
15873.47,-5.81
16032.20,-5.91
16192.52,-6.07
16354.45,-6.29
16517.99,-6.55
16683.17,-6.88
16850.01,-7.29
17018.51,-7.77
17188.69,-8.30
17360.58,-8.88
17534.18,-9.51
17709.53,-10.18
17886.62,-10.89
18065.49,-11.54
18246.14,-12.19
18428.60,-12.84
18612.89,-13.52
18799.02,-14.21
18987.01,-14.92
19176.88,-15.63
19368.65,-16.36
19562.33,-17.10
19757.96,-17.86
19955.54,-18.64
