frequency,raw,error,smoothed,error_smoothed,equalization,parametric_eq,fixed_band_eq,equalized_raw,equalized_smoothed,target
20.00,1.03,6.19,1.03,6.19,-6.19,-6.08,-2.44,-5.16,-5.16,-5.16
20.20,1.06,6.16,1.06,6.17,-6.17,-6.07,-2.51,-5.11,-5.10,-5.10
20.40,1.10,6.15,1.10,6.14,-6.14,-6.07,-2.58,-5.04,-5.05,-5.05
20.61,1.13,6.12,1.13,6.12,-6.12,-6.06,-2.65,-4.99,-4.99,-4.99
20.81,1.16,6.10,1.16,6.10,-6.10,-6.05,-2.73,-4.94,-4.94,-4.94
21.02,1.19,6.07,1.19,6.08,-6.08,-6.04,-2.81,-4.89,-4.88,-4.88
21.23,1.23,6.06,1.23,6.06,-6.06,-6.03,-2.89,-4.83,-4.83,-4.83
21.44,1.26,6.04,1.26,6.04,-6.04,-6.02,-2.97,-4.78,-4.78,-4.78
21.66,1.29,6.02,1.29,6.02,-6.02,-6.00,-3.06,-4.73,-4.73,-4.73
21.87,1.32,6.00,1.32,6.00,-6.00,-5.99,-3.14,-4.68,-4.68,-4.68
22.09,1.35,5.98,1.35,5.98,-5.99,-5.98,-3.23,-4.64,-4.64,-4.63
22.31,1.38,5.96,1.38,5.97,-5.97,-5.97,-3.33,-4.59,-4.59,-4.58
22.54,1.42,5.96,1.42,5.96,-5.96,-5.96,-3.42,-4.54,-4.54,-4.54
22.76,1.45,5.94,1.45,5.94,-5.94,-5.94,-3.52,-4.49,-4.49,-4.49
22.99,1.48,5.93,1.48,5.93,-5.92,-5.93,-3.62,-4.44,-4.44,-4.45
23.22,1.51,5.91,1.51,5.91,-5.91,-5.91,-3.72,-4.40,-4.40,-4.40
23.45,1.53,5.89,1.53,5.89,-5.89,-5.90,-3.83,-4.36,-4.36,-4.36
23.69,1.56,5.87,1.56,5.87,-5.88,-5.88,-3.94,-4.32,-4.31,-4.31
23.92,1.59,5.86,1.59,5.86,-5.86,-5.87,-4.04,-4.27,-4.27,-4.27
24.16,1.62,5.84,1.62,5.84,-5.84,-5.85,-4.16,-4.22,-4.23,-4.22
24.40,1.64,5.82,1.64,5.83,-5.83,-5.83,-4.27,-4.19,-4.18,-4.18
24.65,1.67,5.81,1.67,5.81,-5.81,-5.82,-4.38,-4.14,-4.14,-4.14
24.89,1.70,5.80,1.70,5.80,-5.80,-5.80,-4.50,-4.10,-4.10,-4.10
25.14,1.72,5.78,1.72,5.78,-5.78,-5.78,-4.62,-4.06,-4.06,-4.06
25.39,1.75,5.77,1.75,5.77,-5.77,-5.76,-4.74,-4.01,-4.02,-4.02
25.65,1.77,5.75,1.77,5.75,-5.75,-5.74,-4.85,-3.98,-3.98,-3.98
25.91,1.79,5.73,1.79,5.73,-5.74,-5.72,-4.97,-3.95,-3.95,-3.94
26.16,1.81,5.71,1.81,5.72,-5.72,-5.70,-5.09,-3.91,-3.91,-3.90
26.43,1.83,5.70,1.83,5.70,-5.70,-5.68,-5.21,-3.87,-3.87,-3.87
26.69,1.86,5.69,1.86,5.69,-5.69,-5.66,-5.33,-3.83,-3.83,-3.83
26.96,1.88,5.67,1.88,5.68,-5.67,-5.64,-5.44,-3.79,-3.79,-3.79
27.23,1.90,5.66,1.90,5.66,-5.65,-5.62,-5.56,-3.75,-3.75,-3.76
27.50,1.92,5.64,1.92,5.64,-5.64,-5.60,-5.67,-3.72,-3.72,-3.72
27.77,1.93,5.61,1.93,5.62,-5.62,-5.58,-5.78,-3.69,-3.69,-3.68
28.05,1.95,5.60,1.95,5.60,-5.60,-5.56,-5.88,-3.65,-3.65,-3.65
28.33,1.97,5.58,1.97,5.58,-5.58,-5.53,-5.98,-3.61,-3.61,-3.61
28.62,1.99,5.56,1.99,5.56,-5.56,-5.51,-6.07,-3.57,-3.57,-3.57
28.90,2.00,5.53,2.00,5.54,-5.54,-5.49,-6.16,-3.54,-3.53,-3.53
29.19,2.02,5.52,2.02,5.51,-5.51,-5.47,-6.24,-3.49,-3.50,-3.50
29.48,2.03,5.49,2.03,5.49,-5.49,-5.44,-6.31,-3.46,-3.46,-3.46
29.78,2.04,5.46,2.04,5.47,-5.46,-5.42,-6.38,-3.43,-3.42,-3.42
30.08,2.05,5.44,2.05,5.44,-5.44,-5.39,-6.43,-3.39,-3.39,-3.39
30.38,2.06,5.41,2.06,5.41,-5.41,-5.37,-6.48,-3.35,-3.35,-3.35
30.68,2.06,5.38,2.06,5.38,-5.38,-5.34,-6.52,-3.32,-3.32,-3.32
30.99,2.07,5.35,2.07,5.35,-5.35,-5.32,-6.54,-3.28,-3.29,-3.28
31.30,2.07,5.32,2.07,5.32,-5.32,-5.29,-6.56,-3.25,-3.25,-3.25
31.61,2.07,5.29,2.07,5.29,-5.29,-5.27,-6.57,-3.22,-3.22,-3.22
31.93,2.07,5.26,2.07,5.26,-5.26,-5.24,-6.57,-3.19,-3.19,-3.19
32.24,2.07,5.23,2.07,5.23,-5.23,-5.22,-6.55,-3.16,-3.16,-3.16
32.57,2.06,5.19,2.06,5.19,-5.19,-5.19,-6.53,-3.13,-3.13,-3.13
32.89,2.05,5.15,2.05,5.16,-5.16,-5.17,-6.50,-3.11,-3.11,-3.10
33.22,2.05,5.13,2.05,5.12,-5.13,-5.14,-6.46,-3.08,-3.08,-3.08
33.55,2.04,5.09,2.04,5.09,-5.10,-5.11,-6.42,-3.06,-3.06,-3.05
33.89,2.03,5.06,2.03,5.07,-5.06,-5.09,-6.36,-3.03,-3.03,-3.03
34.23,2.03,5.04,2.03,5.03,-5.03,-5.06,-6.30,-3.00,-3.01,-3.01
34.57,2.02,5.00,2.02,5.00,-5.00,-5.03,-6.24,-2.98,-2.98,-2.98
34.92,2.01,4.97,2.01,4.97,-4.97,-5.00,-6.16,-2.96,-2.96,-2.96
35.27,2.00,4.94,2.00,4.94,-4.94,-4.98,-6.09,-2.94,-2.94,-2.94
35.62,1.99,4.91,1.99,4.91,-4.91,-4.95,-6.01,-2.92,-2.92,-2.92
35.97,1.97,4.87,1.97,4.88,-4.88,-4.92,-5.93,-2.91,-2.91,-2.90
36.33,1.96,4.85,1.96,4.85,-4.85,-4.89,-5.84,-2.89,-2.89,-2.89
36.70,1.95,4.82,1.95,4.82,-4.82,-4.87,-5.76,-2.87,-2.87,-2.87
37.06,1.94,4.79,1.94,4.79,-4.79,-4.84,-5.67,-2.85,-2.85,-2.85
37.43,1.92,4.76,1.92,4.76,-4.76,-4.81,-5.58,-2.84,-2.84,-2.84
37.81,1.91,4.73,1.91,4.73,-4.73,-4.78,-5.50,-2.82,-2.82,-2.82
38.19,1.89,4.70,1.89,4.70,-4.70,-4.76,-5.41,-2.81,-2.81,-2.81
38.57,1.88,4.68,1.88,4.68,-4.68,-4.73,-5.33,-2.80,-2.80,-2.80
38.95,1.86,4.65,1.86,4.65,-4.65,-4.70,-5.24,-2.79,-2.79,-2.79
39.34,1.84,4.62,1.84,4.62,-4.62,-4.67,-5.16,-2.78,-2.78,-2.78
39.74,1.82,4.59,1.82,4.59,-4.60,-4.64,-5.08,-2.78,-2.78,-2.77
40.14,1.80,4.57,1.80,4.57,-4.57,-4.62,-5.00,-2.77,-2.77,-2.77
40.54,1.78,4.54,1.78,4.54,-4.54,-4.59,-4.92,-2.76,-2.76,-2.76
40.94,1.76,4.51,1.76,4.51,-4.52,-4.56,-4.85,-2.76,-2.76,-2.75
41.35,1.74,4.49,1.74,4.49,-4.49,-4.53,-4.78,-2.75,-2.75,-2.75
41.76,1.72,4.46,1.72,4.46,-4.46,-4.51,-4.71,-2.74,-2.74,-2.74
42.18,1.70,4.44,1.70,4.44,-4.43,-4.48,-4.65,-2.73,-2.74,-2.74
42.60,1.67,4.40,1.67,4.40,-4.40,-4.45,-4.59,-2.73,-2.73,-2.73
43.03,1.64,4.37,1.64,4.37,-4.37,-4.42,-4.53,-2.73,-2.73,-2.73
43.46,1.61,4.33,1.61,4.33,-4.33,-4.40,-4.47,-2.72,-2.72,-2.72
43.90,1.58,4.30,1.58,4.30,-4.30,-4.37,-4.42,-2.72,-2.72,-2.72
44.33,1.55,4.26,1.55,4.26,-4.26,-4.34,-4.37,-2.71,-2.71,-2.71
44.78,1.52,4.23,1.52,4.23,-4.22,-4.32,-4.33,-2.70,-2.71,-2.71
45.23,1.48,4.18,1.48,4.19,-4.19,-4.29,-4.29,-2.71,-2.70,-2.70
45.68,1.45,4.15,1.45,4.15,-4.15,-4.27,-4.25,-2.70,-2.70,-2.70
46.13,1.41,4.11,1.41,4.11,-4.12,-4.24,-4.21,-2.71,-2.70,-2.70
46.60,1.38,4.07,1.38,4.08,-4.08,-4.21,-4.18,-2.70,-2.70,-2.69
47.06,1.36,4.05,1.35,4.05,-4.05,-4.19,-4.15,-2.69,-2.69,-2.69
47.53,1.33,4.02,1.33,4.02,-4.02,-4.16,-4.13,-2.69,-2.69,-2.69
48.01,1.30,3.98,1.30,3.99,-3.99,-4.14,-4.10,-2.69,-2.68,-2.68
48.49,1.28,3.96,1.28,3.96,-3.96,-4.12,-4.08,-2.68,-2.68,-2.68
48.97,1.25,3.93,1.25,3.93,-3.93,-4.09,-4.07,-2.68,-2.68,-2.68
49.46,1.23,3.90,1.23,3.90,-3.90,-4.07,-4.05,-2.67,-2.67,-2.67
49.96,1.20,3.87,1.20,3.87,-3.87,-4.05,-4.04,-2.67,-2.67,-2.67
50.46,1.18,3.84,1.18,3.84,-3.84,-4.02,-4.03,-2.66,-2.66,-2.66
50.96,1.15,3.81,1.15,3.81,-3.81,-4.00,-4.02,-2.66,-2.66,-2.66
51.47,1.13,3.78,1.13,3.79,-3.78,-3.98,-4.02,-2.65,-2.65,-2.65
51.99,1.11,3.76,1.11,3.76,-3.76,-3.96,-4.02,-2.65,-2.65,-2.65
52.51,1.09,3.74,1.09,3.74,-3.74,-3.94,-4.01,-2.65,-2.65,-2.65
53.03,1.07,3.71,1.07,3.72,-3.72,-3.92,-4.01,-2.65,-2.65,-2.64
53.56,1.06,3.70,1.06,3.70,-3.70,-3.90,-4.02,-2.64,-2.65,-2.64
54.10,1.05,3.69,1.05,3.69,-3.69,-3.88,-4.02,-2.64,-2.64,-2.64
54.64,1.04,3.68,1.04,3.68,-3.68,-3.86,-4.02,-2.64,-2.64,-2.64
55.18,1.04,3.68,1.04,3.68,-3.67,-3.84,-4.02,-2.63,-2.64,-2.64
55.74,1.03,3.67,1.03,3.67,-3.67,-3.83,-4.03,-2.64,-2.64,-2.64
56.29,1.02,3.67,1.02,3.67,-3.67,-3.81,-4.03,-2.65,-2.65,-2.65
56.86,1.01,3.66,1.01,3.67,-3.67,-3.79,-4.04,-2.66,-2.66,-2.65
57.42,1.01,3.67,1.01,3.67,-3.67,-3.78,-4.04,-2.66,-2.67,-2.66
58.00,1.01,3.68,1.01,3.68,-3.68,-3.76,-4.04,-2.67,-2.67,-2.67
58.58,1.01,3.69,1.01,3.69,-3.69,-3.75,-4.04,-2.68,-2.68,-2.68
59.16,1.01,3.70,1.01,3.70,-3.70,-3.74,-4.05,-2.69,-2.69,-2.69
59.76,1.01,3.71,1.01,3.71,-3.71,-3.73,-4.05,-2.70,-2.70,-2.70
60.35,1.01,3.73,1.01,3.73,-3.73,-3.72,-4.04,-2.72,-2.72,-2.72
60.96,1.01,3.74,1.01,3.74,-3.74,-3.71,-4.04,-2.73,-2.73,-2.73
61.57,1.01,3.75,1.01,3.75,-3.76,-3.70,-4.04,-2.75,-2.75,-2.74
62.18,1.01,3.77,1.01,3.77,-3.77,-3.69,-4.03,-2.76,-2.76,-2.76
62.80,1.01,3.78,1.01,3.78,-3.79,-3.68,-4.02,-2.78,-2.77,-2.77
63.43,1.02,3.80,1.02,3.80,-3.80,-3.68,-4.01,-2.78,-2.78,-2.78
64.07,1.03,3.82,1.03,3.82,-3.82,-3.67,-4.00,-2.79,-2.79,-2.79
64.71,1.04,3.84,1.04,3.84,-3.83,-3.67,-3.98,-2.79,-2.79,-2.80
65.35,1.05,3.85,1.05,3.85,-3.85,-3.66,-3.97,-2.80,-2.80,-2.80
66.01,1.06,3.86,1.06,3.86,-3.86,-3.66,-3.95,-2.80,-2.80,-2.80
66.67,1.07,3.87,1.07,3.87,-3.88,-3.66,-3.93,-2.81,-2.80,-2.80
67.33,1.09,3.89,1.09,3.89,-3.89,-3.66,-3.91,-2.80,-2.80,-2.80
68.01,1.11,3.90,1.11,3.90,-3.90,-3.66,-3.89,-2.79,-2.79,-2.79
68.69,1.14,3.92,1.14,3.92,-3.92,-3.67,-3.87,-2.78,-2.78,-2.78
69.37,1.17,3.94,1.17,3.94,-3.94,-3.67,-3.85,-2.77,-2.77,-2.77
70.07,1.19,3.95,1.20,3.96,-3.96,-3.68,-3.83,-2.77,-2.76,-2.76
70.77,1.23,3.98,1.23,3.98,-3.98,-3.69,-3.81,-2.75,-2.75,-2.75
71.48,1.27,4.00,1.27,4.00,-4.01,-3.70,-3.79,-2.74,-2.74,-2.73
72.19,1.31,4.03,1.31,4.03,-4.04,-3.71,-3.76,-2.73,-2.72,-2.72
72.91,1.35,4.06,1.35,4.06,-4.06,-3.72,-3.74,-2.71,-2.71,-2.71
73.64,1.40,4.10,1.40,4.10,-4.09,-3.73,-3.72,-2.69,-2.70,-2.70
74.38,1.44,4.13,1.44,4.13,-4.12,-3.75,-3.70,-2.68,-2.69,-2.69
75.12,1.47,4.15,1.47,4.15,-4.15,-3.77,-3.68,-2.68,-2.68,-2.68
75.87,1.50,4.17,1.50,4.18,-4.18,-3.78,-3.67,-2.68,-2.67,-2.67
76.63,1.54,4.20,1.54,4.20,-4.20,-3.80,-3.65,-2.66,-2.66,-2.66
77.40,1.57,4.23,1.57,4.23,-4.22,-3.83,-3.64,-2.65,-2.65,-2.66
78.17,1.60,4.25,1.60,4.25,-4.24,-3.85,-3.63,-2.64,-2.65,-2.65
78.95,1.62,4.26,1.62,4.26,-4.26,-3.88,-3.62,-2.64,-2.65,-2.64
79.74,1.64,4.27,1.64,4.27,-4.29,-3.91,-3.61,-2.65,-2.64,-2.63
80.54,1.67,4.29,1.67,4.29,-4.31,-3.94,-3.61,-2.64,-2.63,-2.62
81.35,1.71,4.32,1.71,4.32,-4.33,-3.97,-3.60,-2.62,-2.62,-2.61
82.16,1.75,4.35,1.75,4.35,-4.34,-4.00,-3.60,-2.59,-2.60,-2.60
82.98,1.78,4.37,1.78,4.37,-4.36,-4.03,-3.60,-2.58,-2.57,-2.59
83.81,1.81,4.38,1.81,4.38,-4.37,-4.07,-3.61,-2.56,-2.56,-2.57
84.65,1.84,4.39,1.83,4.39,-4.38,-4.11,-3.62,-2.54,-2.54,-2.55
85.50,1.85,4.38,1.85,4.39,-4.38,-4.15,-3.63,-2.53,-2.53,-2.53
86.35,1.87,4.38,1.87,4.38,-4.39,-4.19,-3.64,-2.52,-2.52,-2.51
87.22,1.89,4.38,1.89,4.38,-4.39,-4.24,-3.66,-2.50,-2.50,-2.49
88.09,1.91,4.38,1.91,4.38,-4.39,-4.28,-3.67,-2.48,-2.48,-2.47
88.97,1.94,4.39,1.94,4.39,-4.40,-4.33,-3.70,-2.46,-2.46,-2.45
89.86,1.97,4.40,1.97,4.40,-4.41,-4.37,-3.72,-2.44,-2.44,-2.43
90.76,2.01,4.42,2.01,4.42,-4.42,-4.42,-3.75,-2.41,-2.41,-2.41
91.66,2.05,4.44,2.05,4.44,-4.43,-4.47,-3.78,-2.38,-2.39,-2.39
92.58,2.08,4.45,2.08,4.46,-4.45,-4.52,-3.81,-2.37,-2.37,-2.37
93.51,2.12,4.48,2.12,4.47,-4.47,-4.57,-3.84,-2.35,-2.35,-2.36
94.44,2.14,4.48,2.14,4.49,-4.49,-4.62,-3.88,-2.35,-2.34,-2.34
95.39,2.17,4.50,2.17,4.50,-4.51,-4.67,-3.92,-2.34,-2.34,-2.33
96.34,2.19,4.51,2.19,4.52,-4.52,-4.72,-3.96,-2.33,-2.33,-2.32
97.30,2.22,4.54,2.22,4.54,-4.54,-4.77,-4.01,-2.32,-2.32,-2.32
98.28,2.25,4.56,2.25,4.56,-4.56,-4.82,-4.05,-2.31,-2.31,-2.31
99.26,2.28,4.59,2.27,4.59,-4.58,-4.87,-4.10,-2.30,-2.30,-2.31
100.25,2.29,4.60,2.29,4.60,-4.60,-4.91,-4.15,-2.31,-2.30,-2.31
101.25,2.31,4.62,2.31,4.62,-4.61,-4.95,-4.20,-2.30,-2.30,-2.31
102.27,2.32,4.63,2.32,4.63,-4.63,-4.99,-4.25,-2.31,-2.31,-2.31
103.29,2.33,4.64,2.33,4.64,-4.65,-5.03,-4.31,-2.32,-2.32,-2.31
104.32,2.34,4.66,2.34,4.66,-4.67,-5.06,-4.36,-2.33,-2.32,-2.32
105.37,2.36,4.68,2.36,4.68,-4.69,-5.09,-4.41,-2.33,-2.33,-2.32
106.42,2.38,4.71,2.38,4.71,-4.71,-5.11,-4.47,-2.33,-2.33,-2.33
107.48,2.40,4.73,2.40,4.74,-4.74,-5.13,-4.52,-2.34,-2.34,-2.33
108.56,2.43,4.77,2.43,4.77,-4.78,-5.14,-4.57,-2.35,-2.35,-2.34
109.64,2.46,4.80,2.46,4.81,-4.81,-5.15,-4.62,-2.35,-2.35,-2.34
110.74,2.50,4.85,2.50,4.85,-4.85,-5.15,-4.67,-2.35,-2.35,-2.35
111.85,2.54,4.89,2.54,4.89,-4.88,-5.15,-4.72,-2.34,-2.35,-2.35
112.97,2.58,4.93,2.58,4.93,-4.92,-5.14,-4.76,-2.34,-2.34,-2.35
114.10,2.60,4.95,2.60,4.96,-4.95,-5.12,-4.80,-2.35,-2.35,-2.35
115.24,2.63,4.98,2.63,4.98,-4.98,-5.10,-4.83,-2.35,-2.35,-2.35
116.39,2.64,4.99,2.64,4.99,-5.00,-5.07,-4.86,-2.36,-2.35,-2.35
117.55,2.66,5.00,2.66,5.01,-5.01,-5.03,-4.89,-2.35,-2.35,-2.34
118.73,2.68,5.02,2.68,5.02,-5.01,-4.99,-4.91,-2.33,-2.33,-2.34
119.92,2.70,5.03,2.69,5.02,-5.01,-4.94,-4.92,-2.31,-2.32,-2.33
121.12,2.69,5.01,2.69,5.01,-5.00,-4.89,-4.93,-2.31,-2.31,-2.32
122.33,2.68,4.98,2.68,4.99,-4.99,-4.83,-4.93,-2.31,-2.31,-2.30
123.55,2.67,4.96,2.67,4.96,-4.97,-4.77,-4.93,-2.30,-2.30,-2.29
124.79,2.65,4.93,2.65,4.93,-4.94,-4.70,-4.92,-2.29,-2.28,-2.28
126.03,2.64,4.90,2.64,4.90,-4.90,-4.63,-4.90,-2.26,-2.27,-2.26
127.29,2.62,4.87,2.62,4.87,-4.86,-4.55,-4.88,-2.24,-2.25,-2.25
128.57,2.59,4.82,2.59,4.82,-4.82,-4.48,-4.84,-2.23,-2.23,-2.23
129.85,2.55,4.77,2.55,4.77,-4.77,-4.40,-4.81,-2.22,-2.22,-2.22
131.15,2.50,4.70,2.51,4.71,-4.71,-4.31,-4.76,-2.21,-2.20,-2.20
132.46,2.46,4.65,2.45,4.65,-4.65,-4.23,-4.71,-2.19,-2.20,-2.19
133.79,2.40,4.58,2.40,4.58,-4.58,-4.14,-4.66,-2.18,-2.18,-2.18
135.12,2.33,4.50,2.34,4.51,-4.51,-4.06,-4.59,-2.18,-2.17,-2.17
136.48,2.28,4.44,2.27,4.43,-4.43,-3.97,-4.53,-2.15,-2.16,-2.16
137.84,2.19,4.34,2.20,4.36,-4.35,-3.88,-4.46,-2.16,-2.15,-2.15
139.22,2.13,4.28,2.12,4.27,-4.27,-3.79,-4.38,-2.14,-2.14,-2.15
140.61,2.05,4.19,2.04,4.18,-4.18,-3.70,-4.31,-2.13,-2.14,-2.14
142.02,1.92,4.06,1.94,4.08,-4.08,-3.62,-4.22,-2.16,-2.14,-2.14
143.44,1.85,3.98,1.84,3.98,-3.98,-3.53,-4.14,-2.13,-2.14,-2.13
144.87,1.73,3.86,1.74,3.87,-3.87,-3.44,-4.06,-2.14,-2.13,-2.13
146.32,1.65,3.78,1.64,3.76,-3.76,-3.36,-3.97,-2.11,-2.12,-2.13
147.78,1.51,3.63,1.52,3.64,-3.64,-3.28,-3.88,-2.13,-2.12,-2.12
149.26,1.40,3.52,1.40,3.52,-3.52,-3.19,-3.79,-2.12,-2.12,-2.12
150.75,1.26,3.38,1.27,3.39,-3.39,-3.11,-3.70,-2.13,-2.12,-2.12
152.26,1.15,3.27,1.15,3.27,-3.26,-3.03,-3.61,-2.11,-2.11,-2.12
153.78,1.01,3.13,1.01,3.13,-3.12,-2.96,-3.52,-2.11,-2.11,-2.12
155.32,0.89,3.00,0.88,2.99,-2.99,-2.88,-3.43,-2.10,-2.11,-2.11
156.88,0.72,2.83,0.74,2.85,-2.85,-2.81,-3.34,-2.13,-2.12,-2.11
158.44,0.61,2.72,0.60,2.71,-2.72,-2.73,-3.25,-2.11,-2.12,-2.11
160.03,0.46,2.57,0.47,2.58,-2.59,-2.66,-3.16,-2.13,-2.12,-2.11
161.63,0.35,2.45,0.35,2.46,-2.46,-2.59,-3.07,-2.11,-2.11,-2.10
163.24,0.25,2.35,0.23,2.33,-2.34,-2.53,-2.99,-2.09,-2.11,-2.10
164.88,0.11,2.21,0.13,2.23,-2.22,-2.46,-2.90,-2.11,-2.09,-2.10
166.53,0.02,2.11,0.02,2.11,-2.10,-2.40,-2.82,-2.08,-2.09,-2.09
168.19,-0.08,2.01,-0.10,1.99,-1.99,-2.33,-2.74,-2.07,-2.09,-2.09
169.87,-0.22,1.87,-0.20,1.89,-1.88,-2.27,-2.66,-2.10,-2.07,-2.09
171.57,-0.31,1.77,-0.31,1.77,-1.77,-2.21,-2.58,-2.08,-2.08,-2.08
173.29,-0.40,1.67,-0.42,1.65,-1.66,-2.16,-2.50,-2.06,-2.08,-2.07
175.02,-0.53,1.53,-0.51,1.55,-1.56,-2.10,-2.43,-2.09,-2.07,-2.06
176.77,-0.60,1.46,-0.60,1.45,-1.46,-2.05,-2.36,-2.06,-2.06,-2.06
178.54,-0.67,1.37,-0.67,1.37,-1.38,-2.00,-2.29,-2.05,-2.05,-2.04
180.32,-0.73,1.30,-0.73,1.30,-1.30,-1.95,-2.22,-2.03,-2.03,-2.03
182.13,-0.78,1.24,-0.79,1.23,-1.23,-1.90,-2.15,-2.01,-2.02,-2.02
183.95,-0.85,1.16,-0.84,1.17,-1.17,-1.85,-2.08,-2.02,-2.01,-2.01
185.79,-0.88,1.11,-0.88,1.12,-1.12,-1.80,-2.02,-2.00,-2.00,-1.99
187.65,-0.90,1.08,-0.91,1.08,-1.08,-1.76,-1.96,-1.98,-1.99,-1.98
189.52,-0.92,1.05,-0.92,1.05,-1.05,-1.71,-1.90,-1.97,-1.97,-1.97
191.42,-0.93,1.03,-0.93,1.03,-1.03,-1.67,-1.84,-1.96,-1.96,-1.96
193.33,-0.93,1.02,-0.94,1.02,-1.01,-1.63,-1.78,-1.94,-1.95,-1.95
195.27,-0.94,1.00,-0.94,1.00,-1.00,-1.59,-1.72,-1.94,-1.94,-1.94
197.22,-0.94,0.99,-0.93,1.00,-0.99,-1.55,-1.67,-1.93,-1.93,-1.93
199.19,-0.93,0.99,-0.93,0.99,-0.99,-1.52,-1.62,-1.92,-1.92,-1.92
201.18,-0.92,1.00,-0.93,0.99,-0.98,-1.48,-1.57,-1.90,-1.91,-1.92
203.19,-0.93,0.98,-0.93,0.98,-0.98,-1.44,-1.52,-1.91,-1.91,-1.91
205.23,-0.94,0.97,-0.93,0.98,-0.98,-1.41,-1.47,-1.92,-1.91,-1.91
207.28,-0.93,0.98,-0.93,0.98,-0.98,-1.38,-1.42,-1.91,-1.91,-1.91
209.35,-0.92,0.98,-0.92,0.98,-0.99,-1.34,-1.37,-1.91,-1.91,-1.90
211.44,-0.91,0.99,-0.91,0.99,-1.00,-1.31,-1.33,-1.91,-1.91,-1.90
213.56,-0.89,1.01,-0.89,1.01,-1.01,-1.28,-1.29,-1.90,-1.90,-1.90
215.69,-0.86,1.03,-0.86,1.04,-1.04,-1.25,-1.25,-1.90,-1.90,-1.89
217.85,-0.82,1.07,-0.83,1.06,-1.07,-1.23,-1.20,-1.89,-1.90,-1.89
220.03,-0.80,1.09,-0.80,1.09,-1.10,-1.20,-1.17,-1.90,-1.90,-1.89
222.23,-0.77,1.12,-0.76,1.13,-1.14,-1.17,-1.13,-1.91,-1.90,-1.89
224.45,-0.72,1.17,-0.72,1.17,-1.17,-1.15,-1.09,-1.89,-1.90,-1.89
226.70,-0.68,1.21,-0.68,1.21,-1.21,-1.12,-1.05,-1.89,-1.89,-1.89
228.96,-0.64,1.25,-0.64,1.25,-1.24,-1.10,-1.02,-1.88,-1.88,-1.89
231.25,-0.62,1.27,-0.62,1.27,-1.26,-1.07,-0.99,-1.88,-1.88,-1.89
233.57,-0.61,1.29,-0.61,1.29,-1.28,-1.05,-0.95,-1.89,-1.89,-1.90
235.90,-0.61,1.29,-0.61,1.29,-1.28,-1.03,-0.92,-1.89,-1.89,-1.90
238.26,-0.63,1.28,-0.63,1.28,-1.28,-1.01,-0.89,-1.91,-1.90,-1.91
240.64,-0.65,1.26,-0.65,1.27,-1.26,-0.98,-0.86,-1.91,-1.91,-1.91
243.05,-0.68,1.24,-0.68,1.24,-1.24,-0.96,-0.84,-1.92,-1.93,-1.92
245.48,-0.71,1.22,-0.71,1.21,-1.22,-0.94,-0.81,-1.93,-1.93,-1.93
247.93,-0.76,1.17,-0.75,1.18,-1.19,-0.93,-0.78,-1.95,-1.94,-1.93
250.41,-0.78,1.16,-0.78,1.15,-1.16,-0.91,-0.76,-1.94,-1.94,-1.94
252.92,-0.82,1.12,-0.82,1.12,-1.13,-0.89,-0.74,-1.95,-1.94,-1.94
255.45,-0.85,1.10,-0.85,1.10,-1.09,-0.87,-0.71,-1.94,-1.94,-1.95
258.00,-0.89,1.06,-0.89,1.06,-1.06,-0.85,-0.69,-1.95,-1.95,-1.95
260.58,-0.93,1.03,-0.93,1.03,-1.02,-0.84,-0.67,-1.95,-1.96,-1.96
263.19,-0.97,0.99,-0.97,0.99,-0.99,-0.82,-0.65,-1.96,-1.97,-1.96
265.82,-1.02,0.94,-1.01,0.95,-0.97,-0.81,-0.63,-1.99,-1.98,-1.96
268.48,-1.04,0.93,-1.04,0.93,-0.94,-0.79,-0.61,-1.98,-1.98,-1.97
271.16,-1.06,0.91,-1.07,0.91,-0.92,-0.78,-0.59,-1.98,-1.98,-1.97
273.87,-1.09,0.89,-1.08,0.90,-0.89,-0.76,-0.58,-1.98,-1.98,-1.98
276.61,-1.11,0.88,-1.11,0.88,-0.87,-0.75,-0.56,-1.98,-1.98,-1.99
279.38,-1.13,0.86,-1.14,0.86,-0.85,-0.74,-0.54,-1.98,-1.98,-1.99
282.17,-1.17,0.83,-1.17,0.83,-0.82,-0.73,-0.53,-1.99,-1.99,-2.00
284.99,-1.21,0.80,-1.21,0.80,-0.79,-0.71,-0.51,-2.00,-2.01,-2.01
287.84,-1.26,0.76,-1.26,0.76,-0.77,-0.70,-0.50,-2.03,-2.03,-2.02
290.72,-1.30,0.73,-1.30,0.73,-0.74,-0.69,-0.48,-2.04,-2.04,-2.03
293.63,-1.34,0.70,-1.34,0.70,-0.71,-0.68,-0.47,-2.05,-2.05,-2.04
296.57,-1.37,0.68,-1.37,0.68,-0.69,-0.67,-0.46,-2.06,-2.06,-2.05
299.53,-1.39,0.67,-1.39,0.67,-0.66,-0.66,-0.45,-2.05,-2.06,-2.06
302.53,-1.42,0.65,-1.42,0.65,-0.64,-0.65,-0.43,-2.06,-2.06,-2.07
305.55,-1.45,0.63,-1.45,0.63,-0.63,-0.64,-0.42,-2.08,-2.08,-2.08
308.61,-1.48,0.61,-1.48,0.61,-0.61,-0.63,-0.41,-2.09,-2.09,-2.09
311.69,-1.51,0.59,-1.51,0.59,-0.60,-0.62,-0.40,-2.11,-2.10,-2.10
314.81,-1.53,0.58,-1.53,0.58,-0.59,-0.61,-0.39,-2.12,-2.12,-2.11
317.96,-1.55,0.57,-1.55,0.57,-0.58,-0.60,-0.38,-2.13,-2.13,-2.12
321.14,-1.56,0.56,-1.56,0.57,-0.57,-0.60,-0.37,-2.13,-2.13,-2.12
324.35,-1.56,0.57,-1.56,0.56,-0.57,-0.59,-0.35,-2.13,-2.14,-2.13
327.59,-1.57,0.56,-1.57,0.57,-0.57,-0.58,-0.34,-2.14,-2.13,-2.13
330.87,-1.57,0.57,-1.57,0.57,-0.56,-0.58,-0.33,-2.13,-2.13,-2.14
334.18,-1.57,0.57,-1.58,0.57,-0.56,-0.57,-0.32,-2.13,-2.13,-2.14
337.52,-1.59,0.55,-1.59,0.56,-0.55,-0.56,-0.31,-2.14,-2.13,-2.14
340.90,-1.61,0.54,-1.61,0.54,-0.53,-0.56,-0.30,-2.14,-2.14,-2.15
344.30,-1.64,0.51,-1.64,0.51,-0.51,-0.55,-0.29,-2.15,-2.15,-2.15
347.75,-1.67,0.48,-1.67,0.48,-0.48,-0.55,-0.29,-2.15,-2.15,-2.15
351.23,-1.70,0.45,-1.70,0.45,-0.45,-0.54,-0.28,-2.15,-2.15,-2.15
354.74,-1.74,0.41,-1.74,0.41,-0.42,-0.54,-0.27,-2.16,-2.15,-2.15
358.28,-1.77,0.38,-1.77,0.38,-0.38,-0.53,-0.26,-2.15,-2.15,-2.15
361.87,-1.80,0.35,-1.80,0.35,-0.35,-0.53,-0.25,-2.15,-2.15,-2.15
365.49,-1.83,0.32,-1.83,0.32,-0.32,-0.52,-0.24,-2.15,-2.15,-2.15
369.14,-1.86,0.29,-1.86,0.29,-0.29,-0.52,-0.23,-2.15,-2.15,-2.15
372.83,-1.88,0.26,-1.88,0.26,-0.27,-0.52,-0.22,-2.15,-2.15,-2.14
376.56,-1.90,0.24,-1.90,0.25,-0.26,-0.52,-0.21,-2.16,-2.16,-2.14
380.33,-1.91,0.24,-1.91,0.24,-0.25,-0.51,-0.20,-2.16,-2.16,-2.15
384.13,-1.91,0.24,-1.91,0.24,-0.25,-0.51,-0.20,-2.16,-2.15,-2.15
387.97,-1.90,0.25,-1.90,0.25,-0.25,-0.51,-0.19,-2.15,-2.15,-2.15
391.85,-1.89,0.26,-1.89,0.26,-0.25,-0.51,-0.18,-2.14,-2.14,-2.15
395.77,-1.89,0.26,-1.89,0.26,-0.26,-0.51,-0.17,-2.15,-2.15,-2.15
399.73,-1.89,0.27,-1.89,0.27,-0.26,-0.50,-0.16,-2.15,-2.15,-2.16
403.72,-1.89,0.27,-1.89,0.27,-0.27,-0.50,-0.16,-2.16,-2.16,-2.16
407.76,-1.89,0.28,-1.89,0.28,-0.28,-0.50,-0.15,-2.17,-2.17,-2.17
411.84,-1.89,0.28,-1.89,0.28,-0.29,-0.50,-0.14,-2.18,-2.18,-2.17
415.96,-1.89,0.29,-1.89,0.29,-0.30,-0.50,-0.14,-2.19,-2.19,-2.18
420.12,-1.89,0.30,-1.89,0.30,-0.31,-0.50,-0.13,-2.20,-2.20,-2.19
424.32,-1.89,0.32,-1.89,0.32,-0.32,-0.51,-0.13,-2.21,-2.21,-2.21
428.56,-1.89,0.33,-1.89,0.33,-0.33,-0.51,-0.13,-2.22,-2.22,-2.22
432.85,-1.89,0.34,-1.89,0.35,-0.35,-0.51,-0.12,-2.24,-2.24,-2.23
437.18,-1.89,0.36,-1.89,0.36,-0.36,-0.51,-0.12,-2.25,-2.25,-2.25
441.55,-1.89,0.38,-1.89,0.38,-0.38,-0.51,-0.12,-2.27,-2.27,-2.27
445.96,-1.89,0.39,-1.89,0.40,-0.39,-0.51,-0.12,-2.28,-2.28,-2.28
450.42,-1.89,0.41,-1.89,0.41,-0.41,-0.52,-0.12,-2.30,-2.30,-2.30
