frequency,raw,error,smoothed,error_smoothed,equalization,parametric_eq,fixed_band_eq,equalized_raw,equalized_smoothed,target
20.00,3.20,-2.33,3.20,-2.33,2.33,2.06,0.63,5.53,5.53,5.53
20.20,3.22,-2.28,3.22,-2.28,2.29,2.04,0.65,5.51,5.50,5.50
20.40,3.24,-2.24,3.24,-2.24,2.24,2.02,0.67,5.48,5.48,5.48
20.61,3.26,-2.20,3.26,-2.20,2.19,2.00,0.69,5.45,5.45,5.46
20.81,3.28,-2.16,3.28,-2.16,2.15,1.98,0.70,5.43,5.43,5.44
21.02,3.30,-2.12,3.30,-2.11,2.11,1.96,0.72,5.41,5.41,5.42
21.23,3.33,-2.07,3.33,-2.07,2.07,1.93,0.75,5.40,5.39,5.40
21.44,3.35,-2.03,3.35,-2.03,2.03,1.91,0.77,5.38,5.38,5.38
21.66,3.37,-1.99,3.37,-1.98,1.99,1.89,0.79,5.36,5.36,5.36
21.87,3.40,-1.95,3.40,-1.95,1.95,1.87,0.81,5.35,5.35,5.35
22.09,3.42,-1.91,3.42,-1.91,1.91,1.84,0.83,5.33,5.33,5.33
22.31,3.44,-1.87,3.44,-1.87,1.88,1.82,0.86,5.32,5.32,5.31
22.54,3.46,-1.85,3.46,-1.84,1.84,1.80,0.88,5.30,5.30,5.30
22.76,3.48,-1.81,3.48,-1.81,1.81,1.77,0.91,5.29,5.29,5.29
22.99,3.50,-1.78,3.50,-1.78,1.78,1.75,0.93,5.28,5.28,5.28
23.22,3.52,-1.75,3.52,-1.75,1.75,1.73,0.96,5.27,5.27,5.27
23.45,3.54,-1.72,3.54,-1.72,1.72,1.70,0.98,5.26,5.26,5.26
23.69,3.56,-1.69,3.56,-1.70,1.70,1.68,1.01,5.25,5.25,5.25
23.92,3.58,-1.67,3.58,-1.67,1.67,1.66,1.04,5.25,5.25,5.25
24.16,3.60,-1.64,3.60,-1.64,1.64,1.63,1.07,5.24,5.24,5.24
24.40,3.63,-1.61,3.63,-1.61,1.61,1.61,1.09,5.24,5.24,5.24
24.65,3.65,-1.58,3.65,-1.58,1.58,1.58,1.12,5.23,5.23,5.23
24.89,3.67,-1.56,3.67,-1.55,1.56,1.56,1.15,5.23,5.23,5.23
25.14,3.69,-1.53,3.69,-1.53,1.53,1.54,1.18,5.22,5.22,5.22
25.39,3.71,-1.50,3.71,-1.50,1.50,1.51,1.21,5.21,5.21,5.21
25.65,3.73,-1.48,3.73,-1.48,1.48,1.49,1.24,5.21,5.20,5.21
25.91,3.74,-1.46,3.74,-1.46,1.45,1.46,1.27,5.19,5.19,5.20
26.16,3.76,-1.43,3.76,-1.43,1.43,1.44,1.29,5.19,5.19,5.19
26.43,3.78,-1.41,3.78,-1.41,1.40,1.42,1.32,5.18,5.19,5.19
26.69,3.81,-1.37,3.81,-1.38,1.38,1.39,1.35,5.19,5.19,5.18
26.96,3.83,-1.35,3.83,-1.35,1.36,1.37,1.37,5.19,5.18,5.18
27.23,3.84,-1.33,3.85,-1.33,1.33,1.35,1.40,5.17,5.18,5.17
27.50,3.86,-1.31,3.86,-1.31,1.31,1.32,1.42,5.17,5.17,5.17
27.77,3.88,-1.29,3.88,-1.29,1.29,1.30,1.45,5.17,5.16,5.17
28.05,3.89,-1.27,3.89,-1.27,1.26,1.27,1.47,5.16,5.16,5.16
28.33,3.91,-1.25,3.91,-1.25,1.24,1.25,1.49,5.15,5.15,5.16
28.62,3.93,-1.22,3.93,-1.22,1.22,1.23,1.51,5.15,5.15,5.15
28.90,3.94,-1.20,3.94,-1.20,1.20,1.20,1.52,5.14,5.15,5.14
29.19,3.96,-1.18,3.96,-1.18,1.18,1.18,1.54,5.14,5.14,5.14
29.48,3.98,-1.16,3.98,-1.16,1.16,1.16,1.55,5.14,5.14,5.14
29.78,4.00,-1.14,4.00,-1.14,1.14,1.14,1.56,5.14,5.14,5.14
30.08,4.01,-1.13,4.01,-1.12,1.12,1.11,1.57,5.13,5.13,5.14
30.38,4.03,-1.10,4.03,-1.10,1.10,1.09,1.57,5.13,5.13,5.13
30.68,4.04,-1.08,4.04,-1.08,1.08,1.07,1.57,5.12,5.13,5.12
30.99,4.06,-1.06,4.06,-1.06,1.06,1.05,1.57,5.12,5.12,5.12
31.30,4.07,-1.05,4.07,-1.05,1.04,1.02,1.57,5.11,5.11,5.12
31.61,4.08,-1.03,4.08,-1.03,1.03,1.00,1.56,5.11,5.11,5.11
31.93,4.10,-1.01,4.10,-1.01,1.01,0.98,1.56,5.11,5.10,5.11
32.24,4.11,-0.99,4.11,-0.99,0.99,0.96,1.55,5.10,5.10,5.10
32.57,4.12,-0.97,4.12,-0.97,0.97,0.94,1.53,5.09,5.10,5.09
32.89,4.14,-0.95,4.13,-0.96,0.96,0.92,1.52,5.10,5.09,5.09
33.22,4.14,-0.95,4.14,-0.94,0.94,0.90,1.50,5.08,5.09,5.09
33.55,4.15,-0.92,4.15,-0.93,0.93,0.88,1.48,5.08,5.08,5.07
33.89,4.16,-0.91,4.16,-0.91,0.91,0.85,1.46,5.07,5.07,5.07
34.23,4.16,-0.91,4.16,-0.90,0.90,0.83,1.43,5.06,5.07,5.07
34.57,4.17,-0.89,4.17,-0.89,0.89,0.81,1.41,5.06,5.06,5.06
34.92,4.17,-0.88,4.17,-0.88,0.88,0.79,1.38,5.05,5.05,5.05
35.27,4.17,-0.88,4.17,-0.87,0.87,0.78,1.35,5.04,5.05,5.05
35.62,4.18,-0.86,4.18,-0.86,0.86,0.76,1.32,5.04,5.04,5.04
35.97,4.18,-0.85,4.18,-0.85,0.85,0.74,1.29,5.03,5.04,5.03
36.33,4.19,-0.84,4.19,-0.84,0.84,0.72,1.26,5.03,5.03,5.03
36.70,4.19,-0.84,4.19,-0.83,0.83,0.70,1.23,5.02,5.02,5.03
37.06,4.20,-0.82,4.20,-0.82,0.82,0.68,1.20,5.02,5.02,5.02
37.43,4.21,-0.80,4.21,-0.80,0.80,0.66,1.16,5.01,5.01,5.01
37.81,4.22,-0.79,4.22,-0.79,0.79,0.64,1.13,5.01,5.01,5.01
38.19,4.23,-0.77,4.23,-0.77,0.77,0.63,1.10,5.00,5.00,5.00
38.57,4.24,-0.75,4.24,-0.75,0.75,0.61,1.06,4.99,4.99,4.99
38.95,4.25,-0.73,4.25,-0.73,0.73,0.59,1.03,4.98,4.98,4.98
39.34,4.26,-0.71,4.26,-0.71,0.71,0.58,1.00,4.97,4.97,4.97
39.74,4.26,-0.70,4.26,-0.70,0.70,0.56,0.96,4.96,4.96,4.96
40.14,4.27,-0.68,4.27,-0.68,0.68,0.54,0.93,4.95,4.95,4.95
40.54,4.28,-0.66,4.28,-0.66,0.66,0.53,0.90,4.94,4.94,4.94
40.94,4.29,-0.65,4.29,-0.65,0.65,0.51,0.87,4.94,4.94,4.94
41.35,4.30,-0.63,4.30,-0.63,0.63,0.49,0.83,4.93,4.93,4.93
41.76,4.31,-0.62,4.31,-0.61,0.62,0.48,0.80,4.93,4.93,4.93
42.18,4.32,-0.60,4.32,-0.60,0.60,0.46,0.77,4.92,4.92,4.92
42.60,4.33,-0.58,4.33,-0.59,0.58,0.45,0.74,4.91,4.91,4.91
43.03,4.34,-0.58,4.34,-0.57,0.57,0.43,0.71,4.91,4.91,4.92
43.46,4.36,-0.55,4.36,-0.55,0.55,0.42,0.68,4.91,4.91,4.91
43.90,4.38,-0.52,4.38,-0.53,0.53,0.41,0.66,4.91,4.90,4.90
44.33,4.39,-0.51,4.39,-0.50,0.51,0.39,0.63,4.90,4.90,4.90
44.78,4.40,-0.49,4.40,-0.48,0.49,0.38,0.60,4.89,4.89,4.89
45.23,4.42,-0.46,4.42,-0.46,0.46,0.37,0.58,4.88,4.88,4.88
45.68,4.43,-0.44,4.43,-0.44,0.44,0.35,0.55,4.87,4.87,4.87
46.13,4.45,-0.41,4.45,-0.42,0.41,0.34,0.53,4.86,4.86,4.86
46.60,4.46,-0.39,4.46,-0.39,0.39,0.33,0.50,4.85,4.85,4.85
47.06,4.48,-0.37,4.48,-0.36,0.37,0.31,0.48,4.85,4.84,4.85
47.53,4.49,-0.34,4.49,-0.34,0.34,0.30,0.45,4.83,4.83,4.83
48.01,4.50,-0.32,4.50,-0.32,0.32,0.29,0.43,4.81,4.82,4.82
48.49,4.51,-0.30,4.51,-0.29,0.29,0.28,0.41,4.80,4.80,4.81
48.97,4.53,-0.27,4.53,-0.27,0.27,0.27,0.39,4.80,4.80,4.80
49.46,4.54,-0.24,4.54,-0.25,0.25,0.26,0.37,4.79,4.79,4.78
49.96,4.55,-0.22,4.55,-0.22,0.23,0.24,0.34,4.78,4.78,4.77
50.46,4.55,-0.21,4.55,-0.21,0.21,0.23,0.32,4.76,4.76,4.76
50.96,4.56,-0.19,4.56,-0.19,0.19,0.22,0.30,4.75,4.75,4.75
51.47,4.56,-0.19,4.56,-0.18,0.18,0.21,0.28,4.74,4.74,4.75
51.99,4.57,-0.16,4.57,-0.17,0.17,0.20,0.26,4.74,4.73,4.73
52.51,4.56,-0.16,4.56,-0.16,0.16,0.19,0.24,4.72,4.72,4.72
53.03,4.56,-0.15,4.56,-0.15,0.15,0.17,0.22,4.71,4.71,4.71
53.56,4.55,-0.14,4.55,-0.14,0.14,0.16,0.20,4.69,4.69,4.69
54.10,4.55,-0.14,4.55,-0.14,0.13,0.15,0.18,4.68,4.68,4.69
54.64,4.54,-0.13,4.54,-0.13,0.12,0.14,0.16,4.66,4.67,4.67
55.18,4.54,-0.11,4.54,-0.12,0.11,0.12,0.14,4.65,4.65,4.65
55.74,4.54,-0.10,4.54,-0.10,0.10,0.11,0.12,4.64,4.64,4.64
56.29,4.54,-0.09,4.54,-0.09,0.09,0.10,0.10,4.63,4.63,4.63
56.86,4.54,-0.07,4.54,-0.07,0.07,0.08,0.08,4.61,4.61,4.61
57.42,4.54,-0.05,4.54,-0.06,0.06,0.07,0.06,4.60,4.60,4.59
58.00,4.54,-0.05,4.54,-0.04,0.04,0.05,0.04,4.58,4.58,4.59
58.58,4.54,-0.03,4.54,-0.03,0.03,0.03,0.02,4.57,4.57,4.57
59.16,4.54,-0.01,4.54,-0.01,0.01,0.01,0.00,4.55,4.55,4.55
59.76,4.54,0.01,4.54,0.01,-0.01,-0.01,-0.02,4.53,4.53,4.53
60.35,4.54,0.03,4.54,0.03,-0.03,-0.03,-0.04,4.51,4.51,4.51
60.96,4.54,0.05,4.54,0.05,-0.05,-0.05,-0.07,4.49,4.49,4.49
61.57,4.54,0.07,4.54,0.07,-0.07,-0.07,-0.09,4.47,4.47,4.47
62.18,4.54,0.10,4.54,0.10,-0.09,-0.09,-0.12,4.45,4.45,4.44
62.80,4.54,0.12,4.54,0.12,-0.12,-0.12,-0.14,4.42,4.42,4.42
63.43,4.54,0.15,4.54,0.15,-0.14,-0.14,-0.17,4.40,4.40,4.39
64.07,4.54,0.17,4.54,0.17,-0.17,-0.17,-0.19,4.37,4.37,4.37
64.71,4.54,0.20,4.54,0.20,-0.20,-0.20,-0.22,4.34,4.34,4.34
65.35,4.54,0.22,4.54,0.22,-0.22,-0.23,-0.25,4.32,4.32,4.32
66.01,4.54,0.25,4.54,0.25,-0.25,-0.26,-0.28,4.29,4.29,4.29
66.67,4.54,0.28,4.54,0.28,-0.28,-0.29,-0.31,4.26,4.26,4.26
67.33,4.54,0.31,4.54,0.31,-0.31,-0.32,-0.34,4.23,4.23,4.23
68.01,4.54,0.34,4.54,0.34,-0.34,-0.36,-0.37,4.20,4.20,4.20
68.69,4.54,0.37,4.54,0.37,-0.37,-0.39,-0.40,4.17,4.17,4.17
69.37,4.54,0.41,4.54,0.41,-0.40,-0.43,-0.43,4.14,4.14,4.13
70.07,4.54,0.44,4.54,0.44,-0.44,-0.47,-0.46,4.10,4.10,4.10
70.77,4.54,0.47,4.54,0.47,-0.47,-0.51,-0.50,4.07,4.07,4.07
71.48,4.54,0.50,4.54,0.50,-0.50,-0.54,-0.53,4.04,4.04,4.04
72.19,4.54,0.53,4.54,0.53,-0.53,-0.58,-0.57,4.01,4.01,4.01
72.91,4.54,0.57,4.54,0.57,-0.57,-0.63,-0.61,3.97,3.97,3.97
73.64,4.54,0.61,4.54,0.60,-0.60,-0.67,-0.64,3.94,3.94,3.93
74.38,4.54,0.63,4.54,0.64,-0.64,-0.71,-0.68,3.90,3.90,3.91
75.12,4.54,0.67,4.54,0.67,-0.67,-0.75,-0.72,3.87,3.87,3.87
75.87,4.54,0.70,4.54,0.71,-0.71,-0.80,-0.76,3.83,3.83,3.84
76.63,4.54,0.74,4.54,0.74,-0.74,-0.84,-0.80,3.80,3.80,3.80
77.40,4.54,0.79,4.54,0.78,-0.78,-0.88,-0.84,3.76,3.76,3.75
78.17,4.54,0.82,4.54,0.82,-0.82,-0.93,-0.89,3.72,3.72,3.72
78.95,4.54,0.86,4.54,0.86,-0.86,-0.97,-0.93,3.68,3.68,3.68
79.74,4.54,0.91,4.54,0.90,-0.90,-1.02,-0.98,3.64,3.64,3.63
80.54,4.54,0.94,4.54,0.94,-0.94,-1.06,-1.02,3.60,3.60,3.60
81.35,4.54,0.99,4.54,0.99,-0.99,-1.11,-1.07,3.55,3.55,3.55
82.16,4.54,1.03,4.54,1.03,-1.03,-1.15,-1.12,3.51,3.51,3.51
82.98,4.54,1.08,4.54,1.08,-1.08,-1.20,-1.17,3.46,3.46,3.46
83.81,4.54,1.13,4.54,1.12,-1.12,-1.25,-1.22,3.42,3.42,3.41
84.65,4.54,1.17,4.54,1.17,-1.17,-1.29,-1.27,3.37,3.37,3.37
85.50,4.54,1.22,4.54,1.22,-1.22,-1.34,-1.32,3.32,3.32,3.32
86.35,4.54,1.27,4.54,1.27,-1.27,-1.38,-1.37,3.27,3.27,3.27
87.22,4.54,1.32,4.54,1.32,-1.32,-1.43,-1.43,3.22,3.22,3.22
88.09,4.54,1.37,4.54,1.37,-1.37,-1.48,-1.48,3.17,3.17,3.17
88.97,4.54,1.42,4.54,1.42,-1.42,-1.52,-1.54,3.12,3.12,3.12
89.86,4.54,1.47,4.54,1.47,-1.47,-1.57,-1.60,3.07,3.07,3.07
90.76,4.54,1.53,4.54,1.53,-1.53,-1.61,-1.65,3.01,3.01,3.01
91.66,4.54,1.58,4.54,1.58,-1.58,-1.66,-1.71,2.96,2.96,2.96
92.58,4.54,1.64,4.54,1.64,-1.64,-1.71,-1.78,2.90,2.90,2.90
93.51,4.54,1.69,4.54,1.69,-1.69,-1.75,-1.84,2.85,2.85,2.85
94.44,4.54,1.75,4.54,1.75,-1.74,-1.80,-1.90,2.80,2.80,2.79
95.39,4.54,1.80,4.54,1.80,-1.80,-1.84,-1.97,2.74,2.74,2.74
96.34,4.54,1.86,4.54,1.85,-1.85,-1.89,-2.03,2.69,2.69,2.68
97.30,4.54,1.90,4.54,1.91,-1.91,-1.93,-2.10,2.63,2.63,2.64
98.28,4.54,1.96,4.54,1.96,-1.96,-1.98,-2.16,2.58,2.58,2.58
99.26,4.54,2.02,4.54,2.02,-2.02,-2.02,-2.23,2.52,2.52,2.52
100.25,4.54,2.08,4.54,2.08,-2.08,-2.07,-2.30,2.46,2.46,2.46
101.25,4.54,2.13,4.54,2.13,-2.13,-2.12,-2.37,2.41,2.41,2.41
102.27,4.54,2.19,4.54,2.19,-2.19,-2.16,-2.44,2.35,2.35,2.35
103.29,4.54,2.25,4.54,2.25,-2.24,-2.21,-2.51,2.30,2.30,2.29
104.32,4.54,2.30,4.54,2.30,-2.30,-2.25,-2.58,2.24,2.24,2.24
105.37,4.54,2.35,4.54,2.35,-2.35,-2.30,-2.64,2.19,2.19,2.19
106.42,4.54,2.41,4.54,2.41,-2.41,-2.34,-2.71,2.13,2.13,2.13
107.48,4.54,2.46,4.54,2.46,-2.46,-2.38,-2.78,2.08,2.08,2.08
108.56,4.54,2.52,4.54,2.52,-2.52,-2.43,-2.84,2.02,2.02,2.02
109.64,4.54,2.58,4.54,2.58,-2.58,-2.47,-2.91,1.96,1.96,1.96
110.74,4.54,2.63,4.54,2.63,-2.63,-2.52,-2.97,1.91,1.91,1.91
111.85,4.54,2.69,4.54,2.69,-2.69,-2.56,-3.03,1.85,1.85,1.85
112.97,4.54,2.74,4.54,2.74,-2.74,-2.61,-3.09,1.80,1.80,1.80
114.10,4.54,2.79,4.54,2.79,-2.79,-2.65,-3.15,1.75,1.75,1.75
115.24,4.54,2.85,4.54,2.85,-2.85,-2.69,-3.20,1.69,1.69,1.69
116.39,4.54,2.91,4.54,2.90,-2.90,-2.74,-3.26,1.64,1.64,1.63
117.55,4.54,2.95,4.54,2.95,-2.95,-2.78,-3.30,1.59,1.59,1.59
118.73,4.54,3.01,4.54,3.01,-3.01,-2.82,-3.35,1.53,1.53,1.53
119.92,4.54,3.06,4.54,3.06,-3.06,-2.87,-3.39,1.48,1.48,1.48
121.12,4.54,3.11,4.54,3.11,-3.11,-2.91,-3.43,1.43,1.43,1.43
122.33,4.54,3.16,4.54,3.16,-3.16,-2.95,-3.46,1.38,1.37,1.38
123.55,4.54,3.21,4.54,3.21,-3.22,-2.99,-3.49,1.32,1.33,1.33
124.79,4.55,3.26,4.55,3.27,-3.27,-3.04,-3.51,1.28,1.28,1.29
126.03,4.56,3.33,4.56,3.32,-3.32,-3.08,-3.53,1.24,1.23,1.23
127.29,4.56,3.37,4.56,3.37,-3.37,-3.12,-3.55,1.19,1.19,1.19
128.57,4.56,3.42,4.56,3.42,-3.41,-3.16,-3.56,1.15,1.15,1.14
129.85,4.56,3.47,4.56,3.46,-3.45,-3.20,-3.57,1.11,1.10,1.09
131.15,4.54,3.50,4.55,3.50,-3.49,-3.24,-3.58,1.05,1.06,1.04
132.46,4.53,3.52,4.52,3.52,-3.52,-3.28,-3.58,1.01,1.01,1.01
133.79,4.50,3.54,4.50,3.54,-3.54,-3.32,-3.57,0.96,0.96,0.96
135.12,4.46,3.55,4.47,3.55,-3.56,-3.36,-3.57,0.90,0.91,0.91
136.48,4.44,3.57,4.44,3.57,-3.57,-3.40,-3.56,0.87,0.86,0.87
137.84,4.40,3.58,4.41,3.59,-3.58,-3.44,-3.55,0.82,0.82,0.82
139.22,4.38,3.60,4.37,3.60,-3.59,-3.48,-3.54,0.79,0.78,0.78
140.61,4.34,3.61,4.34,3.60,-3.60,-3.51,-3.53,0.74,0.74,0.73
142.02,4.29,3.59,4.30,3.60,-3.60,-3.55,-3.51,0.69,0.70,0.70
143.44,4.27,3.61,4.27,3.61,-3.61,-3.59,-3.49,0.66,0.65,0.66
144.87,4.24,3.62,4.24,3.62,-3.63,-3.62,-3.48,0.61,0.62,0.62
146.32,4.23,3.64,4.22,3.64,-3.64,-3.66,-3.46,0.59,0.58,0.59
147.78,4.20,3.65,4.20,3.66,-3.66,-3.69,-3.44,0.54,0.54,0.55
149.26,4.19,3.68,4.19,3.68,-3.69,-3.72,-3.42,0.50,0.50,0.51
150.75,4.19,3.71,4.19,3.71,-3.72,-3.76,-3.41,0.47,0.47,0.48
152.26,4.20,3.75,4.20,3.75,-3.75,-3.79,-3.39,0.45,0.45,0.45
153.78,4.21,3.80,4.21,3.80,-3.79,-3.82,-3.37,0.42,0.42,0.41
155.32,4.22,3.84,4.22,3.84,-3.83,-3.85,-3.36,0.39,0.39,0.38
156.88,4.22,3.87,4.22,3.87,-3.86,-3.88,-3.35,0.36,0.36,0.35
158.44,4.22,3.90,4.22,3.90,-3.90,-3.91,-3.34,0.32,0.32,0.32
160.03,4.22,3.93,4.22,3.93,-3.94,-3.94,-3.33,0.28,0.28,0.29
161.63,4.22,3.97,4.22,3.96,-3.97,-3.97,-3.32,0.25,0.25,0.25
163.24,4.22,3.99,4.22,3.99,-4.00,-3.99,-3.31,0.22,0.22,0.23
164.88,4.23,4.03,4.23,4.03,-4.03,-4.02,-3.31,0.20,0.20,0.20
166.53,4.23,4.06,4.23,4.06,-4.06,-4.04,-3.31,0.17,0.18,0.17
168.19,4.24,4.09,4.23,4.09,-4.08,-4.06,-3.31,0.16,0.15,0.15
169.87,4.23,4.10,4.23,4.11,-4.10,-4.09,-3.31,0.13,0.13,0.13
171.57,4.22,4.12,4.22,4.12,-4.12,-4.11,-3.32,0.10,0.11,0.10
173.29,4.21,4.14,4.20,4.13,-4.12,-4.13,-3.33,0.09,0.08,0.07
175.02,4.18,4.13,4.18,4.13,-4.13,-4.15,-3.34,0.05,0.05,0.05
176.77,4.15,4.12,4.16,4.12,-4.12,-4.17,-3.35,0.03,0.03,0.03
178.54,4.13,4.12,4.13,4.12,-4.12,-4.18,-3.37,0.01,0.01,0.01
180.32,4.10,4.11,4.10,4.11,-4.11,-4.20,-3.39,-0.01,-0.01,-0.01
182.13,4.07,4.10,4.06,4.10,-4.09,-4.21,-3.41,-0.02,-0.03,-0.03
183.95,4.02,4.08,4.03,4.08,-4.08,-4.23,-3.44,-0.06,-0.06,-0.06
185.79,3.99,4.07,3.99,4.07,-4.07,-4.24,-3.46,-0.08,-0.08,-0.08
187.65,3.96,4.06,3.96,4.06,-4.06,-4.25,-3.49,-0.10,-0.10,-0.10
189.52,3.93,4.05,3.93,4.05,-4.05,-4.26,-3.52,-0.12,-0.12,-0.12
191.42,3.91,4.05,3.91,4.05,-4.05,-4.27,-3.56,-0.14,-0.14,-0.14
193.33,3.89,4.05,3.89,4.05,-4.05,-4.27,-3.59,-0.16,-0.16,-0.16
195.27,3.88,4.05,3.88,4.05,-4.06,-4.28,-3.63,-0.18,-0.18,-0.17
197.22,3.87,4.06,3.87,4.06,-4.07,-4.29,-3.67,-0.20,-0.20,-0.19
199.19,3.88,4.09,3.88,4.08,-4.09,-4.29,-3.71,-0.21,-0.21,-0.21
201.18,3.89,4.10,3.89,4.11,-4.11,-4.29,-3.76,-0.22,-0.22,-0.21
203.19,3.90,4.13,3.90,4.13,-4.12,-4.29,-3.80,-0.22,-0.22,-0.23
205.23,3.91,4.14,3.91,4.15,-4.14,-4.29,-3.85,-0.23,-0.23,-0.23
207.28,3.91,4.16,3.91,4.16,-4.15,-4.29,-3.89,-0.24,-0.24,-0.25
209.35,3.90,4.16,3.90,4.16,-4.15,-4.29,-3.94,-0.25,-0.25,-0.26
211.44,3.89,4.16,3.89,4.16,-4.15,-4.28,-3.99,-0.26,-0.26,-0.27
213.56,3.86,4.14,3.86,4.14,-4.14,-4.28,-4.04,-0.28,-0.28,-0.28
215.69,3.83,4.12,3.83,4.12,-4.13,-4.27,-4.08,-0.30,-0.30,-0.29
217.85,3.80,4.11,3.80,4.11,-4.11,-4.27,-4.13,-0.31,-0.30,-0.31
220.03,3.78,4.09,3.78,4.09,-4.09,-4.26,-4.17,-0.31,-0.31,-0.31
222.23,3.75,4.07,3.75,4.07,-4.06,-4.25,-4.21,-0.31,-0.32,-0.32
224.45,3.71,4.04,3.71,4.04,-4.04,-4.24,-4.26,-0.33,-0.33,-0.33
226.70,3.67,4.01,3.67,4.01,-4.01,-4.22,-4.29,-0.34,-0.34,-0.34
228.96,3.64,3.98,3.64,3.99,-3.99,-4.21,-4.33,-0.35,-0.35,-0.34
231.25,3.62,3.97,3.61,3.97,-3.97,-4.20,-4.36,-0.35,-0.36,-0.35
233.57,3.59,3.95,3.59,3.95,-3.96,-4.18,-4.39,-0.37,-0.36,-0.36
235.90,3.57,3.93,3.57,3.94,-3.94,-4.16,-4.41,-0.37,-0.37,-0.36
238.26,3.56,3.93,3.56,3.93,-3.94,-4.15,-4.43,-0.38,-0.38,-0.37
240.64,3.56,3.93,3.56,3.93,-3.93,-4.13,-4.45,-0.37,-0.37,-0.37
243.05,3.57,3.94,3.57,3.93,-3.93,-4.11,-4.46,-0.36,-0.36,-0.37
245.48,3.57,3.93,3.57,3.93,-3.93,-4.09,-4.46,-0.36,-0.36,-0.36
247.93,3.56,3.93,3.56,3.93,-3.92,-4.07,-4.46,-0.36,-0.36,-0.37
250.41,3.55,3.92,3.55,3.92,-3.91,-4.04,-4.45,-0.36,-0.36,-0.37
252.92,3.53,3.90,3.53,3.90,-3.89,-4.02,-4.44,-0.36,-0.36,-0.37
255.45,3.51,3.87,3.51,3.87,-3.87,-4.00,-4.43,-0.36,-0.36,-0.36
258.00,3.48,3.85,3.48,3.84,-3.84,-3.97,-4.40,-0.36,-0.36,-0.37
260.58,3.44,3.81,3.44,3.81,-3.81,-3.94,-4.37,-0.37,-0.37,-0.37
263.19,3.41,3.78,3.41,3.78,-3.78,-3.92,-4.34,-0.37,-0.38,-0.37
265.82,3.37,3.75,3.37,3.75,-3.75,-3.89,-4.30,-0.38,-0.38,-0.38
268.48,3.34,3.71,3.34,3.72,-3.73,-3.86,-4.26,-0.39,-0.38,-0.37
271.16,3.32,3.70,3.32,3.69,-3.70,-3.83,-4.22,-0.38,-0.39,-0.38
273.87,3.29,3.67,3.29,3.68,-3.68,-3.80,-4.17,-0.39,-0.38,-0.38
276.61,3.28,3.66,3.28,3.66,-3.66,-3.77,-4.11,-0.38,-0.38,-0.38
279.38,3.26,3.64,3.26,3.64,-3.64,-3.74,-4.06,-0.38,-0.38,-0.38
282.17,3.25,3.63,3.25,3.63,-3.63,-3.71,-4.00,-0.38,-0.38,-0.38
284.99,3.23,3.61,3.23,3.61,-3.61,-3.68,-3.94,-0.38,-0.38,-0.38
287.84,3.21,3.60,3.21,3.60,-3.60,-3.65,-3.87,-0.39,-0.39,-0.39
290.72,3.19,3.58,3.19,3.58,-3.58,-3.62,-3.81,-0.39,-0.39,-0.39
293.63,3.16,3.56,3.16,3.56,-3.55,-3.58,-3.74,-0.39,-0.39,-0.40
296.57,3.14,3.54,3.14,3.53,-3.53,-3.55,-3.68,-0.39,-0.39,-0.40
299.53,3.11,3.50,3.11,3.50,-3.50,-3.52,-3.61,-0.39,-0.39,-0.39
302.53,3.07,3.47,3.07,3.47,-3.47,-3.48,-3.55,-0.40,-0.40,-0.40
305.55,3.04,3.44,3.04,3.44,-3.45,-3.45,-3.48,-0.41,-0.41,-0.40
308.61,3.01,3.40,3.01,3.41,-3.42,-3.41,-3.41,-0.41,-0.41,-0.39
311.69,2.99,3.39,2.99,3.39,-3.39,-3.38,-3.35,-0.40,-0.40,-0.40
314.81,2.98,3.37,2.98,3.37,-3.37,-3.34,-3.29,-0.39,-0.39,-0.39
317.96,2.96,3.35,2.96,3.35,-3.34,-3.30,-3.22,-0.38,-0.38,-0.39
321.14,2.93,3.32,2.93,3.32,-3.32,-3.27,-3.16,-0.39,-0.39,-0.39
324.35,2.90,3.29,2.90,3.29,-3.29,-3.23,-3.10,-0.39,-0.39,-0.39
327.59,2.87,3.26,2.88,3.26,-3.27,-3.20,-3.04,-0.40,-0.39,-0.39
330.87,2.86,3.24,2.86,3.24,-3.24,-3.16,-2.99,-0.38,-0.39,-0.38
334.18,2.84,3.22,2.84,3.22,-3.22,-3.12,-2.93,-0.38,-0.38,-0.38
337.52,2.81,3.19,2.81,3.19,-3.19,-3.09,-2.88,-0.38,-0.38,-0.38
340.90,2.79,3.16,2.79,3.16,-3.16,-3.05,-2.83,-0.37,-0.38,-0.37
344.30,2.76,3.13,2.76,3.14,-3.14,-3.01,-2.78,-0.38,-0.37,-0.37
347.75,2.74,3.12,2.74,3.11,-3.11,-2.98,-2.73,-0.37,-0.37,-0.38
351.23,2.71,3.09,2.71,3.08,-3.07,-2.94,-2.69,-0.36,-0.37,-0.38
354.74,2.67,3.04,2.67,3.04,-3.04,-2.90,-2.64,-0.37,-0.37,-0.37
358.28,2.63,3.00,2.63,3.00,-3.00,-2.87,-2.60,-0.37,-0.37,-0.37
361.87,2.59,2.96,2.59,2.96,-2.96,-2.83,-2.57,-0.37,-0.38,-0.37
365.49,2.55,2.92,2.55,2.92,-2.93,-2.79,-2.53,-0.38,-0.38,-0.37
369.14,2.51,2.89,2.51,2.89,-2.90,-2.76,-2.49,-0.39,-0.38,-0.38
372.83,2.48,2.86,2.48,2.85,-2.86,-2.72,-2.46,-0.38,-0.38,-0.38
376.56,2.45,2.82,2.45,2.82,-2.83,-2.68,-2.43,-0.38,-0.38,-0.37
380.33,2.43,2.80,2.43,2.80,-2.80,-2.65,-2.40,-0.37,-0.37,-0.37
384.13,2.41,2.78,2.41,2.78,-2.77,-2.61,-2.37,-0.36,-0.36,-0.37
387.97,2.39,2.76,2.38,2.75,-2.74,-2.58,-2.35,-0.35,-0.36,-0.37
391.85,2.35,2.71,2.35,2.72,-2.70,-2.54,-2.33,-0.35,-0.35,-0.36
395.77,2.31,2.68,2.31,2.68,-2.67,-2.50,-2.30,-0.36,-0.36,-0.37
399.73,2.27,2.63,2.27,2.63,-2.63,-2.47,-2.28,-0.36,-0.36,-0.36
403.72,2.23,2.59,2.23,2.58,-2.60,-2.43,-2.26,-0.37,-0.37,-0.36
407.76,2.19,2.54,2.19,2.54,-2.56,-2.40,-2.25,-0.37,-0.37,-0.35
411.84,2.16,2.51,2.16,2.51,-2.52,-2.36,-2.23,-0.36,-0.36,-0.35
415.96,2.14,2.48,2.14,2.48,-2.49,-2.33,-2.21,-0.35,-0.35,-0.34
420.12,2.12,2.46,2.12,2.46,-2.45,-2.29,-2.20,-0.33,-0.33,-0.34
424.32,2.10,2.44,2.09,2.43,-2.42,-2.26,-2.19,-0.32,-0.32,-0.34
428.56,2.06,2.39,2.06,2.40,-2.38,-2.23,-2.17,-0.32,-0.32,-0.33
432.85,2.01,2.34,2.01,2.35,-2.34,-2.19,-2.16,-0.33,-0.33,-0.33
437.18,1.96,2.30,1.96,2.30,-2.30,-2.16,-2.15,-0.34,-0.33,-0.34
441.55,1.91,2.25,1.91,2.25,-2.25,-2.13,-2.14,-0.34,-0.34,-0.34
445.96,1.87,2.21,1.87,2.20,-2.21,-2.09,-2.12,-0.34,-0.35,-0.34
450.42,1.82,2.16,1.82,2.16,-2.18,-2.06,-2.11,-0.36,-0.35,-0.34
454.93,1.79,2.13,1.79,2.13,-2.14,-2.03,-2.10,-0.35,-0.35,-0.34
459.48,1.76,2.10,1.77,2.11,-2.11,-2.00,-2.09,-0.35,-0.34,-0.34
464.07,1.75,2.09,1.75,2.09,-2.08,-1.96,-2.07,-0.33,-0.33,-0.34
468.71,1.73,2.07,1.72,2.06,-2.04,-1.93,-2.06,-0.31,-0.32,-0.34
473.40,1.69,2.03,1.69,2.03,-2.01,-1.90,-2.05,-0.32,-0.32,-0.34
478.13,1.65,1.98,1.65,1.99,-1.98,-1.87,-2.03,-0.33,-0.33,-0.33
482.91,1.61,1.94,1.61,1.94,-1.95,-1.84,-2.02,-0.34,-0.34,-0.33
487.74,1.57,1.90,1.57,1.90,-1.92,-1.81,-2.00,-0.35,-0.35,-0.33
492.62,1.53,1.86,1.54,1.87,-1.88,-1.78,-1.98,-0.35,-0.35,-0.33
497.55,1.51,1.83,1.51,1.84,-1.85,-1.75,-1.96,-0.34,-0.34,-0.32
502.52,1.49,1.81,1.49,1.82,-1.81,-1.72,-1.94,-0.32,-0.32,-0.32
507.55,1.47,1.79,1.47,1.79,-1.78,-1.69,-1.92,-0.31,-0.31,-0.32
512.62,1.44,1.76,1.44,1.76,-1.74,-1.66,-1.89,-0.30,-0.31,-0.32
517.75,1.39,1.71,1.40,1.71,-1.70,-1.63,-1.87,-0.31,-0.31,-0.32
522.93,1.35,1.67,1.35,1.66,-1.66,-1.60,-1.84,-0.31,-0.31,-0.32
528.16,1.30,1.62,1.30,1.61,-1.61,-1.57,-1.81,-0.31,-0.31,-0.32
