frequency,raw,error,smoothed,error_smoothed,equalization,parametric_eq,fixed_band_eq,equalized_raw,equalized_smoothed,target
20.00,-9.05,-9.82,-9.05,-9.82,6.00,5.74,2.53,-3.05,-3.05,0.77
20.20,-8.96,-9.77,-8.97,-9.77,6.00,5.78,2.60,-2.96,-2.97,0.81
20.40,-8.87,-9.72,-8.88,-9.72,6.00,5.81,2.68,-2.87,-2.88,0.85
20.61,-8.78,-9.64,-8.78,-9.66,6.00,5.85,2.76,-2.78,-2.78,0.86
20.81,-8.68,-9.59,-8.69,-9.60,6.00,5.88,2.84,-2.68,-2.69,0.91
21.02,-8.59,-9.54,-8.58,-9.51,6.00,5.92,2.93,-2.59,-2.58,0.94
21.23,-8.45,-9.41,-8.45,-9.41,6.00,5.95,3.02,-2.45,-2.45,0.95
21.44,-8.30,-9.28,-8.31,-9.28,6.00,5.98,3.11,-2.30,-2.31,0.97
21.66,-8.17,-9.15,-8.16,-9.14,6.00,6.00,3.20,-2.17,-2.16,0.98
21.87,-8.02,-9.01,-8.03,-9.02,6.00,6.03,3.29,-2.02,-2.03,0.98
22.09,-7.91,-8.91,-7.92,-8.91,6.00,6.05,3.39,-1.91,-1.92,0.99
22.31,-7.83,-8.83,-7.83,-8.82,6.00,6.07,3.49,-1.83,-1.83,0.99
22.54,-7.76,-8.75,-7.75,-8.74,6.00,6.09,3.60,-1.76,-1.75,0.99
22.76,-7.67,-8.66,-7.68,-8.66,6.00,6.11,3.70,-1.67,-1.68,0.98
22.99,-7.59,-8.57,-7.59,-8.56,6.00,6.12,3.81,-1.59,-1.59,0.97
23.22,-7.49,-8.47,-7.50,-8.46,6.00,6.13,3.92,-1.49,-1.50,0.97
23.45,-7.39,-8.36,-7.40,-8.36,6.00,6.14,4.04,-1.39,-1.40,0.96
23.69,-7.30,-8.26,-7.29,-8.25,6.00,6.15,4.15,-1.30,-1.29,0.96
23.92,-7.18,-8.14,-7.19,-8.15,6.00,6.15,4.27,-1.18,-1.19,0.96
24.16,-7.07,-8.04,-7.07,-8.04,6.00,6.15,4.39,-1.07,-1.07,0.97
24.40,-6.95,-7.92,-6.95,-7.91,6.00,6.15,4.52,-0.95,-0.95,0.97
24.65,-6.83,-7.79,-6.82,-7.79,6.00,6.15,4.64,-0.83,-0.82,0.96
24.89,-6.70,-7.66,-6.71,-7.67,6.00,6.14,4.77,-0.70,-0.71,0.96
25.14,-6.61,-7.57,-6.62,-7.58,6.00,6.13,4.89,-0.61,-0.62,0.96
25.39,-6.54,-7.50,-6.54,-7.50,6.00,6.12,5.02,-0.54,-0.54,0.96
25.65,-6.48,-7.42,-6.47,-7.42,6.00,6.10,5.15,-0.48,-0.47,0.95
25.91,-6.41,-7.34,-6.40,-7.34,6.00,6.08,5.28,-0.41,-0.40,0.94
26.16,-6.31,-7.25,-6.32,-7.25,6.00,6.06,5.41,-0.31,-0.32,0.94
26.43,-6.23,-7.16,-6.23,-7.17,6.00,6.04,5.54,-0.23,-0.23,0.94
26.69,-6.13,-7.07,-6.14,-7.07,6.00,6.01,5.67,-0.13,-0.14,0.94
26.96,-6.05,-6.97,-6.03,-6.96,6.00,5.98,5.79,-0.05,-0.03,0.92
27.23,-5.91,-6.83,-5.90,-6.82,6.00,5.95,5.91,0.09,0.10,0.92
27.50,-5.75,-6.67,-5.74,-6.66,6.00,5.91,6.03,0.26,0.26,0.92
27.77,-5.58,-6.50,-5.59,-6.50,6.01,5.87,6.14,0.43,0.42,0.91
28.05,-5.44,-6.36,-5.47,-6.37,6.02,5.83,6.25,0.58,0.55,0.91
28.33,-5.38,-6.28,-5.38,-6.29,6.02,5.78,6.35,0.64,0.64,0.90
28.62,-5.33,-6.23,-5.32,-6.22,6.01,5.74,6.45,0.68,0.69,0.90
28.90,-5.26,-6.16,-5.25,-6.15,5.98,5.69,6.53,0.72,0.73,0.90
29.19,-5.16,-6.06,-5.16,-6.06,5.94,5.63,6.61,0.78,0.78,0.90
29.48,-5.04,-5.95,-5.05,-5.95,5.89,5.58,6.67,0.84,0.84,0.91
29.78,-4.93,-5.82,-4.93,-5.83,5.82,5.52,6.73,0.89,0.89,0.90
30.08,-4.82,-5.72,-4.82,-5.72,5.74,5.46,6.77,0.92,0.92,0.90
30.38,-4.73,-5.61,-4.72,-5.61,5.65,5.39,6.80,0.93,0.93,0.88
30.68,-4.63,-5.52,-4.63,-5.51,5.56,5.33,6.82,0.93,0.93,0.88
30.99,-4.55,-5.42,-4.55,-5.43,5.46,5.26,6.82,0.91,0.90,0.87
31.30,-4.49,-5.36,-4.49,-5.36,5.35,5.19,6.81,0.86,0.86,0.87
31.61,-4.42,-5.29,-4.42,-5.28,5.24,5.12,6.78,0.82,0.82,0.87
31.93,-4.36,-5.20,-4.34,-5.19,5.15,5.04,6.74,0.79,0.81,0.85
32.24,-4.23,-5.07,-4.23,-5.07,5.06,4.96,6.69,0.82,0.83,0.84
32.57,-4.10,-4.93,-4.09,-4.92,4.96,4.89,6.63,0.87,0.87,0.84
32.89,-3.95,-4.78,-3.97,-4.80,4.86,4.81,6.55,0.91,0.88,0.82
33.22,-3.88,-4.69,-3.90,-4.71,4.74,4.72,6.46,0.86,0.84,0.80
33.55,-3.85,-4.65,-3.86,-4.65,4.62,4.64,6.36,0.77,0.77,0.80
33.89,-3.82,-4.60,-3.80,-4.58,4.50,4.55,6.25,0.68,0.71,0.78
34.23,-3.70,-4.47,-3.67,-4.44,4.38,4.47,6.14,0.69,0.71,0.78
34.57,-3.50,-4.26,-3.51,-4.27,4.27,4.38,6.01,0.76,0.76,0.76
34.92,-3.32,-4.06,-3.35,-4.10,4.16,4.29,5.88,0.84,0.80,0.74
35.27,-3.24,-3.98,-3.24,-3.98,4.04,4.20,5.74,0.81,0.80,0.74
35.62,-3.18,-3.90,-3.18,-3.90,3.93,4.11,5.59,0.74,0.75,0.72
35.97,-3.13,-3.84,-3.12,-3.83,3.82,4.01,5.44,0.68,0.70,0.71
36.33,-3.04,-3.75,-3.04,-3.74,3.72,3.92,5.29,0.67,0.67,0.71
36.70,-2.95,-3.64,-2.95,-3.64,3.63,3.82,5.13,0.68,0.68,0.69
37.06,-2.85,-3.53,-2.86,-3.55,3.55,3.73,4.97,0.69,0.69,0.68
37.43,-2.77,-3.46,-2.78,-3.46,3.47,3.63,4.81,0.69,0.69,0.69
37.81,-2.70,-3.38,-2.70,-3.38,3.38,3.53,4.65,0.68,0.68,0.68
38.19,-2.63,-3.29,-2.62,-3.29,3.29,3.43,4.49,0.67,0.67,0.66
38.57,-2.53,-3.21,-2.54,-3.20,3.20,3.34,4.33,0.66,0.66,0.67
38.95,-2.45,-3.11,-2.45,-3.11,3.10,3.24,4.17,0.64,0.64,0.66
39.34,-2.36,-3.02,-2.37,-3.02,3.00,3.14,4.01,0.64,0.63,0.65
39.74,-2.28,-2.92,-2.27,-2.92,2.90,3.04,3.85,0.63,0.63,0.64
40.14,-2.18,-2.81,-2.16,-2.80,2.81,2.94,3.69,0.63,0.65,0.64
40.54,-2.05,-2.68,-2.05,-2.68,2.71,2.84,3.53,0.67,0.67,0.63
40.94,-1.92,-2.56,-1.95,-2.58,2.62,2.73,3.38,0.69,0.66,0.63
41.35,-1.88,-2.50,-1.89,-2.51,2.52,2.63,3.22,0.64,0.63,0.62
41.76,-1.86,-2.47,-1.84,-2.45,2.43,2.53,3.07,0.56,0.59,0.60
42.18,-1.79,-2.39,-1.78,-2.37,2.33,2.43,2.92,0.54,0.56,0.60
42.60,-1.67,-2.26,-1.68,-2.27,2.24,2.33,2.77,0.57,0.56,0.59
43.03,-1.55,-2.14,-1.57,-2.15,2.15,2.23,2.62,0.60,0.58,0.58
43.46,-1.48,-2.04,-1.48,-2.04,2.06,2.13,2.47,0.57,0.58,0.56
43.90,-1.42,-1.95,-1.41,-1.95,1.96,2.02,2.33,0.55,0.55,0.53
44.33,-1.34,-1.86,-1.34,-1.86,1.87,1.92,2.18,0.52,0.52,0.52
44.78,-1.28,-1.77,-1.28,-1.77,1.78,1.82,2.04,0.50,0.50,0.49
45.23,-1.21,-1.68,-1.21,-1.68,1.69,1.72,1.90,0.48,0.48,0.48
45.68,-1.13,-1.60,-1.14,-1.60,1.60,1.62,1.77,0.46,0.46,0.46
46.13,-1.06,-1.51,-1.06,-1.51,1.51,1.52,1.63,0.44,0.44,0.45
46.60,-0.99,-1.43,-0.99,-1.43,1.41,1.42,1.49,0.43,0.43,0.44
47.06,-0.90,-1.34,-0.90,-1.34,1.31,1.32,1.36,0.41,0.41,0.44
47.53,-0.80,-1.23,-0.81,-1.24,1.21,1.22,1.23,0.41,0.41,0.43
48.01,-0.71,-1.13,-0.69,-1.11,1.11,1.12,1.10,0.41,0.42,0.42
48.49,-0.58,-0.98,-0.57,-0.98,1.01,1.02,0.97,0.44,0.44,0.41
48.97,-0.45,-0.84,-0.49,-0.88,0.91,0.93,0.85,0.46,0.42,0.39
49.46,-0.42,-0.81,-0.43,-0.81,0.82,0.83,0.72,0.39,0.39,0.38
49.96,-0.40,-0.77,-0.36,-0.74,0.73,0.73,0.60,0.32,0.36,0.37
50.46,-0.30,-0.67,-0.29,-0.66,0.64,0.64,0.48,0.35,0.35,0.38
50.96,-0.17,-0.54,-0.20,-0.57,0.56,0.54,0.36,0.39,0.36,0.37
51.47,-0.11,-0.48,-0.11,-0.48,0.49,0.44,0.24,0.37,0.38,0.36
51.99,-0.06,-0.41,-0.05,-0.40,0.42,0.35,0.12,0.36,0.37,0.35
52.51,0.01,-0.34,0.01,-0.34,0.34,0.26,0.01,0.35,0.35,0.35
53.03,0.09,-0.27,0.08,-0.27,0.26,0.16,-0.11,0.35,0.35,0.36
53.56,0.16,-0.19,0.16,-0.19,0.18,0.07,-0.22,0.34,0.34,0.35
54.10,0.22,-0.11,0.22,-0.12,0.11,-0.02,-0.33,0.33,0.33,0.34
54.64,0.30,-0.04,0.30,-0.04,0.03,-0.11,-0.43,0.33,0.33,0.34
55.18,0.37,0.04,0.37,0.04,-0.04,-0.20,-0.54,0.33,0.33,0.33
55.74,0.44,0.13,0.44,0.12,-0.12,-0.29,-0.64,0.33,0.33,0.31
56.29,0.52,0.20,0.51,0.20,-0.19,-0.38,-0.74,0.32,0.32,0.31
56.86,0.57,0.28,0.57,0.28,-0.27,-0.47,-0.83,0.30,0.30,0.29
57.42,0.63,0.35,0.63,0.35,-0.35,-0.56,-0.93,0.28,0.28,0.28
58.00,0.69,0.42,0.68,0.41,-0.43,-0.65,-1.02,0.26,0.25,0.27
58.58,0.75,0.49,0.75,0.50,-0.51,-0.73,-1.10,0.24,0.24,0.26
59.16,0.82,0.57,0.83,0.59,-0.59,-0.82,-1.19,0.22,0.24,0.24
59.76,0.92,0.71,0.90,0.68,-0.68,-0.90,-1.27,0.24,0.22,0.22
60.35,0.98,0.78,0.96,0.76,-0.77,-0.99,-1.35,0.21,0.19,0.19
60.96,0.99,0.82,1.03,0.87,-0.86,-1.07,-1.42,0.12,0.17,0.17
61.57,1.09,0.97,1.09,0.96,-0.95,-1.15,-1.49,0.14,0.13,0.12
62.18,1.19,1.10,1.15,1.06,-1.05,-1.24,-1.56,0.14,0.10,0.09
62.80,1.19,1.13,1.20,1.15,-1.14,-1.32,-1.62,0.04,0.06,0.05
63.43,1.23,1.21,1.24,1.22,-1.23,-1.40,-1.68,-0.01,0.01,0.02
64.07,1.29,1.32,1.29,1.31,-1.32,-1.48,-1.74,-0.03,-0.04,-0.02
64.71,1.36,1.41,1.36,1.42,-1.41,-1.56,-1.79,-0.06,-0.05,-0.06
65.35,1.43,1.51,1.43,1.52,-1.50,-1.63,-1.84,-0.07,-0.07,-0.09
66.01,1.50,1.62,1.47,1.59,-1.59,-1.71,-1.89,-0.09,-0.12,-0.12
66.67,1.50,1.66,1.51,1.67,-1.67,-1.79,-1.93,-0.17,-0.16,-0.16
67.33,1.54,1.73,1.56,1.76,-1.76,-1.86,-1.97,-0.22,-0.20,-0.19
68.01,1.63,1.86,1.61,1.84,-1.85,-1.94,-2.02,-0.22,-0.24,-0.23
68.69,1.68,1.95,1.65,1.93,-1.94,-2.01,-2.05,-0.26,-0.28,-0.27
69.37,1.70,2.01,1.70,2.01,-2.02,-2.08,-2.09,-0.33,-0.32,-0.32
70.07,1.71,2.06,1.75,2.11,-2.11,-2.15,-2.12,-0.41,-0.36,-0.36
70.77,1.85,2.23,1.81,2.20,-2.21,-2.22,-2.16,-0.36,-0.39,-0.39
71.48,1.90,2.33,1.88,2.31,-2.30,-2.29,-2.19,-0.40,-0.42,-0.43
72.19,1.91,2.38,1.93,2.41,-2.39,-2.36,-2.22,-0.48,-0.46,-0.48
72.91,1.96,2.49,1.95,2.48,-2.48,-2.43,-2.26,-0.52,-0.53,-0.53
73.64,1.99,2.56,1.98,2.56,-2.57,-2.50,-2.29,-0.58,-0.58,-0.57
74.38,2.02,2.64,2.02,2.64,-2.65,-2.57,-2.32,-0.64,-0.64,-0.62
75.12,2.06,2.72,2.05,2.72,-2.73,-2.63,-2.35,-0.68,-0.68,-0.67
75.87,2.09,2.79,2.10,2.80,-2.80,-2.70,-2.38,-0.71,-0.70,-0.70
76.63,2.16,2.90,2.15,2.89,-2.86,-2.76,-2.42,-0.71,-0.72,-0.74
77.40,2.20,2.97,2.18,2.96,-2.93,-2.82,-2.45,-0.73,-0.74,-0.78
78.17,2.20,3.01,2.20,3.01,-2.99,-2.89,-2.49,-0.79,-0.79,-0.82
78.95,2.20,3.04,2.19,3.04,-3.05,-2.95,-2.52,-0.86,-0.86,-0.85
79.74,2.20,3.07,2.19,3.07,-3.11,-3.01,-2.56,-0.92,-0.92,-0.87
80.54,2.21,3.11,2.23,3.14,-3.17,-3.07,-2.60,-0.97,-0.94,-0.90
81.35,2.28,3.21,2.29,3.23,-3.23,-3.13,-2.64,-0.96,-0.94,-0.94
82.16,2.40,3.36,2.35,3.31,-3.30,-3.19,-2.69,-0.90,-0.95,-0.97
82.98,2.40,3.38,2.39,3.39,-3.36,-3.24,-2.73,-0.96,-0.96,-0.99
83.81,2.40,3.43,2.42,3.44,-3.42,-3.30,-2.78,-1.03,-1.01,-1.03
84.65,2.43,3.49,2.43,3.49,-3.49,-3.35,-2.83,-1.06,-1.06,-1.06
85.50,2.47,3.55,2.46,3.55,-3.55,-3.41,-2.88,-1.09,-1.09,-1.09
86.35,2.50,3.62,2.48,3.60,-3.61,-3.46,-2.93,-1.12,-1.13,-1.12
87.22,2.50,3.65,2.50,3.66,-3.67,-3.52,-2.99,-1.17,-1.16,-1.16
88.09,2.51,3.70,2.54,3.72,-3.73,-3.57,-3.05,-1.22,-1.19,-1.19
88.97,2.60,3.81,2.56,3.78,-3.79,-3.62,-3.11,-1.19,-1.23,-1.22
89.86,2.61,3.86,2.60,3.85,-3.85,-3.67,-3.18,-1.25,-1.25,-1.25
90.76,2.61,3.89,2.63,3.92,-3.91,-3.72,-3.24,-1.31,-1.28,-1.29
91.66,2.66,3.97,2.65,3.97,-3.97,-3.77,-3.31,-1.31,-1.32,-1.31
92.58,2.70,4.05,2.68,4.03,-4.02,-3.82,-3.38,-1.33,-1.34,-1.35
93.51,2.71,4.08,2.71,4.08,-4.07,-3.86,-3.45,-1.36,-1.36,-1.38
94.44,2.71,4.11,2.71,4.12,-4.10,-3.91,-3.53,-1.40,-1.40,-1.41
95.39,2.71,4.14,2.70,4.14,-4.14,-3.95,-3.61,-1.43,-1.43,-1.43
96.34,2.70,4.17,2.70,4.17,-4.17,-4.00,-3.69,-1.47,-1.47,-1.47
97.30,2.70,4.20,2.69,4.19,-4.20,-4.04,-3.77,-1.50,-1.51,-1.50
98.28,2.69,4.21,2.69,4.21,-4.23,-4.09,-3.85,-1.54,-1.54,-1.53
99.26,2.69,4.23,2.69,4.25,-4.26,-4.13,-3.94,-1.57,-1.56,-1.55
100.25,2.71,4.28,2.71,4.28,-4.29,-4.17,-4.03,-1.58,-1.58,-1.58
101.25,2.74,4.34,2.72,4.33,-4.32,-4.21,-4.12,-1.59,-1.60,-1.61
102.27,2.73,4.36,2.72,4.36,-4.36,-4.25,-4.20,-1.64,-1.64,-1.64
103.29,2.72,4.40,2.72,4.40,-4.40,-4.29,-4.29,-1.68,-1.68,-1.68
104.32,2.72,4.42,2.72,4.43,-4.44,-4.33,-4.38,-1.72,-1.71,-1.70
105.37,2.74,4.48,2.73,4.47,-4.47,-4.36,-4.47,-1.73,-1.74,-1.74
106.42,2.75,4.52,2.73,4.51,-4.50,-4.40,-4.56,-1.75,-1.76,-1.77
107.48,2.72,4.53,2.72,4.53,-4.52,-4.44,-4.65,-1.81,-1.80,-1.81
108.56,2.70,4.55,2.70,4.55,-4.55,-4.47,-4.74,-1.85,-1.85,-1.85
109.64,2.68,4.57,2.67,4.56,-4.57,-4.50,-4.83,-1.89,-1.90,-1.89
110.74,2.66,4.58,2.65,4.58,-4.59,-4.54,-4.91,-1.93,-1.94,-1.92
111.85,2.64,4.58,2.64,4.59,-4.61,-4.57,-4.99,-1.97,-1.97,-1.95
112.97,2.63,4.62,2.63,4.62,-4.62,-4.60,-5.07,-2.00,-1.99,-2.00
114.10,2.63,4.64,2.63,4.65,-4.63,-4.63,-5.14,-2.01,-2.01,-2.02
115.24,2.63,4.68,2.62,4.67,-4.65,-4.66,-5.21,-2.02,-2.03,-2.05
116.39,2.60,4.68,2.59,4.67,-4.66,-4.69,-5.28,-2.06,-2.07,-2.08
117.55,2.56,4.67,2.56,4.67,-4.67,-4.72,-5.34,-2.12,-2.11,-2.11
118.73,2.53,4.66,2.54,4.67,-4.69,-4.75,-5.39,-2.16,-2.15,-2.14
119.92,2.54,4.68,2.53,4.69,-4.70,-4.77,-5.44,-2.17,-2.17,-2.14
121.12,2.55,4.72,2.54,4.71,-4.72,-4.80,-5.48,-2.17,-2.18,-2.17
122.33,2.56,4.74,2.55,4.74,-4.74,-4.83,-5.52,-2.18,-2.19,-2.19
123.55,2.56,4.75,2.56,4.76,-4.76,-4.85,-5.55,-2.21,-2.20,-2.19
124.79,2.57,4.78,2.57,4.78,-4.79,-4.87,-5.57,-2.22,-2.22,-2.22
126.03,2.58,4.81,2.57,4.81,-4.81,-4.90,-5.58,-2.23,-2.23,-2.23
127.29,2.59,4.83,2.59,4.84,-4.82,-4.92,-5.59,-2.24,-2.23,-2.25
128.57,2.59,4.86,2.59,4.86,-4.83,-4.94,-5.59,-2.25,-2.24,-2.27
129.85,2.60,4.88,2.57,4.86,-4.84,-4.96,-5.59,-2.24,-2.27,-2.29
131.15,2.54,4.83,2.55,4.85,-4.84,-4.98,-5.57,-2.31,-2.30,-2.30
132.46,2.52,4.83,2.52,4.83,-4.85,-5.00,-5.55,-2.33,-2.33,-2.31
133.79,2.51,4.82,2.50,4.83,-4.85,-5.02,-5.53,-2.35,-2.35,-2.31
135.12,2.51,4.85,2.51,4.84,-4.86,-5.04,-5.50,-2.35,-2.35,-2.34
136.48,2.52,4.86,2.51,4.86,-4.87,-5.05,-5.47,-2.35,-2.35,-2.35
137.84,2.52,4.88,2.51,4.89,-4.88,-5.07,-5.43,-2.36,-2.36,-2.37
139.22,2.52,4.91,2.52,4.91,-4.89,-5.09,-5.39,-2.38,-2.38,-2.40
140.61,2.52,4.93,2.52,4.92,-4.91,-5.10,-5.34,-2.40,-2.40,-2.41
142.02,2.52,4.93,2.52,4.94,-4.93,-5.12,-5.29,-2.42,-2.42,-2.41
143.44,2.52,4.95,2.52,4.95,-4.95,-5.13,-5.24,-2.44,-2.44,-2.43
144.87,2.52,4.97,2.52,4.97,-4.98,-5.14,-5.19,-2.47,-2.47,-2.46
146.32,2.52,5.00,2.52,5.00,-5.01,-5.15,-5.14,-2.50,-2.50,-2.49
147.78,2.52,5.03,2.52,5.03,-5.04,-5.16,-5.09,-2.53,-2.53,-2.51
149.26,2.52,5.06,2.52,5.07,-5.08,-5.17,-5.03,-2.56,-2.56,-2.55
150.75,2.52,5.12,2.52,5.12,-5.11,-5.18,-4.98,-2.60,-2.59,-2.60
152.26,2.52,5.16,2.52,5.17,-5.15,-5.19,-4.93,-2.63,-2.63,-2.65
153.78,2.52,5.22,2.50,5.21,-5.18,-5.20,-4.88,-2.66,-2.67,-2.70
155.32,2.47,5.23,2.47,5.23,-5.21,-5.21,-4.83,-2.75,-2.74,-2.76
156.88,2.43,5.24,2.42,5.24,-5.25,-5.21,-4.79,-2.82,-2.83,-2.82
158.44,2.36,5.24,2.37,5.25,-5.28,-5.22,-4.74,-2.93,-2.92,-2.89
160.03,2.33,5.28,2.33,5.28,-5.31,-5.22,-4.70,-2.99,-2.98,-2.95
161.63,2.32,5.32,2.31,5.32,-5.34,-5.23,-4.66,-3.03,-3.03,-3.00
163.24,2.32,5.38,2.32,5.37,-5.36,-5.23,-4.62,-3.05,-3.04,-3.06
164.88,2.32,5.41,2.31,5.41,-5.37,-5.23,-4.59,-3.06,-3.06,-3.09
166.53,2.31,5.44,2.29,5.42,-5.38,-5.24,-4.56,-3.07,-3.09,-3.13
168.19,2.25,5.40,2.25,5.41,-5.38,-5.24,-4.53,-3.14,-3.13,-3.16
169.87,2.20,5.38,2.19,5.38,-5.38,-5.24,-4.50,-3.18,-3.18,-3.19
171.57,2.14,5.34,2.14,5.34,-5.36,-5.24,-4.48,-3.23,-3.23,-3.20
173.29,2.10,5.31,2.10,5.31,-5.35,-5.24,-4.46,-3.25,-3.25,-3.21
175.02,2.08,5.29,2.08,5.30,-5.33,-5.23,-4.45,-3.25,-3.25,-3.22
176.77,2.08,5.30,2.07,5.30,-5.30,-5.23,-4.44,-3.23,-3.23,-3.22
178.54,2.08,5.31,2.08,5.30,-5.29,-5.23,-4.43,-3.21,-3.21,-3.23
180.32,2.08,5.29,2.07,5.29,-5.27,-5.22,-4.42,-3.20,-3.20,-3.21
182.13,2.08,5.28,2.06,5.27,-5.26,-5.22,-4.42,-3.18,-3.20,-3.21
183.95,2.03,5.24,2.04,5.25,-5.25,-5.21,-4.42,-3.22,-3.21,-3.21
185.79,2.01,5.22,2.01,5.23,-5.24,-5.21,-4.43,-3.23,-3.23,-3.22
187.65,2.00,5.23,1.98,5.20,-5.23,-5.20,-4.44,-3.23,-3.25,-3.23
189.52,1.95,5.18,1.96,5.20,-5.22,-5.19,-4.45,-3.27,-3.26,-3.23
191.42,1.95,5.19,1.95,5.20,-5.21,-5.18,-4.46,-3.26,-3.25,-3.25
193.33,1.96,5.21,1.94,5.20,-5.19,-5.17,-4.48,-3.24,-3.25,-3.26
195.27,1.94,5.21,1.93,5.21,-5.18,-5.16,-4.50,-3.24,-3.25,-3.27
197.22,1.91,5.20,1.91,5.20,-5.17,-5.15,-4.53,-3.26,-3.26,-3.29
199.19,1.86,5.17,1.86,5.16,-5.15,-5.14,-4.55,-3.30,-3.30,-3.31
201.18,1.82,5.14,1.80,5.13,-5.14,-5.12,-4.58,-3.33,-3.34,-3.32
203.19,1.75,5.08,1.76,5.09,-5.13,-5.11,-4.61,-3.38,-3.37,-3.33
205.23,1.72,5.08,1.73,5.08,-5.11,-5.10,-4.64,-3.40,-3.39,-3.36
207.28,1.72,5.08,1.72,5.09,-5.09,-5.08,-4.67,-3.38,-3.38,-3.36
209.35,1.72,5.11,1.71,5.10,-5.07,-5.06,-4.71,-3.36,-3.36,-3.39
211.44,1.70,5.11,1.68,5.09,-5.05,-5.05,-4.74,-3.35,-3.37,-3.41
213.56,1.63,5.04,1.63,5.05,-5.03,-5.03,-4.78,-3.40,-3.40,-3.42
215.69,1.57,4.99,1.57,5.00,-5.00,-5.01,-4.81,-3.44,-3.44,-3.43
217.85,1.50,4.93,1.52,4.96,-4.97,-4.99,-4.85,-3.48,-3.46,-3.44
220.03,1.50,4.95,1.48,4.93,-4.94,-4.97,-4.88,-3.44,-3.46,-3.45
222.23,1.46,4.92,1.44,4.89,-4.90,-4.95,-4.91,-3.45,-3.46,-3.46
224.45,1.40,4.84,1.42,4.87,-4.87,-4.93,-4.94,-3.47,-3.45,-3.45
226.70,1.39,4.83,1.39,4.84,-4.84,-4.90,-4.97,-3.45,-3.44,-3.44
228.96,1.40,4.84,1.36,4.80,-4.81,-4.88,-4.99,-3.41,-3.45,-3.44
231.25,1.34,4.76,1.34,4.77,-4.78,-4.85,-5.02,-3.45,-3.44,-3.43
233.57,1.31,4.72,1.33,4.74,-4.75,-4.83,-5.04,-3.45,-3.42,-3.41
235.90,1.33,4.73,1.32,4.72,-4.72,-4.80,-5.05,-3.39,-3.40,-3.40
238.26,1.34,4.71,1.33,4.70,-4.68,-4.78,-5.06,-3.34,-3.35,-3.38
240.64,1.32,4.67,1.31,4.66,-4.63,-4.75,-5.07,-3.32,-3.32,-3.35
243.05,1.29,4.60,1.28,4.60,-4.59,-4.72,-5.07,-3.30,-3.31,-3.32
245.48,1.23,4.52,1.25,4.54,-4.54,-4.69,-5.07,-3.31,-3.29,-3.29
247.93,1.22,4.48,1.21,4.48,-4.49,-4.66,-5.06,-3.28,-3.28,-3.27
250.41,1.21,4.46,1.18,4.43,-4.45,-4.63,-5.04,-3.24,-3.27,-3.25
252.92,1.15,4.36,1.17,4.39,-4.41,-4.60,-5.02,-3.26,-3.24,-3.22
255.45,1.17,4.36,1.16,4.36,-4.37,-4.56,-5.00,-3.20,-3.21,-3.19
258.00,1.18,4.35,1.17,4.34,-4.34,-4.53,-4.97,-3.16,-3.17,-3.17
260.58,1.18,4.33,1.18,4.33,-4.31,-4.49,-4.93,-3.14,-3.14,-3.16
263.19,1.18,4.31,1.18,4.31,-4.30,-4.46,-4.89,-3.12,-3.12,-3.13
265.82,1.18,4.29,1.17,4.29,-4.29,-4.42,-4.84,-3.11,-3.12,-3.12
268.48,1.18,4.27,1.17,4.26,-4.28,-4.39,-4.79,-3.11,-3.12,-3.09
271.16,1.17,4.23,1.18,4.25,-4.27,-4.35,-4.74,-3.11,-3.09,-3.06
273.87,1.19,4.23,1.20,4.25,-4.26,-4.31,-4.68,-3.07,-3.06,-3.05
276.61,1.26,4.28,1.24,4.26,-4.24,-4.27,-4.62,-2.98,-3.00,-3.02
279.38,1.27,4.26,1.26,4.26,-4.22,-4.23,-4.56,-2.95,-2.95,-2.99
282.17,1.27,4.24,1.25,4.22,-4.19,-4.19,-4.49,-2.92,-2.94,-2.98
284.99,1.22,4.15,1.21,4.16,-4.15,-4.15,-4.42,-2.94,-2.94,-2.94
287.84,1.17,4.08,1.19,4.10,-4.12,-4.11,-4.35,-2.95,-2.92,-2.91
290.72,1.18,4.05,1.18,4.06,-4.08,-4.07,-4.28,-2.90,-2.89,-2.87
293.63,1.21,4.05,1.17,4.01,-4.03,-4.02,-4.21,-2.83,-2.86,-2.85
296.57,1.17,3.98,1.15,3.97,-3.99,-3.98,-4.14,-2.82,-2.83,-2.81
299.53,1.10,3.89,1.15,3.94,-3.94,-3.94,-4.07,-2.85,-2.79,-2.79
302.53,1.15,3.91,1.14,3.90,-3.90,-3.89,-3.99,-2.75,-2.76,-2.76
305.55,1.19,3.91,1.14,3.87,-3.85,-3.85,-3.92,-2.67,-2.72,-2.73
308.61,1.11,3.81,1.13,3.83,-3.80,-3.80,-3.85,-2.70,-2.68,-2.71
311.69,1.07,3.76,1.08,3.77,-3.75,-3.75,-3.78,-2.68,-2.66,-2.69
314.81,1.05,3.70,1.03,3.69,-3.69,-3.71,-3.71,-2.65,-2.66,-2.65
317.96,1.00,3.64,0.99,3.63,-3.64,-3.66,-3.64,-2.64,-2.65,-2.64
321.14,0.93,3.55,0.93,3.56,-3.59,-3.61,-3.58,-2.66,-2.65,-2.63
324.35,0.89,3.50,0.89,3.51,-3.54,-3.57,-3.51,-2.66,-2.65,-2.62
327.59,0.87,3.47,0.87,3.48,-3.49,-3.52,-3.45,-2.63,-2.62,-2.60
330.87,0.87,3.46,0.86,3.46,-3.45,-3.47,-3.39,-2.58,-2.58,-2.59
334.18,0.87,3.45,0.85,3.43,-3.40,-3.43,-3.33,-2.53,-2.55,-2.58
337.52,0.81,3.38,0.82,3.39,-3.35,-3.38,-3.28,-2.55,-2.54,-2.57
340.90,0.78,3.33,0.77,3.33,-3.31,-3.33,-3.22,-2.53,-2.53,-2.56
344.30,0.72,3.26,0.72,3.26,-3.26,-3.28,-3.17,-2.55,-2.55,-2.55
347.75,0.68,3.21,0.65,3.19,-3.22,-3.24,-3.12,-2.55,-2.57,-2.54
351.23,0.59,3.12,0.60,3.13,-3.17,-3.19,-3.07,-2.59,-2.58,-2.53
354.74,0.55,3.08,0.58,3.11,-3.13,-3.14,-3.03,-2.58,-2.55,-2.53
358.28,0.59,3.11,0.57,3.09,-3.08,-3.10,-2.98,-2.50,-2.52,-2.52
361.87,0.60,3.12,0.56,3.08,-3.05,-3.05,-2.94,-2.45,-2.49,-2.52
365.49,0.51,3.02,0.54,3.05,-3.02,-3.00,-2.91,-2.51,-2.48,-2.51
369.14,0.49,3.00,0.48,3.00,-3.00,-2.96,-2.87,-2.51,-2.52,-2.52
372.83,0.45,2.96,0.43,2.94,-2.98,-2.91,-2.84,-2.53,-2.55,-2.52
376.56,0.38,2.89,0.42,2.93,-2.95,-2.87,-2.80,-2.58,-2.54,-2.52
380.33,0.41,2.90,0.41,2.92,-2.92,-2.83,-2.78,-2.52,-2.51,-2.50
384.13,0.45,2.95,0.40,2.91,-2.90,-2.78,-2.75,-2.45,-2.49,-2.51
387.97,0.39,2.90,0.40,2.90,-2.87,-2.74,-2.72,-2.48,-2.47,-2.51
391.85,0.34,2.85,0.35,2.85,-2.84,-2.70,-2.70,-2.50,-2.49,-2.51
395.77,0.31,2.81,0.28,2.78,-2.80,-2.66,-2.68,-2.50,-2.52,-2.50
399.73,0.22,2.72,0.25,2.76,-2.76,-2.62,-2.66,-2.54,-2.51,-2.50
403.72,0.20,2.71,0.22,2.73,-2.71,-2.58,-2.64,-2.51,-2.49,-2.51
407.76,0.24,2.75,0.17,2.68,-2.66,-2.55,-2.62,-2.43,-2.50,-2.51
411.84,0.11,2.61,0.11,2.62,-2.62,-2.51,-2.61,-2.52,-2.52,-2.50
415.96,-0.00,2.51,0.04,2.55,-2.59,-2.48,-2.59,-2.59,-2.55,-2.52
420.12,-0.00,2.51,-0.01,2.51,-2.56,-2.44,-2.58,-2.56,-2.57,-2.52
424.32,0.02,2.52,0.00,2.52,-2.53,-2.41,-2.57,-2.52,-2.53,-2.51
428.56,0.03,2.53,0.03,2.53,-2.50,-2.38,-2.55,-2.48,-2.47,-2.51
432.85,0.05,2.53,0.04,2.52,-2.48,-2.35,-2.54,-2.43,-2.44,-2.49
437.18,0.03,2.49,0.02,2.48,-2.46,-2.32,-2.53,-2.43,-2.44,-2.47
441.55,0.01,2.43,-0.00,2.43,-2.44,-2.30,-2.52,-2.43,-2.44,-2.43
445.96,-0.03,2.36,-0.01,2.39,-2.42,-2.27,-2.51,-2.45,-2.43,-2.40
450.42,0.01,2.37,0.01,2.37,-2.40,-2.25,-2.50,-2.40,-2.39,-2.37
454.93,0.06,2.37,0.05,2.37,-2.38,-2.22,-2.49,-2.33,-2.33,-2.31
459.48,0.12,2.39,0.09,2.36,-2.36,-2.20,-2.48,-2.24,-2.27,-2.27
464.07,0.14,2.35,0.13,2.34,-2.34,-2.18,-2.47,-2.20,-2.21,-2.21
468.71,0.13,2.29,0.17,2.33,-2.31,-2.16,-2.46,-2.19,-2.14,-2.16
473.40,0.23,2.34,0.19,2.30,-2.28,-2.14,-2.45,-2.06,-2.09,-2.11
478.13,0.23,2.29,0.22,2.28,-2.25,-2.12,-2.43,-2.02,-2.03,-2.06
