frequency,raw,error,smoothed,error_smoothed,equalization,parametric_eq,fixed_band_eq,equalized_raw,equalized_smoothed,target
20.00,0.48,-1.28,0.48,-1.29,1.26,1.09,0.10,1.74,1.74,1.76
20.20,0.53,-1.27,0.53,-1.27,1.26,1.09,0.10,1.79,1.80,1.80
20.40,0.58,-1.26,0.59,-1.25,1.26,1.09,0.11,1.84,1.85,1.84
20.61,0.63,-1.23,0.64,-1.24,1.25,1.09,0.11,1.88,1.89,1.86
20.81,0.68,-1.22,0.68,-1.22,1.24,1.08,0.12,1.93,1.93,1.90
21.02,0.73,-1.21,0.72,-1.21,1.23,1.07,0.12,1.96,1.96,1.94
21.23,0.75,-1.20,0.75,-1.21,1.22,1.06,0.13,1.97,1.97,1.95
21.44,0.77,-1.20,0.77,-1.20,1.20,1.05,0.13,1.97,1.97,1.97
21.66,0.79,-1.19,0.79,-1.19,1.18,1.04,0.14,1.97,1.97,1.98
21.87,0.81,-1.17,0.81,-1.17,1.16,1.02,0.14,1.97,1.97,1.98
22.09,0.84,-1.15,0.85,-1.15,1.13,1.01,0.15,1.97,1.97,1.99
22.31,0.88,-1.11,0.88,-1.11,1.09,0.99,0.15,1.98,1.98,1.99
22.54,0.93,-1.06,0.93,-1.06,1.06,0.97,0.16,1.99,1.99,1.99
22.76,0.97,-1.01,0.98,-1.01,1.02,0.95,0.17,2.00,2.00,1.98
22.99,1.02,-0.95,1.01,-0.96,0.99,0.92,0.17,2.01,2.00,1.97
23.22,1.03,-0.94,1.04,-0.93,0.96,0.90,0.18,1.99,1.99,1.97
23.45,1.05,-0.91,1.05,-0.91,0.92,0.87,0.19,1.97,1.97,1.96
23.69,1.06,-0.90,1.06,-0.90,0.88,0.84,0.19,1.94,1.94,1.96
23.92,1.08,-0.88,1.09,-0.88,0.84,0.81,0.20,1.92,1.93,1.96
24.16,1.12,-0.85,1.13,-0.83,0.80,0.78,0.21,1.92,1.93,1.97
24.40,1.19,-0.78,1.19,-0.77,0.76,0.75,0.22,1.95,1.95,1.97
24.65,1.26,-0.70,1.26,-0.70,0.71,0.72,0.22,1.97,1.97,1.96
24.89,1.32,-0.63,1.32,-0.64,0.67,0.69,0.23,1.99,1.99,1.96
25.14,1.36,-0.59,1.35,-0.60,0.63,0.66,0.24,1.99,1.98,1.96
25.39,1.37,-0.58,1.38,-0.58,0.59,0.62,0.24,1.96,1.97,1.96
25.65,1.38,-0.56,1.39,-0.56,0.57,0.59,0.25,1.95,1.96,1.95
25.91,1.40,-0.53,1.39,-0.54,0.55,0.55,0.26,1.95,1.95,1.94
26.16,1.40,-0.53,1.40,-0.53,0.54,0.52,0.26,1.94,1.94,1.93
26.43,1.40,-0.53,1.40,-0.53,0.52,0.49,0.27,1.92,1.92,1.93
26.69,1.41,-0.52,1.41,-0.53,0.50,0.45,0.28,1.91,1.90,1.93
26.96,1.41,-0.51,1.42,-0.50,0.47,0.42,0.28,1.88,1.89,1.92
27.23,1.45,-0.47,1.46,-0.46,0.44,0.38,0.29,1.89,1.90,1.92
27.50,1.51,-0.41,1.51,-0.41,0.42,0.35,0.29,1.93,1.93,1.92
27.77,1.56,-0.35,1.56,-0.35,0.39,0.31,0.29,1.95,1.95,1.91
28.05,1.60,-0.31,1.59,-0.32,0.36,0.28,0.30,1.96,1.95,1.91
28.33,1.59,-0.31,1.59,-0.31,0.33,0.24,0.30,1.92,1.92,1.90
28.62,1.59,-0.31,1.59,-0.31,0.29,0.21,0.30,1.89,1.88,1.90
28.90,1.58,-0.32,1.60,-0.30,0.26,0.17,0.30,1.85,1.86,1.90
29.19,1.62,-0.27,1.63,-0.27,0.24,0.14,0.29,1.86,1.86,1.90
29.48,1.68,-0.22,1.68,-0.22,0.21,0.10,0.29,1.89,1.89,1.91
29.78,1.74,-0.15,1.74,-0.16,0.19,0.07,0.29,1.93,1.93,1.89
30.08,1.79,-0.11,1.78,-0.12,0.15,0.04,0.28,1.94,1.93,1.90
30.38,1.79,-0.09,1.79,-0.10,0.11,0.00,0.27,1.91,1.91,1.88
30.68,1.79,-0.09,1.79,-0.09,0.07,-0.03,0.26,1.87,1.87,1.88
30.99,1.79,-0.08,1.81,-0.07,0.04,-0.06,0.25,1.83,1.84,1.87
31.30,1.84,-0.03,1.84,-0.03,0.00,-0.10,0.24,1.84,1.85,1.87
31.61,1.89,0.02,1.89,0.03,-0.03,-0.13,0.23,1.86,1.87,1.87
31.93,1.95,0.10,1.94,0.09,-0.06,-0.16,0.21,1.89,1.88,1.85
32.24,1.96,0.13,1.96,0.12,-0.09,-0.19,0.20,1.87,1.87,1.84
32.57,1.96,0.13,1.97,0.14,-0.13,-0.22,0.18,1.83,1.84,1.83
32.89,1.96,0.14,1.97,0.15,-0.17,-0.26,0.16,1.79,1.80,1.82
33.22,1.99,0.19,1.99,0.19,-0.21,-0.29,0.14,1.78,1.78,1.80
33.55,2.03,0.23,2.03,0.23,-0.25,-0.32,0.12,1.78,1.78,1.80
33.89,2.07,0.29,2.07,0.29,-0.30,-0.35,0.09,1.77,1.77,1.78
34.23,2.11,0.34,2.11,0.34,-0.34,-0.38,0.07,1.77,1.77,1.78
34.57,2.15,0.40,2.16,0.40,-0.39,-0.41,0.04,1.76,1.76,1.75
34.92,2.20,0.46,2.20,0.45,-0.44,-0.44,0.01,1.77,1.76,1.74
35.27,2.23,0.49,2.23,0.50,-0.48,-0.47,-0.02,1.76,1.76,1.74
35.62,2.25,0.53,2.26,0.53,-0.51,-0.50,-0.05,1.74,1.74,1.72
35.97,2.27,0.57,2.27,0.56,-0.55,-0.53,-0.08,1.73,1.72,1.71
36.33,2.27,0.57,2.27,0.57,-0.58,-0.56,-0.11,1.69,1.68,1.70
36.70,2.27,0.58,2.27,0.58,-0.62,-0.59,-0.14,1.66,1.66,1.69
37.06,2.28,0.60,2.30,0.62,-0.65,-0.62,-0.18,1.63,1.65,1.68
37.43,2.35,0.67,2.35,0.68,-0.68,-0.65,-0.21,1.67,1.67,1.69
37.81,2.42,0.75,2.41,0.74,-0.72,-0.68,-0.25,1.71,1.69,1.67
38.19,2.46,0.80,2.45,0.78,-0.75,-0.71,-0.28,1.71,1.70,1.66
38.57,2.46,0.79,2.47,0.80,-0.79,-0.74,-0.32,1.68,1.68,1.67
38.95,2.46,0.81,2.47,0.81,-0.82,-0.77,-0.36,1.64,1.65,1.66
39.34,2.48,0.83,2.48,0.83,-0.85,-0.80,-0.40,1.64,1.64,1.65
39.74,2.50,0.86,2.50,0.86,-0.87,-0.83,-0.44,1.64,1.64,1.64
40.14,2.53,0.90,2.53,0.89,-0.88,-0.85,-0.48,1.65,1.64,1.64
40.54,2.54,0.91,2.55,0.91,-0.90,-0.88,-0.52,1.64,1.65,1.63
40.94,2.56,0.93,2.56,0.93,-0.92,-0.91,-0.56,1.64,1.64,1.63
41.35,2.56,0.95,2.56,0.94,-0.95,-0.94,-0.60,1.61,1.61,1.62
41.76,2.56,0.96,2.57,0.96,-0.98,-0.97,-0.64,1.58,1.59,1.60
42.18,2.58,0.98,2.59,1.00,-1.02,-1.00,-0.68,1.56,1.57,1.60
42.60,2.63,1.05,2.63,1.04,-1.05,-1.03,-0.73,1.58,1.58,1.58
43.03,2.68,1.10,2.68,1.10,-1.09,-1.06,-0.77,1.59,1.58,1.58
43.46,2.71,1.16,2.72,1.16,-1.14,-1.09,-0.81,1.58,1.58,1.56
43.90,2.74,1.21,2.74,1.20,-1.18,-1.12,-0.86,1.56,1.55,1.53
44.33,2.75,1.24,2.75,1.23,-1.23,-1.15,-0.91,1.52,1.51,1.52
44.78,2.75,1.26,2.76,1.27,-1.28,-1.18,-0.95,1.47,1.48,1.49
45.23,2.77,1.30,2.78,1.30,-1.33,-1.21,-1.00,1.45,1.46,1.48
45.68,2.82,1.36,2.82,1.36,-1.37,-1.24,-1.05,1.46,1.45,1.46
46.13,2.86,1.42,2.86,1.41,-1.40,-1.27,-1.09,1.46,1.46,1.45
46.60,2.90,1.46,2.90,1.46,-1.44,-1.30,-1.14,1.46,1.46,1.44
47.06,2.93,1.50,2.93,1.49,-1.47,-1.33,-1.19,1.46,1.45,1.43
47.53,2.94,1.51,2.94,1.51,-1.51,-1.36,-1.24,1.43,1.43,1.43
48.01,2.95,1.53,2.95,1.53,-1.54,-1.39,-1.29,1.41,1.40,1.42
48.49,2.95,1.55,2.95,1.55,-1.57,-1.42,-1.34,1.38,1.38,1.41
48.97,2.96,1.57,2.98,1.59,-1.60,-1.46,-1.39,1.36,1.38,1.39
49.46,3.00,1.62,3.00,1.62,-1.62,-1.49,-1.44,1.38,1.38,1.38
49.96,3.04,1.68,3.03,1.65,-1.63,-1.52,-1.50,1.41,1.39,1.36
50.46,3.04,1.67,3.04,1.67,-1.65,-1.55,-1.55,1.39,1.40,1.38
50.96,3.04,1.67,3.05,1.68,-1.66,-1.58,-1.60,1.38,1.38,1.37
51.47,3.04,1.68,3.04,1.68,-1.68,-1.61,-1.65,1.36,1.36,1.36
51.99,3.04,1.69,3.04,1.68,-1.70,-1.65,-1.71,1.35,1.34,1.35
52.51,3.04,1.69,3.04,1.69,-1.72,-1.68,-1.76,1.32,1.32,1.35
53.03,3.04,1.69,3.06,1.71,-1.74,-1.71,-1.81,1.30,1.32,1.35
53.56,3.10,1.76,3.10,1.75,-1.77,-1.74,-1.86,1.33,1.33,1.34
54.10,3.15,1.82,3.15,1.81,-1.80,-1.78,-1.91,1.35,1.35,1.33
54.64,3.20,1.87,3.20,1.87,-1.84,-1.81,-1.97,1.37,1.36,1.33
55.18,3.23,1.91,3.22,1.90,-1.87,-1.84,-2.02,1.37,1.36,1.32
55.74,3.23,1.92,3.24,1.92,-1.90,-1.88,-2.07,1.34,1.34,1.31
56.29,3.23,1.92,3.24,1.93,-1.92,-1.91,-2.11,1.31,1.31,1.31
56.86,3.23,1.94,3.23,1.93,-1.95,-1.94,-2.16,1.28,1.28,1.29
57.42,3.23,1.95,3.23,1.95,-1.97,-1.98,-2.21,1.26,1.26,1.28
58.00,3.23,1.97,3.25,1.98,-1.99,-2.01,-2.25,1.24,1.25,1.27
58.58,3.27,2.02,3.27,2.01,-2.02,-2.05,-2.30,1.25,1.25,1.25
59.16,3.30,2.06,3.30,2.06,-2.06,-2.08,-2.34,1.25,1.24,1.24
59.76,3.32,2.11,3.32,2.10,-2.10,-2.11,-2.38,1.22,1.21,1.22
60.35,3.33,2.14,3.33,2.14,-2.15,-2.15,-2.42,1.18,1.18,1.19
60.96,3.33,2.16,3.36,2.19,-2.20,-2.18,-2.45,1.13,1.15,1.17
61.57,3.39,2.27,3.39,2.26,-2.25,-2.22,-2.49,1.14,1.13,1.12
62.18,3.43,2.34,3.42,2.33,-2.31,-2.26,-2.52,1.12,1.11,1.09
62.80,3.43,2.38,3.44,2.38,-2.36,-2.29,-2.55,1.07,1.07,1.05
63.43,3.43,2.42,3.43,2.42,-2.42,-2.33,-2.58,1.01,1.02,1.02
64.07,3.43,2.45,3.43,2.45,-2.47,-2.36,-2.61,0.96,0.96,0.98
64.71,3.44,2.50,3.45,2.51,-2.53,-2.40,-2.64,0.92,0.93,0.94
65.35,3.47,2.56,3.48,2.57,-2.57,-2.43,-2.66,0.90,0.90,0.91
66.01,3.52,2.65,3.51,2.63,-2.62,-2.47,-2.68,0.90,0.88,0.87
66.67,3.52,2.69,3.52,2.68,-2.67,-2.51,-2.71,0.86,0.86,0.84
67.33,3.52,2.72,3.53,2.72,-2.71,-2.54,-2.73,0.81,0.81,0.81
68.01,3.52,2.76,3.52,2.76,-2.76,-2.58,-2.74,0.76,0.76,0.77
68.69,3.52,2.80,3.52,2.80,-2.80,-2.62,-2.76,0.72,0.72,0.73
69.37,3.52,2.84,3.52,2.84,-2.85,-2.65,-2.78,0.68,0.68,0.68
70.07,3.52,2.88,3.52,2.88,-2.88,-2.69,-2.80,0.64,0.64,0.64
70.77,3.52,2.91,3.52,2.92,-2.92,-2.72,-2.82,0.60,0.60,0.61
71.48,3.52,2.96,3.53,2.96,-2.95,-2.76,-2.83,0.57,0.58,0.57
72.19,3.52,3.00,3.52,3.00,-2.99,-2.80,-2.85,0.54,0.54,0.52
72.91,3.52,3.05,3.50,3.03,-3.02,-2.83,-2.87,0.50,0.48,0.47
73.64,3.46,3.04,3.47,3.05,-3.05,-2.87,-2.89,0.41,0.42,0.42
74.38,3.43,3.05,3.45,3.07,-3.08,-2.90,-2.90,0.35,0.36,0.38
75.12,3.43,3.10,3.43,3.09,-3.11,-2.93,-2.92,0.32,0.32,0.33
75.87,3.43,3.14,3.43,3.14,-3.14,-2.97,-2.95,0.30,0.30,0.30
76.63,3.43,3.17,3.43,3.18,-3.16,-3.00,-2.97,0.28,0.28,0.26
77.40,3.42,3.20,3.41,3.19,-3.18,-3.03,-2.99,0.24,0.23,0.22
78.17,3.39,3.21,3.38,3.20,-3.20,-3.06,-3.02,0.19,0.18,0.18
78.95,3.33,3.18,3.36,3.20,-3.21,-3.09,-3.04,0.12,0.14,0.15
79.74,3.33,3.21,3.34,3.21,-3.22,-3.12,-3.07,0.11,0.11,0.12
80.54,3.33,3.24,3.32,3.22,-3.22,-3.14,-3.10,0.11,0.09,0.09
81.35,3.30,3.24,3.30,3.24,-3.22,-3.16,-3.14,0.09,0.08,0.06
82.16,3.25,3.22,3.27,3.23,-3.21,-3.18,-3.17,0.04,0.06,0.03
82.98,3.23,3.22,3.21,3.21,-3.20,-3.19,-3.21,0.03,0.01,0.01
83.81,3.15,3.18,3.15,3.18,-3.19,-3.20,-3.25,-0.04,-0.04,-0.03
84.65,3.07,3.14,3.09,3.15,-3.17,-3.21,-3.29,-0.10,-0.08,-0.07
85.50,3.04,3.13,3.05,3.14,-3.15,-3.21,-3.33,-0.11,-0.10,-0.09
86.35,3.03,3.15,3.02,3.15,-3.14,-3.21,-3.38,-0.10,-0.11,-0.12
87.22,3.00,3.16,2.99,3.14,-3.12,-3.20,-3.43,-0.12,-0.14,-0.16
88.09,2.94,3.13,2.94,3.12,-3.12,-3.20,-3.48,-0.18,-0.18,-0.19
88.97,2.86,3.08,2.88,3.11,-3.12,-3.19,-3.54,-0.26,-0.24,-0.22
89.86,2.85,3.10,2.85,3.11,-3.13,-3.20,-3.59,-0.28,-0.28,-0.25
90.76,2.85,3.14,2.85,3.13,-3.14,-3.22,-3.65,-0.29,-0.30,-0.29
91.66,2.86,3.18,2.86,3.18,-3.16,-3.25,-3.72,-0.30,-0.30,-0.32
92.58,2.86,3.21,2.86,3.21,-3.19,-3.31,-3.78,-0.32,-0.32,-0.35
93.51,2.86,3.24,2.86,3.24,-3.22,-3.38,-3.85,-0.36,-0.36,-0.38
94.44,2.86,3.27,2.85,3.26,-3.27,-3.47,-3.92,-0.41,-0.42,-0.41
95.39,2.85,3.29,2.87,3.30,-3.33,-3.57,-3.99,-0.47,-0.46,-0.44
96.34,2.88,3.36,2.90,3.37,-3.39,-3.67,-4.07,-0.51,-0.49,-0.47
97.30,2.97,3.47,2.95,3.45,-3.46,-3.77,-4.14,-0.49,-0.51,-0.50
98.28,3.02,3.55,3.02,3.55,-3.54,-3.87,-4.22,-0.52,-0.52,-0.53
99.26,3.08,3.63,3.10,3.65,-3.64,-3.96,-4.30,-0.55,-0.54,-0.55
100.25,3.18,3.76,3.16,3.74,-3.74,-4.05,-4.39,-0.56,-0.58,-0.58
101.25,3.24,3.85,3.23,3.84,-3.86,-4.14,-4.47,-0.62,-0.63,-0.61
102.27,3.29,3.93,3.32,3.97,-3.99,-4.22,-4.56,-0.69,-0.66,-0.64
103.29,3.42,4.11,3.42,4.09,-4.11,-4.29,-4.64,-0.68,-0.69,-0.69
104.32,3.54,4.25,3.53,4.24,-4.23,-4.37,-4.73,-0.68,-0.70,-0.71
105.37,3.62,4.37,3.63,4.37,-4.34,-4.44,-4.82,-0.72,-0.71,-0.74
106.42,3.71,4.49,3.71,4.48,-4.45,-4.51,-4.91,-0.74,-0.75,-0.77
107.48,3.77,4.59,3.77,4.58,-4.57,-4.57,-4.99,-0.79,-0.80,-0.81
108.56,3.81,4.67,3.82,4.67,-4.67,-4.64,-5.08,-0.86,-0.85,-0.85
109.64,3.86,4.75,3.86,4.74,-4.77,-4.70,-5.17,-0.90,-0.91,-0.89
110.74,3.91,4.83,3.92,4.84,-4.86,-4.76,-5.25,-0.95,-0.94,-0.92
111.85,3.97,4.92,3.99,4.95,-4.95,-4.82,-5.34,-0.98,-0.96,-0.95
112.97,4.10,5.10,4.06,5.05,-5.05,-4.88,-5.42,-0.95,-0.99,-1.00
114.10,4.12,5.14,4.13,5.15,-5.15,-4.94,-5.49,-1.03,-1.03,-1.02
115.24,4.17,5.23,4.19,5.24,-5.26,-5.00,-5.57,-1.09,-1.07,-1.06
116.39,4.26,5.35,4.26,5.34,-5.36,-5.06,-5.64,-1.10,-1.10,-1.08
117.55,4.33,5.44,4.35,5.47,-5.46,-5.12,-5.71,-1.12,-1.10,-1.11
118.73,4.46,5.60,4.44,5.57,-5.55,-5.18,-5.77,-1.08,-1.11,-1.14
119.92,4.52,5.67,4.50,5.66,-5.63,-5.24,-5.83,-1.11,-1.13,-1.15
121.12,4.53,5.70,4.56,5.73,-5.71,-5.29,-5.88,-1.18,-1.16,-1.17
122.33,4.59,5.78,4.59,5.78,-5.79,-5.35,-5.93,-1.20,-1.20,-1.19
123.55,4.64,5.84,4.64,5.84,-5.86,-5.41,-5.97,-1.22,-1.22,-1.19
124.79,4.69,5.91,4.70,5.91,-5.93,-5.47,-6.01,-1.24,-1.23,-1.22
126.03,4.75,5.99,4.74,5.98,-5.98,-5.52,-6.04,-1.23,-1.24,-1.24
127.29,4.78,6.03,4.79,6.05,-6.03,-5.58,-6.07,-1.25,-1.24,-1.25
128.57,4.83,6.11,4.83,6.10,-6.08,-5.64,-6.09,-1.25,-1.25,-1.27
129.85,4.86,6.15,4.86,6.14,-6.12,-5.70,-6.11,-1.26,-1.27,-1.29
131.15,4.87,6.17,4.87,6.17,-6.17,-5.75,-6.12,-1.30,-1.30,-1.30
132.46,4.87,6.19,4.87,6.19,-6.21,-5.81,-6.13,-1.34,-1.34,-1.31
133.79,4.88,6.20,4.89,6.21,-6.25,-5.87,-6.13,-1.37,-1.36,-1.31
135.12,4.91,6.26,4.92,6.25,-6.28,-5.92,-6.13,-1.37,-1.36,-1.35
136.48,4.96,6.31,4.95,6.31,-6.30,-5.98,-6.13,-1.34,-1.35,-1.35
137.84,4.98,6.35,4.98,6.35,-6.31,-6.04,-6.12,-1.33,-1.33,-1.37
139.22,4.98,6.38,4.98,6.37,-6.31,-6.10,-6.11,-1.33,-1.33,-1.40
140.61,4.95,6.37,4.94,6.35,-6.31,-6.15,-6.10,-1.36,-1.36,-1.42
142.02,4.89,6.31,4.89,6.31,-6.31,-6.21,-6.09,-1.41,-1.42,-1.41
143.44,4.82,6.26,4.83,6.27,-6.31,-6.27,-6.08,-1.48,-1.47,-1.43
144.87,4.79,6.25,4.79,6.25,-6.31,-6.32,-6.06,-1.52,-1.52,-1.46
146.32,4.79,6.28,4.79,6.27,-6.33,-6.38,-6.05,-1.54,-1.54,-1.49
147.78,4.80,6.32,4.82,6.33,-6.36,-6.43,-6.04,-1.56,-1.54,-1.51
149.26,4.86,6.41,4.85,6.41,-6.41,-6.49,-6.03,-1.54,-1.55,-1.55
150.75,4.89,6.50,4.88,6.48,-6.47,-6.54,-6.02,-1.58,-1.59,-1.60
152.26,4.89,6.54,4.90,6.55,-6.54,-6.60,-6.01,-1.65,-1.65,-1.65
153.78,4.89,6.59,4.90,6.60,-6.61,-6.65,-6.01,-1.72,-1.71,-1.70
155.32,4.89,6.66,4.90,6.66,-6.65,-6.71,-6.00,-1.76,-1.76,-1.77
156.88,4.89,6.71,4.89,6.71,-6.67,-6.76,-6.00,-1.78,-1.78,-1.82
158.44,4.85,6.74,4.85,6.74,-6.66,-6.81,-6.01,-1.80,-1.81,-1.89
160.03,4.78,6.73,4.76,6.71,-6.62,-6.87,-6.01,-1.84,-1.86,-1.95
161.63,4.63,6.63,4.64,6.64,-6.58,-6.92,-6.02,-1.95,-1.94,-2.00
163.24,4.48,6.54,4.48,6.54,-6.54,-6.97,-6.04,-2.06,-2.06,-2.06
164.88,4.36,6.45,4.35,6.44,-6.53,-7.02,-6.05,-2.17,-2.18,-2.09
166.53,4.24,6.37,4.28,6.41,-6.54,-7.07,-6.08,-2.29,-2.26,-2.13
168.19,4.28,6.44,4.29,6.45,-6.57,-7.11,-6.10,-2.29,-2.28,-2.16
169.87,4.40,6.59,4.39,6.58,-6.64,-7.16,-6.13,-2.24,-2.25,-2.19
171.57,4.54,6.75,4.55,6.75,-6.74,-7.21,-6.17,-2.19,-2.19,-2.21
173.29,4.71,6.92,4.70,6.92,-6.85,-7.25,-6.21,-2.14,-2.15,-2.21
175.02,4.84,7.06,4.85,7.07,-6.98,-7.30,-6.25,-2.14,-2.14,-2.22
176.77,4.96,7.19,4.95,7.17,-7.11,-7.34,-6.30,-2.15,-2.16,-2.23
178.54,5.02,7.25,5.01,7.23,-7.22,-7.38,-6.35,-2.20,-2.22,-2.23
180.32,5.04,7.26,5.08,7.30,-7.31,-7.42,-6.41,-2.27,-2.24,-2.22
182.13,5.12,7.33,5.14,7.36,-7.38,-7.45,-6.47,-2.26,-2.24,-2.21
183.95,5.25,7.47,5.21,7.42,-7.43,-7.49,-6.54,-2.18,-2.22,-2.22
185.79,5.26,7.48,5.27,7.49,-7.47,-7.52,-6.62,-2.20,-2.20,-2.22
187.65,5.28,7.51,5.29,7.52,-7.50,-7.56,-6.69,-2.22,-2.21,-2.23
189.52,5.29,7.53,5.29,7.53,-7.53,-7.59,-6.77,-2.24,-2.24,-2.24
191.42,5.30,7.55,5.31,7.55,-7.57,-7.62,-6.86,-2.27,-2.26,-2.25
193.33,5.32,7.58,5.32,7.58,-7.60,-7.64,-6.95,-2.28,-2.28,-2.26
195.27,5.33,7.60,5.33,7.61,-7.63,-7.67,-7.04,-2.30,-2.30,-2.27
197.22,5.35,7.64,5.35,7.64,-7.66,-7.69,-7.14,-2.31,-2.31,-2.29
199.19,5.36,7.68,5.38,7.69,-7.68,-7.71,-7.24,-2.32,-2.30,-2.31
201.18,5.42,7.75,5.41,7.74,-7.71,-7.73,-7.35,-2.29,-2.30,-2.32
203.19,5.44,7.78,5.42,7.76,-7.73,-7.74,-7.45,-2.29,-2.32,-2.33
205.23,5.39,7.76,5.41,7.76,-7.76,-7.76,-7.56,-2.36,-2.35,-2.36
207.28,5.37,7.74,5.38,7.76,-7.78,-7.77,-7.68,-2.41,-2.40,-2.36
209.35,5.37,7.77,5.37,7.76,-7.80,-7.78,-7.79,-2.42,-2.43,-2.39
211.44,5.37,7.78,5.37,7.77,-7.80,-7.78,-7.90,-2.43,-2.44,-2.41
213.56,5.36,7.78,5.37,7.79,-7.79,-7.79,-8.01,-2.43,-2.42,-2.42
215.69,5.36,7.79,5.37,7.80,-7.77,-7.79,-8.13,-2.40,-2.40,-2.43
217.85,5.35,7.79,5.34,7.78,-7.72,-7.79,-8.24,-2.37,-2.38,-2.44
220.03,5.29,7.75,5.28,7.74,-7.66,-7.78,-8.35,-2.37,-2.38,-2.45
222.23,5.19,7.65,5.19,7.64,-7.60,-7.78,-8.45,-2.41,-2.41,-2.46
224.45,5.06,7.51,5.06,7.52,-7.53,-7.77,-8.55,-2.46,-2.47,-2.45
226.70,4.94,7.39,4.96,7.40,-7.46,-7.76,-8.64,-2.51,-2.50,-2.45
228.96,4.87,7.31,4.89,7.33,-7.40,-7.75,-8.73,-2.52,-2.50,-2.44
231.25,4.88,7.31,4.87,7.30,-7.35,-7.73,-8.81,-2.47,-2.48,-2.43
233.57,4.89,7.31,4.88,7.30,-7.33,-7.72,-8.88,-2.43,-2.44,-2.42
235.90,4.90,7.30,4.92,7.32,-7.32,-7.70,-8.94,-2.42,-2.40,-2.40
238.26,4.98,7.36,4.97,7.35,-7.33,-7.68,-8.99,-2.35,-2.36,-2.38
240.64,5.03,7.38,5.04,7.39,-7.36,-7.65,-9.02,-2.33,-2.32,-2.35
243.05,5.10,7.42,5.10,7.42,-7.39,-7.63,-9.04,-2.29,-2.29,-2.32
245.48,5.16,7.46,5.15,7.45,-7.43,-7.60,-9.05,-2.27,-2.28,-2.29
247.93,5.19,7.46,5.18,7.45,-7.47,-7.57,-9.04,-2.28,-2.29,-2.27
250.41,5.21,7.46,5.22,7.47,-7.50,-7.54,-9.02,-2.29,-2.28,-2.25
252.92,5.24,7.46,5.29,7.51,-7.53,-7.51,-8.98,-2.29,-2.24,-2.22
255.45,5.40,7.59,5.36,7.56,-7.55,-7.48,-8.93,-2.15,-2.19,-2.19
258.00,5.44,7.62,5.43,7.60,-7.57,-7.44,-8.86,-2.13,-2.15,-2.18
260.58,5.44,7.60,5.46,7.62,-7.58,-7.41,-8.78,-2.14,-2.12,-2.16
263.19,5.45,7.59,5.45,7.59,-7.58,-7.37,-8.69,-2.13,-2.13,-2.13
265.82,5.44,7.56,5.45,7.56,-7.57,-7.33,-8.58,-2.13,-2.12,-2.12
268.48,5.44,7.53,5.45,7.54,-7.54,-7.29,-8.46,-2.10,-2.09,-2.09
271.16,5.44,7.51,5.44,7.50,-7.49,-7.25,-8.33,-2.05,-2.06,-2.06
273.87,5.43,7.48,5.42,7.46,-7.44,-7.20,-8.19,-2.01,-2.03,-2.05
276.61,5.35,7.37,5.37,7.40,-7.39,-7.16,-8.04,-2.03,-2.01,-2.02
279.38,5.34,7.34,5.32,7.32,-7.33,-7.11,-7.89,-1.99,-2.01,-1.99
282.17,5.27,7.25,5.28,7.25,-7.29,-7.06,-7.73,-2.02,-2.01,-1.98
284.99,5.25,7.19,5.26,7.21,-7.24,-7.01,-7.56,-1.99,-1.98,-1.94
287.84,5.26,7.18,5.26,7.17,-7.20,-6.96,-7.39,-1.94,-1.94,-1.91
290.72,5.27,7.15,5.28,7.15,-7.15,-6.91,-7.22,-1.88,-1.88,-1.88
293.63,5.28,7.13,5.28,7.13,-7.10,-6.86,-7.05,-1.82,-1.82,-1.85
296.57,5.29,7.10,5.28,7.10,-7.05,-6.80,-6.87,-1.76,-1.77,-1.81
299.53,5.24,7.04,5.24,7.03,-7.00,-6.75,-6.69,-1.76,-1.76,-1.79
302.53,5.20,6.97,5.18,6.94,-6.94,-6.69,-6.51,-1.74,-1.76,-1.77
305.55,5.09,6.82,5.12,6.85,-6.88,-6.63,-6.34,-1.78,-1.76,-1.73
308.61,5.05,6.76,5.07,6.78,-6.80,-6.58,-6.16,-1.75,-1.73,-1.71
311.69,5.05,6.74,5.03,6.71,-6.73,-6.52,-5.98,-1.68,-1.70,-1.69
314.81,5.01,6.67,4.99,6.65,-6.66,-6.45,-5.81,-1.64,-1.67,-1.65
317.96,4.91,6.56,4.95,6.59,-6.58,-6.39,-5.64,-1.67,-1.64,-1.65
321.14,4.87,6.50,4.89,6.51,-6.51,-6.33,-5.47,-1.64,-1.63,-1.63
324.35,4.87,6.49,4.82,6.44,-6.44,-6.26,-5.30,-1.57,-1.62,-1.62
327.59,4.74,6.34,4.77,6.37,-6.36,-6.20,-5.13,-1.62,-1.59,-1.60
330.87,4.68,6.28,4.70,6.29,-6.28,-6.13,-4.97,-1.60,-1.58,-1.59
334.18,4.64,6.23,4.61,6.19,-6.19,-6.06,-4.81,-1.55,-1.58,-1.58
337.52,4.52,6.10,4.54,6.11,-6.09,-5.99,-4.66,-1.57,-1.56,-1.58
340.90,4.44,6.00,4.44,6.00,-5.99,-5.92,-4.50,-1.55,-1.56,-1.56
344.30,4.34,5.89,4.33,5.88,-5.89,-5.85,-4.35,-1.55,-1.56,-1.55
347.75,4.22,5.76,4.24,5.78,-5.79,-5.77,-4.20,-1.57,-1.55,-1.54
351.23,4.15,5.68,4.15,5.68,-5.69,-5.69,-4.05,-1.54,-1.55,-1.53
354.74,4.07,5.60,4.05,5.58,-5.60,-5.62,-3.91,-1.52,-1.54,-1.53
358.28,3.95,5.48,3.97,5.49,-5.50,-5.54,-3.77,-1.55,-1.53,-1.52
361.87,3.86,5.39,3.88,5.40,-5.40,-5.46,-3.63,-1.54,-1.52,-1.52
365.49,3.81,5.33,3.79,5.31,-5.30,-5.37,-3.50,-1.49,-1.51,-1.52
369.14,3.70,5.22,3.70,5.22,-5.20,-5.29,-3.37,-1.49,-1.50,-1.52
372.83,3.58,5.10,3.59,5.11,-5.08,-5.20,-3.24,-1.50,-1.49,-1.52
376.56,3.46,4.98,3.47,4.98,-4.97,-5.11,-3.11,-1.51,-1.50,-1.52
380.33,3.36,4.86,3.35,4.86,-4.85,-5.02,-2.99,-1.49,-1.50,-1.50
384.13,3.22,4.73,3.21,4.72,-4.74,-4.93,-2.87,-1.51,-1.52,-1.51
387.97,3.07,4.58,3.08,4.59,-4.63,-4.83,-2.75,-1.56,-1.55,-1.51
391.85,2.94,4.45,2.96,4.47,-4.52,-4.74,-2.63,-1.58,-1.56,-1.51
395.77,2.87,4.38,2.87,4.37,-4.41,-4.64,-2.52,-1.54,-1.55,-1.50
399.73,2.79,4.30,2.78,4.29,-4.29,-4.54,-2.41,-1.50,-1.51,-1.50
403.72,2.68,4.20,2.70,4.20,-4.17,-4.43,-2.30,-1.48,-1.47,-1.51
407.76,2.58,4.10,2.57,4.09,-4.02,-4.32,-2.19,-1.44,-1.45,-1.52
411.84,2.42,3.93,2.41,3.92,-3.86,-4.21,-2.09,-1.44,-1.45,-1.51
415.96,2.21,3.73,2.21,3.72,-3.68,-4.10,-1.99,-1.46,-1.47,-1.52
420.12,1.96,3.48,1.98,3.49,-3.48,-3.99,-1.89,-1.52,-1.50,-1.52
424.32,1.75,3.26,1.75,3.26,-3.27,-3.87,-1.79,-1.52,-1.53,-1.51
428.56,1.53,3.04,1.53,3.04,-3.07,-3.75,-1.70,-1.54,-1.54,-1.51
432.85,1.34,2.83,1.35,2.84,-2.88,-3.63,-1.61,-1.54,-1.53,-1.49
437.18,1.20,2.67,1.20,2.67,-2.71,-3.50,-1.52,-1.51,-1.51,-1.47
441.55,1.09,2.52,1.10,2.53,-2.57,-3.37,-1.43,-1.48,-1.48,-1.43
445.96,1.03,2.43,1.04,2.44,-2.46,-3.24,-1.35,-1.43,-1.42,-1.40
450.42,1.00,2.37,1.01,2.37,-2.38,-3.10,-1.27,-1.37,-1.37,-1.37
454.93,1.01,2.32,1.00,2.32,-2.31,-2.96,-1.19,-1.30,-1.31,-1.31
459.48,0.99,2.26,1.00,2.27,-2.26,-2.82,-1.12,-1.27,-1.26,-1.27
464.07,1.00,2.21,0.99,2.21,-2.21,-2.67,-1.05,-1.21,-1.22,-1.21
468.71,0.98,2.14,0.99,2.16,-2.15,-2.52,-0.98,-1.17,-1.16,-1.16
473.40,0.98,2.10,0.99,2.11,-2.08,-2.37,-0.91,-1.09,-1.08,-1.11
478.13,0.98,2.05,0.96,2.03,-1.99,-2.22,-0.85,-1.00,-1.02,-1.06
482.91,0.92,1.95,0.91,1.93,-1.89,-2.06,-0.79,-0.96,-0.98,-1.02
487.74,0.80,1.78,0.82,1.79,-1.78,-1.89,-0.73,-0.97,-0.96,-0.97
492.62,0.70,1.64,0.69,1.62,-1.65,-1.72,-0.68,-0.95,-0.97,-0.93
497.55,0.56,1.47,0.57,1.47,-1.52,-1.55,-0.63,-0.96,-0.96,-0.90
502.52,0.44,1.32,0.47,1.35,-1.39,-1.38,-0.58,-0.94,-0.91,-0.87
