frequency,raw
20.00,2.60
20.20,2.63
20.40,2.65
20.61,2.69
20.81,2.72
21.02,2.75
21.23,2.78
21.44,2.81
21.66,2.84
21.87,2.86
22.09,2.89
22.31,2.92
22.54,2.95
22.76,2.98
22.99,3.01
23.22,3.03
23.45,3.07
23.69,3.10
23.92,3.12
24.16,3.15
24.40,3.16
24.65,3.19
24.89,3.21
25.14,3.23
25.39,3.25
25.65,3.27
25.91,3.29
26.16,3.32
26.43,3.34
26.69,3.36
26.96,3.38
27.23,3.40
27.50,3.42
27.77,3.44
28.05,3.46
28.33,3.48
28.62,3.50
28.90,3.50
29.19,3.52
29.48,3.53
29.78,3.55
30.08,3.57
30.38,3.57
30.68,3.59
30.99,3.61
31.30,3.61
31.61,3.62
31.93,3.62
32.24,3.61
32.57,3.62
32.89,3.62
33.22,3.63
33.55,3.63
33.89,3.63
34.23,3.62
34.57,3.62
34.92,3.62
35.27,3.61
35.62,3.61
35.97,3.60
36.33,3.60
36.70,3.58
37.06,3.58
37.43,3.57
37.81,3.57
38.19,3.56
38.57,3.55
38.95,3.55
39.34,3.54
39.74,3.53
40.14,3.53
40.54,3.52
40.94,3.52
41.35,3.52
41.76,3.51
42.18,3.50
42.60,3.50
43.03,3.49
43.46,3.49
43.90,3.48
44.33,3.48
44.78,3.46
45.23,3.46
45.68,3.45
46.13,3.44
46.60,3.43
47.06,3.42
47.53,3.41
48.01,3.39
48.49,3.37
48.97,3.36
49.46,3.34
49.96,3.31
50.46,3.30
50.96,3.29
51.47,3.27
51.99,3.25
52.51,3.23
53.03,3.21
53.56,3.20
54.10,3.18
54.64,3.15
55.18,3.13
55.74,3.11
56.29,3.08
56.86,3.06
57.42,3.04
58.00,3.02
58.58,2.98
59.16,2.97
59.76,2.94
60.35,2.92
60.96,2.90
61.57,2.88
62.18,2.87
62.80,2.85
63.43,2.83
64.07,2.81
64.71,2.79
65.35,2.77
66.01,2.76
66.67,2.75
67.33,2.74
68.01,2.72
68.69,2.72
69.37,2.71
70.07,2.70
70.77,2.69
71.48,2.68
72.19,2.68
72.91,2.67
73.64,2.66
74.38,2.66
75.12,2.66
75.87,2.66
76.63,2.65
77.40,2.65
78.17,2.65
78.95,2.66
79.74,2.66
80.54,2.67
81.35,2.68
82.16,2.69
82.98,2.69
83.81,2.71
84.65,2.70
85.50,2.72
86.35,2.72
87.22,2.72
88.09,2.73
88.97,2.74
89.86,2.74
90.76,2.75
91.66,2.75
92.58,2.75
93.51,2.76
94.44,2.77
95.39,2.77
96.34,2.77
97.30,2.77
98.28,2.79
99.26,2.79
100.25,2.80
101.25,2.81
102.27,2.81
103.29,2.82
104.32,2.82
105.37,2.83
106.42,2.83
107.48,2.84
108.56,2.85
109.64,2.86
110.74,2.86
111.85,2.87
112.97,2.87
114.10,2.87
115.24,2.88
116.39,2.88
117.55,2.88
118.73,2.88
119.92,2.89
121.12,2.87
122.33,2.87
123.55,2.87
124.79,2.86
126.03,2.86
127.29,2.85
128.57,2.85
129.85,2.84
131.15,2.82
132.46,2.82
133.79,2.81
135.12,2.79
136.48,2.78
137.84,2.75
139.22,2.74
140.61,2.73
142.02,2.72
143.44,2.69
144.87,2.68
146.32,2.66
147.78,2.63
149.26,2.62
150.75,2.59
152.26,2.56
153.78,2.55
155.32,2.52
156.88,2.49
158.44,2.46
160.03,2.43
161.63,2.40
163.24,2.38
164.88,2.35
166.53,2.31
168.19,2.28
169.87,2.24
171.57,2.21
173.29,2.17
175.02,2.15
176.77,2.11
178.54,2.08
180.32,2.05
182.13,2.03
183.95,2.00
185.79,1.99
187.65,1.97
189.52,1.95
191.42,1.95
193.33,1.94
195.27,1.94
197.22,1.94
199.19,1.93
201.18,1.94
203.19,1.93
205.23,1.92
207.28,1.92
209.35,1.90
211.44,1.89
213.56,1.87
215.69,1.85
217.85,1.82
220.03,1.80
222.23,1.79
224.45,1.76
226.70,1.72
228.96,1.70
231.25,1.67
233.57,1.64
235.90,1.60
238.26,1.58
240.64,1.54
243.05,1.53
245.48,1.49
247.93,1.46
250.41,1.44
252.92,1.42
255.45,1.39
258.00,1.37
260.58,1.37
263.19,1.35
265.82,1.35
268.48,1.34
271.16,1.34
273.87,1.34
276.61,1.35
279.38,1.37
282.17,1.38
284.99,1.40
287.84,1.40
290.72,1.44
293.63,1.46
296.57,1.47
299.53,1.48
302.53,1.49
305.55,1.49
308.61,1.50
311.69,1.49
314.81,1.49
317.96,1.46
321.14,1.44
324.35,1.41
327.59,1.39
330.87,1.35
334.18,1.33
337.52,1.29
340.90,1.26
344.30,1.23
347.75,1.19
351.23,1.17
354.74,1.14
358.28,1.06
361.87,1.00
365.49,0.94
369.14,0.88
372.83,0.84
376.56,0.79
380.33,0.73
384.13,0.69
387.97,0.64
391.85,0.59
395.77,0.56
399.73,0.52
403.72,0.48
407.76,0.43
411.84,0.39
415.96,0.36
420.12,0.32
424.32,0.28
428.56,0.25
432.85,0.22
437.18,0.18
441.55,0.16
445.96,0.11
450.42,0.09
454.93,0.06
459.48,0.04
464.07,0.01
468.71,-0.02
473.40,-0.04
478.13,-0.07
482.91,-0.11
487.74,-0.14
492.62,-0.17
497.55,-0.20
502.52,-0.24
507.55,-0.28
512.62,-0.31
517.75,-0.35
522.93,-0.38
528.16,-0.42
533.44,-0.45
538.77,-0.49
544.16,-0.53
549.60,-0.56
555.10,-0.59
560.65,-0.62
566.25,-0.65
571.92,-0.67
577.64,-0.70
583.41,-0.73
589.25,-0.74
595.14,-0.78
601.09,-0.80
607.10,-0.82
613.17,-0.85
619.30,-0.86
625.50,-0.88
631.75,-0.91
638.07,-0.92
644.45,-0.93
650.89,-0.94
657.40,-0.95
663.98,-0.96
670.62,-0.95
677.32,-0.96
684.10,-0.96
690.94,-0.95
697.85,-0.95
704.83,-0.95
711.87,-0.95
718.99,-0.94
726.18,-0.94
733.44,-0.93
740.78,-0.93
748.19,-0.92
755.67,-0.90
763.23,-0.89
770.86,-0.88
778.57,-0.87
786.35,-0.85
794.22,-0.83
802.16,-0.81
810.18,-0.80
818.28,-0.76
826.46,-0.74
834.73,-0.71
843.08,-0.67
851.51,-0.64
860.02,-0.61
868.62,-0.56
877.31,-0.53
886.08,-0.49
894.94,-0.45
903.89,-0.41
912.93,-0.37
922.06,-0.33
931.28,-0.30
940.59,-0.24
950.00,-0.21
959.50,-0.17
969.09,-0.13
978.78,-0.09
988.57,-0.05
998.46,-0.01
1008.44,0.03
1018.53,0.07
1028.71,0.11
1039.00,0.16
1049.39,0.20
1059.88,0.25
1070.48,0.29
1081.19,0.33
1092.00,0.39
1102.92,0.45
1113.95,0.51
1125.09,0.57
1136.34,0.64
1147.70,0.71
1159.18,0.78
1170.77,0.85
1182.48,0.92
1194.30,1.00
1206.25,1.07
1218.31,1.14
1230.49,1.20
1242.80,1.26
1255.22,1.34
1267.78,1.41
1280.45,1.48
1293.26,1.55
1306.19,1.64
1319.25,1.72
1332.45,1.80
1345.77,1.89
1359.23,1.99
1372.82,2.09
1386.55,2.19
1400.41,2.31
1414.42,2.41
1428.56,2.53
1442.85,2.65
1457.28,2.76
1471.85,2.89
1486.57,3.01
1501.43,3.13
1516.45,3.25
1531.61,3.35
1546.93,3.47
1562.40,3.58
1578.02,3.68
1593.80,3.80
1609.74,3.90
1625.84,4.01
1642.10,4.11
1658.52,4.20
1675.10,4.31
1691.85,4.42
1708.77,4.53
1725.86,4.64
1743.12,4.74
1760.55,4.86
1778.15,4.97
1795.94,5.07
1813.90,5.19
1832.03,5.29
1850.36,5.40
1868.86,5.51
1887.55,5.60
1906.42,5.70
1925.49,5.80
1944.74,5.89
1964.19,5.97
1983.83,6.05
2003.67,6.13
2023.71,6.21
2043.94,6.30
2064.38,6.36
2085.03,6.44
2105.88,6.51
2126.94,6.59
2148.20,6.67
2169.69,6.74
2191.38,6.82
2213.30,6.90
2235.43,6.97
2257.78,7.06
2280.36,7.14
2303.17,7.22
2326.20,7.30
2349.46,7.36
2372.95,7.44
2396.68,7.52
2420.65,7.59
2444.86,7.67
2469.31,7.73
2494.00,7.81
2518.94,7.88
2544.13,7.96
2569.57,8.02
2595.27,8.08
2621.22,8.14
2647.43,8.18
2673.90,8.21
2700.64,8.22
2727.65,8.24
2754.93,8.25
2782.48,8.24
2810.30,8.22
2838.40,8.20
2866.79,8.19
2895.46,8.16
2924.41,8.13
2953.65,8.11
2983.19,8.07
3013.02,8.04
3043.15,8.03
3073.58,8.01
3104.32,7.99
3135.36,7.97
3166.72,7.94
3198.38,7.92
3230.37,7.88
3262.67,7.82
3295.30,7.72
3328.25,7.61
3361.53,7.47
3395.15,7.31
3429.10,7.12
3463.39,6.93
3498.03,6.70
3533.01,6.46
3568.34,6.22
3604.02,5.95
3640.06,5.67
3676.46,5.38
3713.22,5.08
3750.36,4.77
3787.86,4.47
3825.74,4.18
3864.00,3.96
3902.64,3.77
3941.66,3.61
3981.08,3.50
4020.89,3.37
4061.10,3.24
4101.71,3.05
4142.73,2.81
4184.15,2.52
4226.00,2.12
4268.26,1.68
4310.94,1.22
4354.05,0.76
4397.59,0.34
4441.56,-0.04
4485.98,-0.31
4530.84,-0.52
4576.15,-0.67
4621.91,-0.75
4668.13,-0.80
4714.81,-0.82
4761.96,-0.84
4809.58,-0.86
4857.67,-0.88
4906.25,-0.93
4955.31,-0.94
5004.87,-0.93
5054.91,-0.89
5105.46,-0.78
5156.52,-0.59
5208.08,-0.35
5260.16,0.00
5312.77,0.44
5365.89,0.94
5419.55,1.49
5473.75,2.10
5528.49,2.71
5583.77,3.31
5639.61,3.88
5696.00,4.40
5752.96,4.84
5810.49,5.17
5868.60,5.39
5927.28,5.51
5986.56,5.51
6046.42,5.38
6106.89,5.19
6167.96,4.90
6229.64,4.54
6291.93,4.17
6354.85,3.77
6418.40,3.38
6482.58,3.02
6547.41,2.67
6612.88,2.39
6679.01,2.16
6745.80,1.98
6813.26,1.88
6881.39,1.82
6950.21,1.81
7019.71,1.86
7089.91,1.98
7160.81,2.15
7232.41,2.40
7304.74,2.75
7377.79,3.12
7451.56,3.58
7526.08,4.08
7601.34,4.59
7677.35,5.07
7754.13,5.53
7831.67,5.87
7909.98,6.11
7989.08,6.17
8068.98,6.06
8149.67,5.77
8231.16,5.31
8313.47,4.67
8396.61,3.92
8480.57,3.07
8565.38,2.10
8651.03,1.14
8737.54,0.18
8824.92,-0.74
8913.17,-1.57
9002.30,-2.25
9092.32,-2.76
9183.25,-3.07
9275.08,-3.16
9367.83,-2.97
9461.51,-2.52
9556.12,-1.93
9651.68,-1.17
9748.20,-0.39
9845.68,0.39
9944.14,1.10
10043.58,1.63
10144.02,2.05
10245.46,2.30
10347.91,2.28
10451.39,2.09
10555.91,1.71
10661.46,1.06
10768.08,0.12
10875.76,-1.04
10984.52,-2.33
11094.36,-3.62
11205.31,-4.85
11317.36,-5.93
11430.53,-6.59
11544.84,-6.95
11660.29,-6.98
11776.89,-6.55
11894.66,-5.94
12013.60,-5.15
12133.74,-4.35
12255.08,-3.83
12377.63,-3.53
12501.41,-3.66
12626.42,-4.31
12752.68,-5.32
12880.21,-6.75
13009.01,-8.37
13139.10,-9.98
13270.49,-11.53
13403.20,-12.60
13537.23,-13.34
13672.60,-13.74
13809.33,-13.50
13947.42,-12.98
14086.90,-12.26
14227.77,-11.34
14370.04,-10.57
14513.74,-9.91
14658.88,-9.47
14805.47,-9.24
14953.52,-9.02
15103.06,-8.75
15254.09,-8.44
15406.63,-8.03
15560.70,-7.55
15716.30,-7.12
15873.47,-6.66
16032.20,-6.20
16192.52,-5.76
16354.45,-5.27
16517.99,-4.78
16683.17,-4.26
16850.01,-3.80
17018.51,-3.39
17188.69,-3.05
17360.58,-2.89
17534.18,-2.95
17709.53,-3.26
17886.62,-4.04
18065.49,-4.87
18246.14,-5.90
18428.60,-7.12
18612.89,-8.37
18799.02,-9.64
18987.01,-10.77
19176.88,-11.84
19368.65,-12.83
19562.33,-13.65
19757.96,-14.25
19955.54,-14.71
