frequency,raw,error,smoothed,error_smoothed,equalization,parametric_eq,fixed_band_eq,equalized_raw,equalized_smoothed,target
20.00,-22.13,-19.66,-22.13,-19.66,6.00,4.59,2.89,-16.13,-16.13,-2.47
20.20,-22.00,-19.54,-22.00,-19.54,6.00,4.65,2.97,-16.00,-16.00,-2.46
20.40,-21.86,-19.41,-21.87,-19.42,6.00,4.72,3.05,-15.86,-15.87,-2.45
20.61,-21.73,-19.29,-21.73,-19.29,6.00,4.78,3.14,-15.73,-15.73,-2.45
20.81,-21.60,-19.16,-21.60,-19.16,6.00,4.84,3.23,-15.60,-15.60,-2.44
21.02,-21.46,-19.02,-21.46,-19.02,6.00,4.91,3.32,-15.46,-15.46,-2.44
21.23,-21.31,-18.88,-21.31,-18.88,6.00,4.97,3.42,-15.31,-15.31,-2.43
21.44,-21.15,-18.72,-21.16,-18.73,6.00,5.03,3.52,-15.15,-15.16,-2.43
21.66,-21.00,-18.58,-21.00,-18.57,6.00,5.09,3.62,-15.00,-15.00,-2.43
21.87,-20.84,-18.41,-20.84,-18.42,6.00,5.15,3.72,-14.84,-14.84,-2.43
22.09,-20.69,-18.27,-20.69,-18.27,6.00,5.22,3.83,-14.69,-14.69,-2.42
22.31,-20.53,-18.11,-20.53,-18.11,6.00,5.28,3.94,-14.53,-14.53,-2.42
22.54,-20.38,-17.96,-20.38,-17.95,6.00,5.34,4.05,-14.38,-14.38,-2.43
22.76,-20.23,-17.79,-20.23,-17.80,6.00,5.40,4.16,-14.23,-14.23,-2.44
22.99,-20.08,-17.65,-20.09,-17.65,6.00,5.46,4.28,-14.08,-14.09,-2.44
23.22,-19.95,-17.52,-19.95,-17.51,6.00,5.52,4.40,-13.95,-13.95,-2.44
23.45,-19.83,-17.38,-19.83,-17.38,6.00,5.57,4.53,-13.83,-13.83,-2.45
23.69,-19.70,-17.26,-19.70,-17.26,6.00,5.63,4.65,-13.70,-13.70,-2.45
23.92,-19.58,-17.13,-19.58,-17.13,6.00,5.69,4.78,-13.58,-13.58,-2.45
24.16,-19.45,-17.00,-19.45,-17.00,6.00,5.74,4.91,-13.45,-13.45,-2.45
24.40,-19.32,-16.87,-19.33,-16.88,6.00,5.79,5.04,-13.32,-13.33,-2.45
24.65,-19.19,-16.75,-19.20,-16.75,6.00,5.84,5.18,-13.19,-13.20,-2.45
24.89,-19.07,-16.62,-19.06,-16.61,6.00,5.90,5.32,-13.07,-13.06,-2.45
25.14,-18.90,-16.45,-18.90,-16.45,6.00,5.94,5.46,-12.90,-12.90,-2.45
25.39,-18.72,-16.26,-18.72,-16.27,6.00,5.99,5.60,-12.72,-12.72,-2.46
25.65,-18.53,-16.08,-18.53,-16.08,6.00,6.04,5.74,-12.53,-12.53,-2.46
25.91,-18.35,-15.90,-18.36,-15.90,6.00,6.08,5.88,-12.35,-12.36,-2.46
26.16,-18.19,-15.73,-18.20,-15.74,6.00,6.12,6.02,-12.19,-12.20,-2.46
26.43,-18.05,-15.60,-18.05,-15.59,6.00,6.17,6.16,-12.05,-12.05,-2.46
26.69,-17.91,-15.45,-17.91,-15.45,6.00,6.20,6.30,-11.91,-11.91,-2.46
26.96,-17.77,-15.32,-17.78,-15.32,6.00,6.24,6.44,-11.77,-11.78,-2.46
27.23,-17.64,-15.19,-17.64,-15.19,6.00,6.27,6.57,-11.64,-11.64,-2.46
27.50,-17.51,-15.06,-17.51,-15.05,6.00,6.31,6.71,-11.51,-11.51,-2.46
27.77,-17.38,-14.92,-17.38,-14.92,6.00,6.34,6.83,-11.38,-11.38,-2.46
28.05,-17.25,-14.79,-17.25,-14.79,6.00,6.36,6.96,-11.25,-11.25,-2.46
28.33,-17.12,-14.66,-17.13,-14.67,6.00,6.39,7.08,-11.12,-11.13,-2.46
28.62,-17.00,-14.55,-17.00,-14.55,6.00,6.41,7.19,-11.00,-11.00,-2.46
28.90,-16.87,-14.42,-16.86,-14.41,6.00,6.43,7.29,-10.87,-10.86,-2.45
29.19,-16.69,-14.24,-16.68,-14.24,6.00,6.45,7.38,-10.69,-10.68,-2.45
29.48,-16.48,-14.03,-16.48,-14.04,6.00,6.47,7.47,-10.48,-10.48,-2.45
29.78,-16.28,-13.85,-16.29,-13.85,6.00,6.48,7.54,-10.28,-10.29,-2.44
30.08,-16.09,-13.66,-16.11,-13.67,6.00,6.49,7.61,-10.09,-10.11,-2.44
30.38,-15.96,-13.53,-15.96,-13.52,6.00,6.50,7.66,-9.96,-9.96,-2.44
30.68,-15.83,-13.40,-15.83,-13.39,6.00,6.50,7.70,-9.83,-9.83,-2.44
30.99,-15.70,-13.27,-15.70,-13.27,6.00,6.51,7.73,-9.70,-9.70,-2.44
31.30,-15.57,-13.14,-15.57,-13.14,6.00,6.51,7.74,-9.57,-9.57,-2.44
31.61,-15.44,-13.01,-15.44,-13.01,6.00,6.50,7.74,-9.44,-9.44,-2.44
31.93,-15.31,-12.88,-15.31,-12.87,6.00,6.50,7.73,-9.31,-9.31,-2.44
32.24,-15.16,-12.71,-15.16,-12.72,6.00,6.49,7.71,-9.16,-9.16,-2.45
32.57,-15.00,-12.56,-15.00,-12.56,6.00,6.48,7.67,-9.00,-9.00,-2.45
32.89,-14.84,-12.39,-14.84,-12.39,6.00,6.47,7.63,-8.84,-8.84,-2.45
33.22,-14.68,-12.22,-14.68,-12.23,6.00,6.46,7.57,-8.68,-8.68,-2.46
33.55,-14.53,-12.07,-14.53,-12.07,6.00,6.45,7.51,-8.53,-8.53,-2.46
33.89,-14.37,-11.91,-14.38,-11.91,6.00,6.43,7.43,-8.37,-8.38,-2.47
34.23,-14.24,-11.78,-14.24,-11.78,6.00,6.41,7.35,-8.24,-8.24,-2.47
34.57,-14.11,-11.64,-14.11,-11.65,6.00,6.39,7.26,-8.11,-8.11,-2.47
34.92,-13.99,-11.53,-13.98,-11.52,6.00,6.37,7.16,-7.99,-7.98,-2.47
35.27,-13.83,-11.37,-13.83,-11.37,6.00,6.35,7.06,-7.83,-7.83,-2.47
35.62,-13.67,-11.21,-13.67,-11.21,6.00,6.32,6.95,-7.67,-7.67,-2.47
35.97,-13.50,-11.03,-13.50,-11.04,6.00,6.30,6.84,-7.50,-7.50,-2.47
36.33,-13.34,-10.87,-13.34,-10.87,6.00,6.27,6.73,-7.34,-7.34,-2.47
36.70,-13.17,-10.71,-13.17,-10.71,6.00,6.25,6.61,-7.17,-7.17,-2.47
37.06,-13.01,-10.54,-13.01,-10.54,6.00,6.22,6.50,-7.01,-7.01,-2.47
37.43,-12.85,-10.38,-12.85,-10.39,6.00,6.19,6.38,-6.85,-6.85,-2.47
37.81,-12.69,-10.24,-12.69,-10.23,6.00,6.17,6.27,-6.69,-6.69,-2.46
38.19,-12.53,-10.08,-12.52,-10.07,6.00,6.14,6.15,-6.53,-6.52,-2.46
38.57,-12.36,-9.91,-12.36,-9.91,6.00,6.11,6.04,-6.36,-6.36,-2.46
38.95,-12.19,-9.74,-12.21,-9.76,6.00,6.09,5.92,-6.19,-6.21,-2.45
39.34,-12.07,-9.62,-12.07,-9.62,6.00,6.07,5.81,-6.07,-6.07,-2.45
39.74,-11.95,-9.51,-11.95,-9.50,6.00,6.04,5.70,-5.95,-5.95,-2.45
40.14,-11.83,-9.39,-11.83,-9.39,6.00,6.02,5.60,-5.83,-5.83,-2.45
40.54,-11.70,-9.26,-11.71,-9.26,6.00,6.00,5.50,-5.70,-5.71,-2.45
40.94,-11.58,-9.13,-11.57,-9.12,6.00,5.99,5.40,-5.58,-5.57,-2.45
41.35,-11.41,-8.96,-11.41,-8.96,6.00,5.97,5.30,-5.41,-5.41,-2.45
41.76,-11.25,-8.79,-11.25,-8.80,6.00,5.96,5.20,-5.25,-5.25,-2.46
42.18,-11.09,-8.63,-11.10,-8.64,6.00,5.95,5.11,-5.09,-5.10,-2.46
42.60,-10.94,-8.48,-10.94,-8.48,6.00,5.95,5.03,-4.94,-4.94,-2.46
43.03,-10.79,-8.33,-10.78,-8.32,6.00,5.94,4.94,-4.79,-4.78,-2.46
43.46,-10.61,-8.15,-10.61,-8.15,6.00,5.94,4.86,-4.61,-4.61,-2.46
43.90,-10.44,-7.98,-10.45,-7.99,6.00,5.95,4.79,-4.44,-4.45,-2.47
44.33,-10.29,-7.82,-10.29,-7.83,6.00,5.96,4.71,-4.29,-4.29,-2.47
44.78,-10.14,-7.68,-10.14,-7.67,6.00,5.97,4.64,-4.14,-4.14,-2.47
45.23,-9.99,-7.53,-9.98,-7.52,6.00,5.98,4.58,-3.99,-3.98,-2.47
45.68,-9.82,-7.36,-9.83,-7.36,6.00,5.99,4.52,-3.82,-3.83,-2.47
46.13,-9.66,-7.20,-9.68,-7.22,6.00,6.01,4.46,-3.66,-3.68,-2.46
46.60,-9.54,-7.09,-9.54,-7.08,6.00,6.03,4.40,-3.54,-3.54,-2.46
47.06,-9.41,-6.96,-9.40,-6.96,6.00,6.05,4.35,-3.41,-3.40,-2.45
47.53,-9.27,-6.83,-9.27,-6.83,6.00,6.06,4.30,-3.27,-3.27,-2.44
48.01,-9.13,-6.71,-9.14,-6.71,6.01,6.08,4.26,-3.13,-3.13,-2.43
48.49,-9.01,-6.60,-9.01,-6.59,6.02,6.09,4.21,-3.00,-2.99,-2.42
48.97,-8.89,-6.48,-8.89,-6.49,6.03,6.09,4.17,-2.87,-2.87,-2.41
49.46,-8.77,-6.37,-8.77,-6.38,6.03,6.08,4.14,-2.74,-2.75,-2.40
49.96,-8.65,-6.28,-8.64,-6.26,6.02,6.07,4.10,-2.64,-2.63,-2.38
50.46,-8.51,-6.15,-8.51,-6.15,5.98,6.04,4.07,-2.53,-2.53,-2.37
50.96,-8.37,-6.02,-8.39,-6.04,5.93,6.00,4.04,-2.44,-2.46,-2.35
51.47,-8.25,-5.91,-8.25,-5.92,5.85,5.95,4.01,-2.40,-2.41,-2.34
51.99,-8.13,-5.81,-8.11,-5.79,5.75,5.87,3.98,-2.38,-2.36,-2.33
52.51,-7.95,-5.64,-7.95,-5.63,5.63,5.79,3.96,-2.32,-2.32,-2.32
53.03,-7.76,-5.45,-7.78,-5.47,5.50,5.69,3.94,-2.27,-2.28,-2.31
53.56,-7.60,-5.30,-7.60,-5.31,5.35,5.57,3.91,-2.25,-2.25,-2.30
54.10,-7.44,-5.17,-7.44,-5.16,5.20,5.44,3.89,-2.24,-2.24,-2.28
54.64,-7.30,-5.04,-7.30,-5.04,5.06,5.31,3.87,-2.25,-2.25,-2.27
55.18,-7.17,-4.91,-7.18,-4.92,4.92,5.16,3.85,-2.25,-2.26,-2.26
55.74,-7.06,-4.81,-7.06,-4.80,4.80,5.00,3.83,-2.27,-2.26,-2.26
56.29,-6.94,-4.69,-6.93,-4.69,4.68,4.84,3.81,-2.26,-2.26,-2.25
56.86,-6.80,-4.57,-6.80,-4.56,4.56,4.68,3.79,-2.24,-2.24,-2.24
57.42,-6.67,-4.43,-6.67,-4.44,4.44,4.51,3.76,-2.23,-2.23,-2.24
58.00,-6.54,-4.31,-6.55,-4.32,4.32,4.35,3.74,-2.22,-2.23,-2.24
58.58,-6.44,-4.21,-6.43,-4.20,4.19,4.18,3.71,-2.25,-2.24,-2.24
59.16,-6.32,-4.08,-6.31,-4.07,4.06,4.02,3.69,-2.26,-2.25,-2.24
59.76,-6.16,-3.93,-6.18,-3.94,3.92,3.86,3.66,-2.24,-2.26,-2.24
60.35,-6.04,-3.79,-6.05,-3.80,3.79,3.70,3.63,-2.25,-2.25,-2.25
60.96,-5.93,-3.68,-5.91,-3.65,3.66,3.55,3.59,-2.27,-2.24,-2.26
61.57,-5.77,-3.51,-5.78,-3.51,3.53,3.40,3.56,-2.24,-2.25,-2.27
62.18,-5.64,-3.35,-5.67,-3.38,3.40,3.26,3.52,-2.24,-2.27,-2.29
62.80,-5.58,-3.27,-5.57,-3.27,3.27,3.12,3.48,-2.31,-2.31,-2.31
63.43,-5.50,-3.16,-5.49,-3.16,3.14,2.99,3.44,-2.36,-2.36,-2.34
64.07,-5.41,-3.06,-5.40,-3.04,3.01,2.86,3.39,-2.40,-2.39,-2.36
64.71,-5.27,-2.89,-5.28,-2.89,2.88,2.73,3.34,-2.39,-2.39,-2.39
65.35,-5.14,-2.73,-5.15,-2.74,2.76,2.61,3.29,-2.38,-2.39,-2.41
66.01,-5.03,-2.61,-5.04,-2.61,2.63,2.49,3.24,-2.40,-2.40,-2.43
66.67,-4.94,-2.50,-4.94,-2.49,2.50,2.38,3.18,-2.44,-2.44,-2.45
67.33,-4.84,-2.38,-4.84,-2.38,2.37,2.27,3.12,-2.47,-2.47,-2.46
68.01,-4.74,-2.27,-4.73,-2.26,2.23,2.17,3.06,-2.51,-2.50,-2.48
68.69,-4.61,-2.13,-4.61,-2.13,2.10,2.07,3.00,-2.51,-2.51,-2.49
69.37,-4.48,-1.98,-4.49,-1.99,1.98,1.97,2.94,-2.50,-2.50,-2.50
70.07,-4.36,-1.86,-4.36,-1.85,1.87,1.88,2.87,-2.49,-2.49,-2.51
70.77,-4.24,-1.73,-4.24,-1.73,1.76,1.79,2.80,-2.49,-2.49,-2.52
71.48,-4.14,-1.63,-4.15,-1.63,1.65,1.70,2.74,-2.49,-2.49,-2.52
72.19,-4.06,-1.53,-4.06,-1.54,1.56,1.61,2.67,-2.51,-2.51,-2.53
72.91,-4.00,-1.46,-4.00,-1.46,1.47,1.53,2.60,-2.54,-2.53,-2.54
73.64,-3.94,-1.39,-3.95,-1.40,1.38,1.45,2.53,-2.56,-2.56,-2.55
74.38,-3.88,-1.32,-3.87,-1.31,1.30,1.37,2.46,-2.58,-2.57,-2.56
75.12,-3.82,-1.25,-3.80,-1.23,1.22,1.30,2.39,-2.60,-2.58,-2.57
75.87,-3.67,-1.08,-3.73,-1.15,1.13,1.23,2.32,-2.54,-2.60,-2.59
76.63,-3.68,-1.08,-3.64,-1.04,1.03,1.16,2.25,-2.65,-2.61,-2.60
77.40,-3.59,-0.98,-3.56,-0.94,0.93,1.09,2.17,-2.66,-2.63,-2.62
78.17,-3.42,-0.79,-3.48,-0.85,0.83,1.02,2.11,-2.60,-2.65,-2.63
78.95,-3.40,-0.75,-3.37,-0.73,0.73,0.96,2.04,-2.68,-2.65,-2.65
79.74,-3.29,-0.63,-3.29,-0.63,0.64,0.90,1.97,-2.65,-2.65,-2.66
80.54,-3.21,-0.53,-3.21,-0.53,0.56,0.84,1.90,-2.65,-2.65,-2.68
81.35,-3.14,-0.46,-3.14,-0.46,0.50,0.78,1.83,-2.64,-2.64,-2.69
82.16,-3.08,-0.38,-3.12,-0.42,0.46,0.73,1.76,-2.62,-2.66,-2.70
82.98,-3.15,-0.44,-3.12,-0.42,0.43,0.67,1.70,-2.72,-2.69,-2.71
83.81,-3.15,-0.43,-3.14,-0.43,0.41,0.62,1.63,-2.74,-2.73,-2.72
84.65,-3.15,-0.43,-3.16,-0.44,0.40,0.57,1.57,-2.75,-2.76,-2.72
85.50,-3.15,-0.42,-3.15,-0.43,0.39,0.52,1.51,-2.76,-2.77,-2.73
86.35,-3.15,-0.41,-3.16,-0.42,0.38,0.47,1.44,-2.77,-2.77,-2.74
87.22,-3.15,-0.40,-3.15,-0.40,0.39,0.43,1.38,-2.76,-2.75,-2.75
88.09,-3.14,-0.38,-3.11,-0.35,0.40,0.38,1.32,-2.74,-2.71,-2.76
88.97,-3.07,-0.32,-3.09,-0.33,0.41,0.34,1.26,-2.67,-2.68,-2.76
89.86,-3.06,-0.29,-3.12,-0.35,0.41,0.30,1.20,-2.65,-2.71,-2.77
90.76,-3.20,-0.42,-3.19,-0.41,0.41,0.26,1.15,-2.79,-2.78,-2.78
91.66,-3.28,-0.50,-3.25,-0.47,0.40,0.22,1.09,-2.88,-2.85,-2.78
92.58,-3.28,-0.50,-3.25,-0.47,0.39,0.19,1.03,-2.89,-2.86,-2.78
93.51,-3.17,-0.39,-3.18,-0.40,0.36,0.15,0.98,-2.81,-2.82,-2.79
94.44,-3.06,-0.27,-3.11,-0.32,0.33,0.12,0.92,-2.74,-2.78,-2.79
95.39,-3.04,-0.25,-3.04,-0.25,0.27,0.09,0.87,-2.77,-2.77,-2.79
96.34,-3.01,-0.22,-2.97,-0.18,0.20,0.06,0.82,-2.81,-2.77,-2.79
97.30,-2.89,-0.10,-2.90,-0.11,0.11,0.03,0.77,-2.78,-2.78,-2.79
98.28,-2.78,0.01,-2.83,-0.04,0.03,0.00,0.72,-2.75,-2.80,-2.80
99.26,-2.78,0.02,-2.75,0.05,-0.04,-0.02,0.67,-2.82,-2.78,-2.80
100.25,-2.73,0.07,-2.69,0.11,-0.10,-0.05,0.62,-2.83,-2.78,-2.80
101.25,-2.57,0.23,-2.64,0.16,-0.15,-0.07,0.57,-2.72,-2.79,-2.80
102.27,-2.60,0.21,-2.59,0.22,-0.21,-0.09,0.52,-2.81,-2.79,-2.81
103.29,-2.58,0.24,-2.56,0.25,-0.25,-0.11,0.48,-2.84,-2.82,-2.82
104.32,-2.55,0.28,-2.56,0.27,-0.30,-0.13,0.43,-2.85,-2.85,-2.83
105.37,-2.52,0.30,-2.52,0.31,-0.33,-0.15,0.39,-2.85,-2.84,-2.83
106.42,-2.48,0.36,-2.48,0.36,-0.35,-0.16,0.34,-2.83,-2.83,-2.84
107.48,-2.45,0.40,-2.46,0.39,-0.37,-0.17,0.30,-2.82,-2.83,-2.85
108.56,-2.45,0.41,-2.45,0.40,-0.38,-0.19,0.26,-2.83,-2.83,-2.86
109.64,-2.47,0.40,-2.47,0.39,-0.38,-0.20,0.22,-2.85,-2.85,-2.87
110.74,-2.49,0.38,-2.49,0.38,-0.38,-0.20,0.18,-2.87,-2.87,-2.87
111.85,-2.51,0.36,-2.51,0.36,-0.38,-0.21,0.15,-2.89,-2.88,-2.87
112.97,-2.51,0.36,-2.52,0.35,-0.37,-0.22,0.11,-2.88,-2.88,-2.87
114.10,-2.52,0.35,-2.52,0.35,-0.36,-0.22,0.08,-2.88,-2.88,-2.87
115.24,-2.52,0.34,-2.52,0.34,-0.35,-0.22,0.05,-2.87,-2.87,-2.86
116.39,-2.52,0.34,-2.52,0.33,-0.33,-0.22,0.02,-2.85,-2.85,-2.86
117.55,-2.52,0.32,-2.52,0.32,-0.31,-0.22,-0.01,-2.83,-2.83,-2.84
118.73,-2.51,0.32,-2.51,0.32,-0.29,-0.22,-0.04,-2.80,-2.80,-2.83
119.92,-2.51,0.30,-2.51,0.29,-0.27,-0.21,-0.06,-2.78,-2.78,-2.81
121.12,-2.51,0.28,-2.54,0.25,-0.24,-0.21,-0.08,-2.76,-2.78,-2.79
122.33,-2.59,0.18,-2.57,0.20,-0.22,-0.20,-0.10,-2.81,-2.79,-2.77
123.55,-2.61,0.14,-2.59,0.16,-0.19,-0.19,-0.12,-2.81,-2.79,-2.75
124.79,-2.58,0.15,-2.59,0.13,-0.17,-0.18,-0.14,-2.75,-2.76,-2.73
126.03,-2.57,0.14,-2.57,0.14,-0.13,-0.16,-0.16,-2.70,-2.70,-2.71
127.29,-2.56,0.13,-2.56,0.13,-0.10,-0.15,-0.17,-2.66,-2.66,-2.69
128.57,-2.56,0.11,-2.57,0.09,-0.05,-0.13,-0.18,-2.61,-2.63,-2.67
129.85,-2.61,0.03,-2.61,0.04,-0.01,-0.11,-0.19,-2.62,-2.62,-2.65
131.15,-2.66,-0.03,-2.66,-0.03,0.04,-0.09,-0.20,-2.63,-2.62,-2.63
132.46,-2.72,-0.10,-2.71,-0.09,0.08,-0.06,-0.20,-2.64,-2.63,-2.62
133.79,-2.74,-0.14,-2.76,-0.16,0.13,-0.04,-0.21,-2.61,-2.63,-2.60
135.12,-2.80,-0.22,-2.81,-0.23,0.18,-0.01,-0.21,-2.62,-2.63,-2.59
136.48,-2.86,-0.29,-2.83,-0.26,0.24,0.02,-0.21,-2.62,-2.59,-2.57
137.84,-2.84,-0.28,-2.82,-0.26,0.29,0.05,-0.21,-2.55,-2.52,-2.56
139.22,-2.79,-0.24,-2.84,-0.29,0.34,0.08,-0.21,-2.45,-2.50,-2.55
140.61,-2.82,-0.29,-2.88,-0.35,0.38,0.12,-0.21,-2.44,-2.50,-2.54
142.02,-3.03,-0.50,-2.95,-0.42,0.42,0.16,-0.21,-2.61,-2.53,-2.53
143.44,-3.02,-0.49,-3.02,-0.49,0.45,0.19,-0.20,-2.58,-2.57,-2.53
144.87,-3.02,-0.49,-3.04,-0.52,0.46,0.23,-0.19,-2.56,-2.58,-2.53
146.32,-3.02,-0.49,-3.02,-0.50,0.48,0.28,-0.19,-2.54,-2.54,-2.53
147.78,-3.03,-0.49,-3.03,-0.49,0.49,0.32,-0.18,-2.54,-2.54,-2.54
149.26,-3.03,-0.48,-3.03,-0.48,0.48,0.37,-0.17,-2.55,-2.55,-2.55
150.75,-3.03,-0.46,-3.02,-0.45,0.46,0.41,-0.16,-2.57,-2.56,-2.57
152.26,-3.03,-0.43,-3.03,-0.43,0.44,0.46,-0.16,-2.60,-2.59,-2.60
153.78,-3.02,-0.40,-3.07,-0.44,0.42,0.51,-0.15,-2.60,-2.65,-2.63
155.32,-3.14,-0.47,-3.12,-0.45,0.44,0.56,-0.14,-2.71,-2.68,-2.67
156.88,-3.20,-0.50,-3.15,-0.45,0.48,0.61,-0.13,-2.72,-2.67,-2.70
158.44,-3.18,-0.44,-3.20,-0.46,0.55,0.66,-0.12,-2.63,-2.65,-2.74
160.03,-3.23,-0.46,-3.27,-0.51,0.63,0.72,-0.10,-2.60,-2.64,-2.77
161.63,-3.42,-0.63,-3.45,-0.66,0.71,0.77,-0.09,-2.71,-2.74,-2.79
163.24,-3.67,-0.86,-3.68,-0.86,0.80,0.82,-0.08,-2.87,-2.88,-2.82
164.88,-3.94,-1.11,-3.85,-1.02,0.88,0.87,-0.07,-3.06,-2.96,-2.83
166.53,-3.91,-1.08,-3.92,-1.08,0.97,0.92,-0.06,-2.94,-2.95,-2.84
168.19,-3.87,-1.03,-3.90,-1.07,1.05,0.97,-0.05,-2.83,-2.86,-2.84
169.87,-3.85,-1.02,-3.86,-1.03,1.10,1.02,-0.04,-2.75,-2.76,-2.83
171.57,-3.86,-1.04,-3.88,-1.07,1.13,1.07,-0.02,-2.73,-2.75,-2.82
173.29,-3.91,-1.11,-3.91,-1.11,1.14,1.11,-0.01,-2.78,-2.77,-2.80
175.02,-3.97,-1.20,-3.94,-1.17,1.13,1.15,-0.00,-2.84,-2.81,-2.77
176.77,-3.89,-1.15,-3.92,-1.18,1.13,1.19,0.01,-2.76,-2.79,-2.74
178.54,-3.90,-1.19,-3.85,-1.15,1.13,1.22,0.02,-2.77,-2.72,-2.71
180.32,-3.74,-1.07,-3.78,-1.11,1.14,1.25,0.03,-2.60,-2.64,-2.67
182.13,-3.72,-1.08,-3.75,-1.11,1.14,1.28,0.05,-2.58,-2.60,-2.64
183.95,-3.75,-1.15,-3.73,-1.12,1.14,1.30,0.06,-2.61,-2.58,-2.60
185.79,-3.74,-1.16,-3.74,-1.16,1.15,1.32,0.07,-2.59,-2.59,-2.58
187.65,-3.73,-1.17,-3.73,-1.18,1.17,1.33,0.08,-2.56,-2.56,-2.56
189.52,-3.71,-1.17,-3.70,-1.16,1.19,1.33,0.09,-2.52,-2.51,-2.54
191.42,-3.70,-1.17,-3.71,-1.19,1.22,1.33,0.10,-2.48,-2.48,-2.53
193.33,-3.70,-1.20,-3.75,-1.24,1.25,1.33,0.11,-2.45,-2.50,-2.51
195.27,-3.83,-1.33,-3.80,-1.30,1.28,1.32,0.12,-2.56,-2.52,-2.50
197.22,-3.86,-1.36,-3.82,-1.33,1.28,1.31,0.13,-2.58,-2.53,-2.50
199.19,-3.78,-1.29,-3.81,-1.32,1.27,1.28,0.15,-2.51,-2.53,-2.49
201.18,-3.74,-1.25,-3.77,-1.28,1.26,1.26,0.16,-2.49,-2.51,-2.49
203.19,-3.73,-1.24,-3.74,-1.25,1.23,1.23,0.16,-2.50,-2.50,-2.49
205.23,-3.73,-1.24,-3.70,-1.21,1.21,1.19,0.17,-2.53,-2.49,-2.49
207.28,-3.65,-1.16,-3.62,-1.13,1.17,1.15,0.18,-2.48,-2.45,-2.49
209.35,-3.51,-1.02,-3.56,-1.07,1.13,1.11,0.19,-2.38,-2.43,-2.49
211.44,-3.49,-1.00,-3.54,-1.05,1.09,1.06,0.20,-2.40,-2.45,-2.50
213.56,-3.61,-1.11,-3.58,-1.08,1.07,1.01,0.21,-2.54,-2.51,-2.50
215.69,-3.64,-1.13,-3.59,-1.09,1.06,0.96,0.21,-2.59,-2.54,-2.51
217.85,-3.58,-1.07,-3.56,-1.05,1.04,0.90,0.22,-2.54,-2.52,-2.51
220.03,-3.44,-0.92,-3.51,-0.99,1.02,0.85,0.22,-2.42,-2.49,-2.52
222.23,-3.47,-0.95,-3.50,-0.98,0.99,0.79,0.23,-2.48,-2.50,-2.52
224.45,-3.54,-1.02,-3.50,-0.99,0.95,0.73,0.23,-2.59,-2.55,-2.52
226.70,-3.52,-1.00,-3.49,-0.98,0.90,0.66,0.23,-2.62,-2.59,-2.52
228.96,-3.39,-0.87,-3.36,-0.85,0.84,0.60,0.23,-2.55,-2.52,-2.52
231.25,-3.25,-0.74,-3.28,-0.77,0.79,0.53,0.23,-2.46,-2.49,-2.51
233.57,-3.08,-0.58,-3.23,-0.72,0.75,0.47,0.23,-2.33,-2.48,-2.51
235.90,-3.34,-0.84,-3.15,-0.66,0.71,0.40,0.22,-2.63,-2.44,-2.50
238.26,-3.11,-0.62,-3.08,-0.59,0.66,0.34,0.22,-2.46,-2.42,-2.49
240.64,-2.89,-0.43,-3.05,-0.58,0.59,0.27,0.21,-2.30,-2.46,-2.47
243.05,-3.00,-0.54,-3.03,-0.57,0.54,0.21,0.20,-2.47,-2.49,-2.46
245.48,-3.15,-0.70,-3.05,-0.60,0.49,0.14,0.19,-2.66,-2.56,-2.45
247.93,-3.04,-0.60,-2.94,-0.51,0.44,0.08,0.18,-2.60,-2.50,-2.44
250.41,-2.72,-0.29,-2.76,-0.33,0.38,0.01,0.16,-2.34,-2.38,-2.43
252.92,-2.45,-0.04,-2.64,-0.22,0.32,-0.05,0.15,-2.13,-2.32,-2.42
255.45,-2.65,-0.23,-2.60,-0.18,0.25,-0.12,0.13,-2.40,-2.35,-2.42
258.00,-2.73,-0.31,-2.60,-0.18,0.17,-0.18,0.11,-2.56,-2.43,-2.42
260.58,-2.52,-0.10,-2.56,-0.14,0.07,-0.24,0.09,-2.45,-2.49,-2.42
263.19,-2.38,0.03,-2.45,-0.03,-0.02,-0.31,0.07,-2.40,-2.47,-2.42
265.82,-2.33,0.09,-2.33,0.09,-0.11,-0.37,0.04,-2.44,-2.43,-2.42
268.48,-2.31,0.11,-2.23,0.19,-0.19,-0.43,0.02,-2.50,-2.42,-2.42
271.16,-2.07,0.35,-2.10,0.32,-0.28,-0.49,-0.01,-2.35,-2.38,-2.42
273.87,-1.94,0.48,-1.97,0.45,-0.39,-0.55,-0.04,-2.33,-2.35,-2.42
276.61,-1.84,0.58,-1.87,0.55,-0.51,-0.61,-0.07,-2.35,-2.38,-2.42
279.38,-1.83,0.59,-1.82,0.59,-0.63,-0.67,-0.11,-2.46,-2.45,-2.42
282.17,-1.78,0.63,-1.72,0.69,-0.75,-0.74,-0.14,-2.53,-2.47,-2.41
284.99,-1.58,0.82,-1.59,0.82,-0.87,-0.80,-0.18,-2.45,-2.46,-2.40
287.84,-1.36,1.04,-1.41,0.98,-0.99,-0.86,-0.21,-2.35,-2.40,-2.40
290.72,-1.25,1.14,-1.23,1.15,-1.11,-0.92,-0.25,-2.36,-2.34,-2.39
293.63,-1.10,1.28,-1.07,1.30,-1.23,-0.98,-0.29,-2.34,-2.31,-2.38
296.57,-0.94,1.42,-0.96,1.41,-1.37,-1.04,-0.33,-2.31,-2.33,-2.37
299.53,-0.82,1.55,-0.88,1.48,-1.50,-1.11,-0.37,-2.33,-2.38,-2.37
302.53,-0.84,1.52,-0.80,1.56,-1.63,-1.17,-0.42,-2.47,-2.42,-2.36
305.55,-0.73,1.63,-0.67,1.69,-1.73,-1.23,-0.46,-2.46,-2.40,-2.36
308.61,-0.49,1.86,-0.50,1.85,-1.84,-1.30,-0.51,-2.33,-2.34,-2.36
311.69,-0.28,2.08,-0.37,1.98,-1.95,-1.36,-0.55,-2.23,-2.32,-2.36
314.81,-0.27,2.10,-0.28,2.08,-2.05,-1.43,-0.60,-2.32,-2.33,-2.37
317.96,-0.34,2.03,-0.21,2.15,-2.15,-1.50,-0.65,-2.49,-2.36,-2.37
321.14,-0.11,2.27,-0.19,2.18,-2.24,-1.56,-0.69,-2.35,-2.43,-2.38
324.35,-0.04,2.34,-0.07,2.31,-2.31,-1.63,-0.74,-2.35,-2.38,-2.38
327.59,-0.08,2.31,0.05,2.44,-2.38,-1.70,-0.79,-2.46,-2.33,-2.39
330.87,0.20,2.60,0.05,2.45,-2.43,-1.77,-0.85,-2.24,-2.38,-2.40
334.18,0.08,2.49,0.07,2.47,-2.49,-1.85,-0.90,-2.41,-2.42,-2.41
337.52,-0.03,2.39,0.11,2.52,-2.54,-1.92,-0.95,-2.57,-2.43,-2.42
340.90,0.17,2.58,0.12,2.54,-2.58,-1.99,-1.01,-2.41,-2.46,-2.42
344.30,0.24,2.67,0.20,2.63,-2.63,-2.07,-1.06,-2.39,-2.43,-2.43
347.75,0.24,2.69,0.26,2.70,-2.67,-2.14,-1.12,-2.43,-2.41,-2.45
351.23,0.25,2.71,0.25,2.71,-2.71,-2.22,-1.18,-2.46,-2.45,-2.46
354.74,0.25,2.72,0.25,2.72,-2.74,-2.30,-1.23,-2.49,-2.49,-2.47
358.28,0.25,2.73,0.24,2.72,-2.75,-2.38,-1.29,-2.50,-2.51,-2.48
361.87,0.26,2.75,0.28,2.77,-2.74,-2.45,-1.35,-2.48,-2.46,-2.49
365.49,0.26,2.77,0.31,2.81,-2.72,-2.53,-1.41,-2.46,-2.41,-2.51
369.14,0.39,2.91,0.27,2.78,-2.69,-2.61,-1.48,-2.30,-2.42,-2.52
372.83,0.18,2.70,0.17,2.70,-2.67,-2.68,-1.54,-2.49,-2.50,-2.53
376.56,-0.03,2.51,0.05,2.58,-2.67,-2.76,-1.60,-2.70,-2.63,-2.54
380.33,-0.03,2.52,-0.03,2.52,-2.68,-2.83,-1.67,-2.72,-2.72,-2.55
384.13,-0.01,2.55,0.01,2.57,-2.70,-2.91,-1.73,-2.71,-2.68,-2.56
387.97,0.16,2.73,0.12,2.68,-2.70,-2.97,-1.80,-2.54,-2.58,-2.57
391.85,0.21,2.79,0.22,2.80,-2.70,-3.04,-1.86,-2.49,-2.48,-2.58
395.77,0.28,2.87,0.29,2.87,-2.71,-3.10,-1.93,-2.43,-2.42,-2.59
399.73,0.32,2.92,0.26,2.86,-2.73,-3.16,-2.00,-2.41,-2.47,-2.60
403.72,0.18,2.78,0.17,2.78,-2.76,-3.22,-2.06,-2.58,-2.59,-2.61
407.76,0.05,2.68,0.06,2.69,-2.79,-3.26,-2.13,-2.74,-2.72,-2.63
411.84,-0.03,2.61,0.02,2.66,-2.81,-3.31,-2.20,-2.84,-2.79,-2.64
415.96,0.06,2.71,0.07,2.71,-2.83,-3.34,-2.26,-2.77,-2.76,-2.65
