frequency,raw,error,smoothed,error_smoothed,equalization,parametric_eq,fixed_band_eq,equalized_raw,equalized_smoothed,target
20.00,-0.67,-5.40,-0.68,-5.40,5.36,5.08,1.99,4.69,4.69,4.73
20.20,-0.62,-5.39,-0.62,-5.38,5.37,5.07,2.05,4.75,4.75,4.77
20.40,-0.58,-5.38,-0.57,-5.37,5.38,5.06,2.11,4.80,4.81,4.80
20.61,-0.53,-5.36,-0.53,-5.35,5.38,5.05,2.17,4.85,4.85,4.82
20.81,-0.48,-5.34,-0.48,-5.34,5.38,5.04,2.23,4.90,4.89,4.86
21.02,-0.44,-5.33,-0.45,-5.34,5.37,5.03,2.30,4.93,4.92,4.88
21.23,-0.44,-5.35,-0.44,-5.34,5.37,5.03,2.37,4.93,4.93,4.90
21.44,-0.44,-5.36,-0.44,-5.36,5.36,5.02,2.44,4.92,4.92,4.91
21.66,-0.44,-5.37,-0.45,-5.37,5.35,5.01,2.51,4.91,4.91,4.92
21.87,-0.44,-5.37,-0.44,-5.37,5.34,5.00,2.58,4.90,4.90,4.93
22.09,-0.42,-5.36,-0.41,-5.36,5.32,4.99,2.65,4.90,4.91,4.94
22.31,-0.37,-5.32,-0.37,-5.32,5.30,4.98,2.73,4.93,4.93,4.95
22.54,-0.32,-5.27,-0.32,-5.27,5.28,4.97,2.81,4.96,4.96,4.95
22.76,-0.27,-5.22,-0.27,-5.22,5.26,4.96,2.89,4.98,4.99,4.95
22.99,-0.22,-5.17,-0.24,-5.19,5.23,4.95,2.98,5.01,5.00,4.95
23.22,-0.22,-5.18,-0.22,-5.18,5.21,4.94,3.06,4.99,4.99,4.96
23.45,-0.22,-5.18,-0.22,-5.18,5.19,4.93,3.15,4.97,4.97,4.96
23.69,-0.22,-5.19,-0.22,-5.19,5.17,4.92,3.24,4.94,4.94,4.97
23.92,-0.22,-5.19,-0.21,-5.18,5.14,4.91,3.33,4.92,4.93,4.97
24.16,-0.18,-5.16,-0.18,-5.16,5.12,4.90,3.42,4.93,4.93,4.98
24.40,-0.13,-5.11,-0.13,-5.10,5.09,4.89,3.51,4.96,4.96,4.98
24.65,-0.07,-5.04,-0.07,-5.04,5.06,4.88,3.61,4.98,4.99,4.97
24.89,-0.01,-4.98,-0.02,-4.99,5.02,4.87,3.70,5.01,5.00,4.97
25.14,0.01,-4.96,0.00,-4.96,4.99,4.86,3.80,5.00,5.00,4.97
25.39,0.01,-4.95,0.01,-4.95,4.97,4.85,3.90,4.97,4.98,4.96
25.65,0.01,-4.95,0.01,-4.94,4.95,4.84,4.00,4.96,4.96,4.96
25.91,0.01,-4.94,0.01,-4.94,4.94,4.83,4.09,4.95,4.95,4.94
26.16,0.01,-4.93,0.01,-4.93,4.93,4.82,4.19,4.94,4.94,4.93
26.43,0.01,-4.92,0.00,-4.93,4.91,4.81,4.29,4.92,4.92,4.93
26.69,0.01,-4.91,0.00,-4.92,4.89,4.80,4.39,4.90,4.89,4.92
26.96,0.01,-4.91,0.02,-4.90,4.86,4.78,4.48,4.87,4.88,4.92
27.23,0.06,-4.85,0.06,-4.85,4.82,4.77,4.57,4.88,4.88,4.91
27.50,0.13,-4.78,0.13,-4.78,4.78,4.76,4.66,4.91,4.90,4.91
27.77,0.19,-4.70,0.19,-4.71,4.74,4.75,4.75,4.93,4.92,4.89
28.05,0.24,-4.65,0.23,-4.66,4.70,4.74,4.84,4.94,4.93,4.89
28.33,0.24,-4.64,0.24,-4.63,4.67,4.73,4.91,4.91,4.91,4.88
28.62,0.24,-4.63,0.24,-4.63,4.65,4.71,4.99,4.89,4.89,4.87
28.90,0.24,-4.63,0.24,-4.62,4.63,4.70,5.06,4.87,4.87,4.86
29.19,0.24,-4.62,0.24,-4.62,4.61,4.69,5.13,4.85,4.85,4.85
29.48,0.24,-4.62,0.23,-4.62,4.59,4.68,5.18,4.83,4.82,4.86
29.78,0.24,-4.61,0.24,-4.61,4.56,4.66,5.24,4.80,4.81,4.85
30.08,0.26,-4.58,0.27,-4.57,4.53,4.65,5.28,4.79,4.80,4.84
30.38,0.33,-4.50,0.33,-4.50,4.49,4.64,5.32,4.82,4.82,4.83
30.68,0.40,-4.43,0.40,-4.43,4.45,4.62,5.35,4.85,4.85,4.83
30.99,0.47,-4.35,0.45,-4.37,4.41,4.61,5.38,4.88,4.86,4.82
31.30,0.47,-4.35,0.47,-4.35,4.37,4.60,5.39,4.84,4.85,4.82
31.61,0.47,-4.35,0.48,-4.33,4.35,4.58,5.40,4.81,4.82,4.81
31.93,0.47,-4.33,0.47,-4.33,4.33,4.57,5.40,4.80,4.80,4.80
32.24,0.47,-4.31,0.47,-4.32,4.32,4.56,5.39,4.79,4.79,4.78
32.57,0.47,-4.31,0.47,-4.31,4.32,4.54,5.37,4.79,4.79,4.78
32.89,0.47,-4.32,0.47,-4.31,4.32,4.53,5.35,4.78,4.78,4.79
33.22,0.47,-4.31,0.46,-4.31,4.30,4.52,5.32,4.77,4.76,4.78
33.55,0.47,-4.31,0.46,-4.31,4.27,4.50,5.29,4.74,4.74,4.77
33.89,0.47,-4.29,0.48,-4.28,4.24,4.49,5.24,4.71,4.72,4.76
34.23,0.52,-4.24,0.53,-4.23,4.20,4.47,5.20,4.72,4.73,4.76
34.57,0.60,-4.15,0.60,-4.15,4.16,4.46,5.15,4.76,4.76,4.75
34.92,0.68,-4.07,0.66,-4.09,4.12,4.44,5.09,4.80,4.78,4.75
35.27,0.70,-4.05,0.70,-4.04,4.09,4.43,5.03,4.79,4.78,4.74
35.62,0.70,-4.03,0.70,-4.03,4.05,4.41,4.97,4.75,4.76,4.73
35.97,0.70,-4.03,0.70,-4.03,4.03,4.40,4.91,4.73,4.73,4.73
36.33,0.70,-4.03,0.70,-4.02,4.01,4.38,4.84,4.71,4.71,4.73
36.70,0.70,-4.02,0.70,-4.02,4.00,4.37,4.78,4.70,4.70,4.71
37.06,0.70,-4.00,0.70,-4.01,4.00,4.35,4.71,4.70,4.70,4.70
37.43,0.70,-4.00,0.70,-4.00,3.99,4.34,4.64,4.69,4.69,4.70
37.81,0.70,-3.99,0.70,-3.99,3.99,4.32,4.57,4.69,4.69,4.69
38.19,0.70,-3.98,0.70,-3.98,3.98,4.30,4.50,4.68,4.68,4.67
38.57,0.70,-3.97,0.70,-3.97,3.97,4.29,4.44,4.67,4.67,4.67
38.95,0.70,-3.96,0.70,-3.96,3.96,4.27,4.37,4.66,4.66,4.66
39.34,0.70,-3.95,0.70,-3.95,3.95,4.25,4.31,4.65,4.65,4.64
39.74,0.70,-3.93,0.70,-3.94,3.94,4.24,4.24,4.64,4.64,4.63
40.14,0.70,-3.94,0.70,-3.93,3.93,4.22,4.18,4.63,4.63,4.64
40.54,0.70,-3.93,0.70,-3.93,3.93,4.20,4.12,4.63,4.63,4.62
40.94,0.70,-3.92,0.70,-3.92,3.92,4.19,4.07,4.62,4.62,4.62
41.35,0.70,-3.91,0.70,-3.91,3.91,4.17,4.01,4.61,4.61,4.61
41.76,0.70,-3.90,0.70,-3.90,3.90,4.15,3.96,4.60,4.60,4.60
42.18,0.70,-3.89,0.70,-3.89,3.89,4.13,3.91,4.58,4.58,4.59
42.60,0.70,-3.87,0.70,-3.88,3.87,4.11,3.87,4.57,4.57,4.57
43.03,0.70,-3.86,0.70,-3.86,3.84,4.10,3.82,4.54,4.54,4.56
43.46,0.70,-3.84,0.70,-3.83,3.82,4.08,3.78,4.52,4.52,4.53
43.90,0.70,-3.80,0.70,-3.80,3.80,4.06,3.74,4.50,4.50,4.50
44.33,0.70,-3.78,0.70,-3.77,3.78,4.04,3.71,4.48,4.48,4.47
44.78,0.70,-3.75,0.69,-3.75,3.78,4.02,3.68,4.47,4.47,4.45
45.23,0.68,-3.75,0.68,-3.74,3.78,4.00,3.65,4.46,4.46,4.42
45.68,0.65,-3.75,0.65,-3.75,3.79,3.98,3.62,4.44,4.44,4.40
46.13,0.61,-3.77,0.59,-3.79,3.80,3.96,3.60,4.41,4.39,4.38
46.60,0.53,-3.85,0.53,-3.84,3.82,3.94,3.58,4.35,4.35,4.38
47.06,0.47,-3.89,0.49,-3.87,3.84,3.92,3.56,4.30,4.32,4.36
47.53,0.47,-3.88,0.46,-3.89,3.85,3.90,3.54,4.32,4.32,4.34
48.01,0.47,-3.88,0.46,-3.88,3.87,3.88,3.53,4.34,4.33,4.35
48.49,0.47,-3.87,0.47,-3.87,3.88,3.86,3.52,4.35,4.35,4.34
48.97,0.47,-3.85,0.47,-3.86,3.88,3.84,3.51,4.35,4.35,4.32
49.46,0.47,-3.85,0.47,-3.85,3.87,3.81,3.51,4.34,4.34,4.32
49.96,0.47,-3.85,0.46,-3.86,3.85,3.79,3.50,4.32,4.32,4.32
50.46,0.47,-3.86,0.47,-3.86,3.82,3.77,3.50,4.29,4.29,4.33
50.96,0.47,-3.86,0.48,-3.85,3.80,3.75,3.50,4.27,4.28,4.33
51.47,0.52,-3.81,0.52,-3.81,3.77,3.72,3.50,4.29,4.29,4.32
51.99,0.57,-3.75,0.59,-3.73,3.74,3.70,3.50,4.31,4.33,4.31
52.51,0.64,-3.68,0.64,-3.67,3.72,3.68,3.50,4.35,4.35,4.32
53.03,0.69,-3.61,0.63,-3.67,3.70,3.65,3.51,4.39,4.33,4.30
53.56,0.57,-3.71,0.58,-3.70,3.69,3.63,3.51,4.26,4.28,4.28
54.10,0.47,-3.79,0.52,-3.73,3.71,3.60,3.52,4.18,4.23,4.26
54.64,0.47,-3.76,0.46,-3.76,3.76,3.58,3.52,4.23,4.22,4.23
55.18,0.43,-3.77,0.40,-3.79,3.84,3.55,3.52,4.27,4.25,4.20
55.74,0.30,-3.87,0.28,-3.89,3.96,3.52,3.53,4.26,4.24,4.16
56.29,0.10,-4.05,0.09,-4.05,4.09,3.50,3.53,4.19,4.18,4.14
56.86,-0.15,-4.26,-0.11,-4.22,4.25,3.47,3.53,4.10,4.14,4.11
57.42,-0.32,-4.39,-0.31,-4.39,4.41,3.44,3.53,4.09,4.09,4.07
58.00,-0.46,-4.50,-0.53,-4.56,4.56,3.42,3.52,4.10,4.04,4.04
58.58,-0.72,-4.72,-0.70,-4.71,4.69,3.39,3.52,3.97,3.99,4.00
59.16,-0.90,-4.88,-0.84,-4.82,4.77,3.36,3.51,3.87,3.93,3.98
59.76,-0.90,-4.85,-0.94,-4.88,4.79,3.33,3.50,3.89,3.85,3.95
60.35,-0.90,-4.80,-0.93,-4.84,4.74,3.30,3.48,3.84,3.81,3.90
60.96,-0.90,-4.77,-0.84,-4.70,4.62,3.27,3.47,3.72,3.78,3.87
61.57,-0.67,-4.49,-0.69,-4.51,4.44,3.24,3.44,3.77,3.75,3.81
62.18,-0.44,-4.22,-0.47,-4.25,4.22,3.21,3.42,3.78,3.75,3.78
62.80,-0.22,-3.96,-0.19,-3.92,3.98,3.17,3.39,3.76,3.79,3.74
63.43,0.06,-3.63,0.07,-3.63,3.72,3.14,3.36,3.78,3.79,3.69
64.07,0.35,-3.32,0.29,-3.37,3.46,3.11,3.33,3.81,3.75,3.67
64.71,0.47,-3.16,0.47,-3.16,3.22,3.07,3.29,3.69,3.69,3.63
65.35,0.58,-3.02,0.60,-3.00,3.01,3.04,3.25,3.59,3.60,3.60
66.01,0.70,-2.86,0.71,-2.86,2.82,3.01,3.20,3.51,3.52,3.56
66.67,0.85,-2.70,0.86,-2.68,2.65,2.97,3.16,3.50,3.51,3.54
67.33,1.00,-2.51,0.99,-2.52,2.52,2.93,3.11,3.52,3.51,3.51
68.01,1.15,-2.35,1.11,-2.39,2.40,2.90,3.05,3.55,3.51,3.49
68.69,1.17,-2.30,1.20,-2.27,2.30,2.86,3.00,3.47,3.50,3.47
69.37,1.26,-2.19,1.28,-2.17,2.20,2.82,2.94,3.46,3.48,3.45
70.07,1.38,-2.05,1.33,-2.10,2.10,2.78,2.88,3.48,3.43,3.43
70.77,1.38,-2.04,1.37,-2.05,2.02,2.74,2.82,3.40,3.39,3.42
71.48,1.38,-2.03,1.41,-1.99,1.96,2.70,2.75,3.33,3.37,3.41
72.19,1.43,-1.95,1.47,-1.91,1.90,2.66,2.69,3.33,3.36,3.38
72.91,1.59,-1.77,1.54,-1.82,1.84,2.62,2.62,3.43,3.38,3.36
73.64,1.61,-1.72,1.60,-1.74,1.78,2.58,2.56,3.38,3.37,3.33
74.38,1.61,-1.71,1.61,-1.70,1.71,2.54,2.49,3.32,3.32,3.32
75.12,1.61,-1.68,1.61,-1.68,1.64,2.50,2.42,3.25,3.25,3.29
75.87,1.61,-1.66,1.65,-1.62,1.58,2.45,2.36,3.19,3.22,3.27
76.63,1.72,-1.53,1.71,-1.53,1.52,2.41,2.29,3.24,3.23,3.25
77.40,1.81,-1.42,1.78,-1.45,1.47,2.36,2.22,3.28,3.25,3.23
78.17,1.84,-1.38,1.83,-1.39,1.43,2.32,2.15,3.27,3.27,3.21
78.95,1.84,-1.38,1.85,-1.37,1.40,2.27,2.09,3.24,3.24,3.22
79.74,1.84,-1.37,1.84,-1.36,1.37,2.22,2.02,3.21,3.21,3.21
80.54,1.84,-1.36,1.84,-1.36,1.35,2.18,1.96,3.19,3.19,3.20
81.35,1.84,-1.36,1.84,-1.36,1.35,2.13,1.89,3.19,3.19,3.20
82.16,1.84,-1.36,1.84,-1.36,1.36,2.08,1.83,3.20,3.20,3.20
82.98,1.84,-1.37,1.84,-1.36,1.37,2.03,1.77,3.21,3.21,3.20
83.81,1.84,-1.36,1.84,-1.37,1.37,1.98,1.70,3.21,3.21,3.20
84.65,1.84,-1.37,1.83,-1.38,1.36,1.93,1.64,3.20,3.20,3.21
85.50,1.84,-1.39,1.82,-1.40,1.35,1.88,1.58,3.19,3.17,3.23
86.35,1.84,-1.40,1.86,-1.37,1.33,1.83,1.52,3.17,3.19,3.23
87.22,1.89,-1.36,1.93,-1.32,1.31,1.78,1.47,3.20,3.24,3.25
88.09,2.06,-1.20,2.00,-1.26,1.29,1.73,1.41,3.34,3.29,3.26
88.97,2.06,-1.21,2.05,-1.22,1.27,1.67,1.35,3.32,3.32,3.27
89.86,2.06,-1.23,2.07,-1.21,1.25,1.62,1.30,3.31,3.32,3.29
90.76,2.06,-1.22,2.06,-1.23,1.23,1.57,1.24,3.29,3.29,3.28
91.66,2.06,-1.24,2.06,-1.23,1.22,1.52,1.19,3.28,3.28,3.30
92.58,2.06,-1.23,2.06,-1.24,1.22,1.46,1.14,3.28,3.28,3.29
93.51,2.06,-1.25,2.06,-1.24,1.23,1.41,1.09,3.29,3.29,3.30
94.44,2.06,-1.25,2.06,-1.24,1.24,1.35,1.04,3.30,3.30,3.31
95.39,2.06,-1.24,2.06,-1.24,1.25,1.30,0.99,3.31,3.31,3.30
96.34,2.06,-1.24,2.06,-1.24,1.25,1.24,0.94,3.31,3.31,3.29
97.30,2.06,-1.24,2.06,-1.23,1.25,1.19,0.89,3.31,3.31,3.30
98.28,2.06,-1.23,2.06,-1.23,1.24,1.13,0.85,3.30,3.30,3.29
99.26,2.06,-1.22,2.06,-1.23,1.22,1.08,0.80,3.28,3.28,3.28
100.25,2.06,-1.21,2.05,-1.23,1.19,1.02,0.76,3.25,3.24,3.27
101.25,2.06,-1.21,2.07,-1.20,1.15,0.97,0.72,3.21,3.21,3.26
102.27,2.09,-1.17,2.12,-1.13,1.10,0.91,0.67,3.19,3.22,3.26
103.29,2.21,-1.02,2.19,-1.04,1.05,0.86,0.63,3.26,3.24,3.23
104.32,2.29,-0.92,2.26,-0.95,0.99,0.80,0.59,3.28,3.25,3.21
105.37,2.29,-0.89,2.30,-0.89,0.93,0.75,0.55,3.22,3.22,3.18
106.42,2.29,-0.86,2.30,-0.85,0.87,0.69,0.51,3.16,3.17,3.15
107.48,2.29,-0.82,2.29,-0.82,0.82,0.64,0.47,3.11,3.11,3.10
108.56,2.29,-0.77,2.29,-0.77,0.77,0.59,0.43,3.06,3.06,3.06
109.64,2.29,-0.73,2.29,-0.73,0.73,0.53,0.40,3.02,3.02,3.02
110.74,2.29,-0.68,2.29,-0.68,0.68,0.48,0.36,2.97,2.97,2.97
111.85,2.29,-0.64,2.29,-0.64,0.62,0.42,0.33,2.91,2.91,2.93
112.97,2.29,-0.58,2.28,-0.60,0.55,0.37,0.29,2.84,2.83,2.86
114.10,2.29,-0.54,2.30,-0.52,0.47,0.32,0.26,2.76,2.77,2.83
115.24,2.32,-0.45,2.36,-0.41,0.39,0.27,0.23,2.71,2.75,2.77
116.39,2.45,-0.27,2.43,-0.30,0.31,0.22,0.19,2.76,2.74,2.72
117.55,2.52,-0.16,2.49,-0.19,0.24,0.16,0.16,2.75,2.73,2.68
118.73,2.52,-0.12,2.53,-0.11,0.17,0.11,0.13,2.69,2.70,2.64
119.92,2.52,-0.10,2.53,-0.08,0.11,0.06,0.10,2.63,2.64,2.61
121.12,2.52,-0.06,2.52,-0.06,0.07,0.01,0.08,2.59,2.59,2.58
122.33,2.52,-0.03,2.52,-0.04,0.04,-0.03,0.05,2.56,2.56,2.55
123.55,2.52,-0.02,2.52,-0.01,0.01,-0.08,0.02,2.53,2.53,2.54
124.79,2.52,0.01,2.51,0.00,-0.03,-0.13,-0.00,2.49,2.48,2.51
126.03,2.52,0.03,2.51,0.01,-0.07,-0.18,-0.03,2.45,2.43,2.49
127.29,2.52,0.04,2.54,0.07,-0.12,-0.22,-0.05,2.40,2.42,2.47
128.57,2.57,0.13,2.61,0.16,-0.18,-0.27,-0.08,2.39,2.43,2.44
129.85,2.73,0.31,2.68,0.26,-0.23,-0.31,-0.10,2.50,2.45,2.42
131.15,2.75,0.35,2.74,0.34,-0.29,-0.35,-0.12,2.46,2.45,2.40
132.46,2.75,0.37,2.76,0.39,-0.34,-0.40,-0.14,2.41,2.42,2.37
133.79,2.75,0.39,2.75,0.39,-0.39,-0.44,-0.16,2.36,2.36,2.36
135.12,2.75,0.42,2.75,0.41,-0.43,-0.48,-0.18,2.32,2.32,2.33
136.48,2.75,0.43,2.75,0.43,-0.45,-0.52,-0.20,2.30,2.30,2.32
137.84,2.75,0.46,2.75,0.46,-0.47,-0.56,-0.22,2.28,2.28,2.29
139.22,2.75,0.50,2.75,0.49,-0.49,-0.60,-0.24,2.26,2.26,2.25
140.61,2.75,0.51,2.75,0.51,-0.50,-0.63,-0.26,2.24,2.24,2.23
142.02,2.75,0.52,2.75,0.53,-0.53,-0.67,-0.28,2.22,2.22,2.23
143.44,2.75,0.55,2.75,0.55,-0.55,-0.70,-0.30,2.20,2.20,2.20
144.87,2.75,0.58,2.75,0.58,-0.58,-0.74,-0.32,2.17,2.17,2.17
146.32,2.75,0.61,2.75,0.61,-0.61,-0.77,-0.34,2.14,2.14,2.14
147.78,2.75,0.64,2.75,0.64,-0.65,-0.80,-0.36,2.10,2.10,2.11
149.26,2.75,0.67,2.75,0.68,-0.69,-0.84,-0.38,2.06,2.06,2.07
150.75,2.75,0.73,2.75,0.73,-0.74,-0.87,-0.39,2.01,2.01,2.02
152.26,2.75,0.78,2.75,0.79,-0.80,-0.90,-0.41,1.95,1.95,1.96
153.78,2.75,0.85,2.75,0.85,-0.86,-0.93,-0.43,1.89,1.89,1.90
155.32,2.75,0.91,2.75,0.91,-0.92,-0.95,-0.45,1.83,1.83,1.84
156.88,2.75,0.96,2.75,0.97,-0.96,-0.98,-0.47,1.78,1.78,1.79
158.44,2.75,1.02,2.76,1.04,-1.00,-1.00,-0.49,1.75,1.76,1.72
160.03,2.75,1.09,2.75,1.08,-1.02,-1.03,-0.51,1.73,1.73,1.66
161.63,2.75,1.13,2.70,1.08,-1.03,-1.05,-0.54,1.72,1.67,1.62
163.24,2.61,1.04,2.63,1.05,-1.04,-1.08,-0.56,1.57,1.59,1.57
164.88,2.52,0.98,2.56,1.01,-1.04,-1.10,-0.58,1.48,1.51,1.54
166.53,2.52,1.01,2.51,1.00,-1.05,-1.12,-0.60,1.47,1.46,1.51
168.19,2.52,1.03,2.50,1.01,-1.07,-1.14,-0.63,1.45,1.43,1.48
169.87,2.52,1.05,2.52,1.05,-1.09,-1.16,-0.65,1.42,1.42,1.47
171.57,2.52,1.06,2.57,1.11,-1.13,-1.18,-0.68,1.39,1.44,1.46
173.29,2.66,1.20,2.64,1.18,-1.16,-1.19,-0.70,1.49,1.48,1.46
175.02,2.75,1.28,2.71,1.25,-1.20,-1.21,-0.73,1.54,1.51,1.46
176.77,2.75,1.29,2.76,1.30,-1.24,-1.23,-0.76,1.51,1.52,1.46
178.54,2.75,1.29,2.76,1.29,-1.27,-1.24,-0.79,1.48,1.49,1.46
180.32,2.75,1.28,2.75,1.28,-1.29,-1.25,-0.81,1.46,1.46,1.47
182.13,2.75,1.28,2.75,1.28,-1.30,-1.27,-0.84,1.45,1.45,1.47
183.95,2.75,1.28,2.75,1.28,-1.30,-1.28,-0.87,1.45,1.45,1.47
185.79,2.75,1.27,2.75,1.28,-1.30,-1.29,-0.90,1.45,1.45,1.47
187.65,2.75,1.30,2.75,1.30,-1.30,-1.30,-0.94,1.45,1.45,1.45
189.52,2.75,1.31,2.75,1.31,-1.31,-1.31,-0.97,1.44,1.44,1.44
191.42,2.75,1.32,2.75,1.33,-1.32,-1.32,-1.00,1.43,1.43,1.42
193.33,2.75,1.34,2.75,1.33,-1.33,-1.32,-1.03,1.41,1.41,1.41
195.27,2.75,1.35,2.75,1.35,-1.35,-1.33,-1.07,1.40,1.40,1.40
197.22,2.75,1.36,2.75,1.37,-1.37,-1.34,-1.10,1.38,1.38,1.39
199.19,2.75,1.39,2.75,1.38,-1.38,-1.34,-1.13,1.37,1.37,1.36
201.18,2.75,1.40,2.75,1.40,-1.40,-1.35,-1.17,1.35,1.35,1.35
203.19,2.75,1.41,2.75,1.42,-1.42,-1.35,-1.20,1.33,1.33,1.34
205.23,2.75,1.43,2.75,1.43,-1.43,-1.35,-1.23,1.32,1.32,1.32
207.28,2.75,1.44,2.75,1.45,-1.45,-1.36,-1.27,1.30,1.30,1.31
209.35,2.75,1.46,2.75,1.47,-1.46,-1.36,-1.30,1.28,1.28,1.29
211.44,2.75,1.49,2.75,1.48,-1.48,-1.36,-1.33,1.27,1.27,1.26
213.56,2.75,1.50,2.75,1.50,-1.50,-1.36,-1.36,1.25,1.25,1.25
215.69,2.75,1.50,2.75,1.51,-1.51,-1.36,-1.40,1.24,1.24,1.25
217.85,2.75,1.52,2.75,1.52,-1.52,-1.36,-1.43,1.23,1.23,1.23
220.03,2.75,1.53,2.75,1.53,-1.53,-1.35,-1.45,1.22,1.22,1.21
222.23,2.75,1.55,2.75,1.55,-1.54,-1.35,-1.48,1.21,1.21,1.20
224.45,2.75,1.55,2.75,1.55,-1.55,-1.35,-1.51,1.20,1.20,1.20
226.70,2.75,1.56,2.75,1.55,-1.55,-1.34,-1.53,1.19,1.19,1.19
228.96,2.75,1.55,2.75,1.55,-1.56,-1.34,-1.55,1.19,1.19,1.19
231.25,2.75,1.55,2.75,1.56,-1.56,-1.33,-1.57,1.19,1.19,1.20
233.57,2.75,1.56,2.75,1.56,-1.56,-1.33,-1.59,1.19,1.19,1.19
235.90,2.75,1.56,2.75,1.56,-1.56,-1.32,-1.60,1.19,1.19,1.18
238.26,2.75,1.56,2.75,1.56,-1.55,-1.31,-1.61,1.19,1.19,1.19
240.64,2.75,1.56,2.75,1.55,-1.55,-1.30,-1.62,1.20,1.20,1.19
243.05,2.75,1.54,2.75,1.54,-1.54,-1.29,-1.62,1.21,1.21,1.21
245.48,2.75,1.53,2.75,1.53,-1.53,-1.28,-1.62,1.22,1.22,1.22
247.93,2.75,1.51,2.75,1.52,-1.51,-1.27,-1.62,1.23,1.23,1.24
250.41,2.75,1.51,2.75,1.50,-1.50,-1.26,-1.62,1.25,1.25,1.24
252.92,2.75,1.48,2.75,1.48,-1.49,-1.25,-1.61,1.26,1.26,1.27
255.45,2.75,1.46,2.75,1.46,-1.47,-1.24,-1.60,1.27,1.27,1.29
258.00,2.75,1.44,2.75,1.44,-1.46,-1.23,-1.58,1.29,1.29,1.31
260.58,2.75,1.44,2.75,1.43,-1.44,-1.21,-1.56,1.31,1.31,1.31
263.19,2.75,1.41,2.75,1.41,-1.41,-1.20,-1.54,1.33,1.33,1.34
265.82,2.75,1.39,2.76,1.40,-1.38,-1.18,-1.52,1.37,1.38,1.35
268.48,2.75,1.38,2.76,1.38,-1.33,-1.17,-1.49,1.42,1.42,1.37
271.16,2.75,1.35,2.71,1.32,-1.28,-1.15,-1.46,1.47,1.43,1.40
273.87,2.66,1.24,2.65,1.23,-1.23,-1.13,-1.43,1.43,1.42,1.41
276.61,2.54,1.10,2.58,1.14,-1.17,-1.12,-1.39,1.37,1.41,1.44
279.38,2.52,1.06,2.52,1.06,-1.11,-1.10,-1.35,1.41,1.41,1.46
282.17,2.52,1.04,2.51,1.02,-1.06,-1.08,-1.31,1.46,1.45,1.48
284.99,2.52,1.01,2.52,1.01,-1.01,-1.06,-1.27,1.51,1.51,1.51
287.84,2.52,0.98,2.52,0.98,-0.97,-1.04,-1.23,1.55,1.55,1.54
290.72,2.52,0.95,2.52,0.96,-0.94,-1.02,-1.18,1.57,1.57,1.56
293.63,2.52,0.94,2.52,0.93,-0.92,-1.00,-1.14,1.60,1.60,1.58
296.57,2.52,0.90,2.52,0.91,-0.90,-0.98,-1.09,1.61,1.61,1.62
299.53,2.52,0.88,2.52,0.88,-0.89,-0.95,-1.04,1.63,1.63,1.64
302.53,2.52,0.88,2.52,0.86,-0.87,-0.93,-0.99,1.64,1.64,1.64
305.55,2.52,0.84,2.52,0.85,-0.86,-0.91,-0.94,1.66,1.66,1.68
308.61,2.52,0.83,2.52,0.82,-0.83,-0.88,-0.89,1.68,1.68,1.69
311.69,2.52,0.80,2.52,0.80,-0.80,-0.86,-0.84,1.71,1.72,1.72
314.81,2.52,0.78,2.53,0.80,-0.77,-0.83,-0.79,1.75,1.77,1.73
317.96,2.52,0.78,2.51,0.77,-0.73,-0.81,-0.74,1.79,1.78,1.74
321.14,2.51,0.77,2.45,0.71,-0.69,-0.78,-0.69,1.82,1.77,1.74
324.35,2.34,0.60,2.38,0.63,-0.64,-0.75,-0.64,1.69,1.74,1.74
327.59,2.29,0.53,2.31,0.56,-0.60,-0.72,-0.59,1.69,1.71,1.76
330.87,2.29,0.52,2.27,0.52,-0.56,-0.69,-0.54,1.73,1.71,1.76
334.18,2.29,0.53,2.28,0.51,-0.53,-0.66,-0.49,1.76,1.76,1.76
337.52,2.29,0.51,2.29,0.51,-0.50,-0.63,-0.44,1.79,1.79,1.78
340.90,2.29,0.49,2.29,0.49,-0.49,-0.60,-0.39,1.80,1.80,1.80
344.30,2.29,0.47,2.29,0.47,-0.47,-0.57,-0.34,1.82,1.82,1.82
347.75,2.29,0.45,2.29,0.45,-0.46,-0.54,-0.29,1.83,1.83,1.84
351.23,2.29,0.43,2.29,0.43,-0.43,-0.50,-0.24,1.86,1.86,1.85
354.74,2.29,0.42,2.30,0.43,-0.39,-0.47,-0.19,1.90,1.92,1.87
358.28,2.29,0.39,2.29,0.39,-0.34,-0.43,-0.14,1.95,1.95,1.90
361.87,2.29,0.37,2.23,0.31,-0.29,-0.40,-0.09,2.00,1.94,1.92
365.49,2.13,0.18,2.16,0.22,-0.24,-0.36,-0.04,1.89,1.92,1.95
369.14,2.07,0.11,2.09,0.13,-0.18,-0.33,0.01,1.89,1.91,1.96
372.83,2.06,0.08,2.05,0.07,-0.12,-0.29,0.05,1.94,1.93,1.98
376.56,2.06,0.06,2.07,0.07,-0.06,-0.25,0.10,2.00,2.01,2.00
380.33,2.06,0.03,2.06,0.03,-0.00,-0.21,0.15,2.06,2.06,2.02
384.13,2.06,0.01,2.01,-0.03,0.06,-0.17,0.20,2.11,2.06,2.04
387.97,1.91,-0.13,1.94,-0.11,0.11,-0.13,0.25,2.02,2.05,2.04
391.85,1.85,-0.20,1.88,-0.18,0.17,-0.09,0.29,2.02,2.05,2.05
395.77,1.84,-0.23,1.84,-0.23,0.23,-0.05,0.34,2.07,2.07,2.07
399.73,1.84,-0.24,1.80,-0.28,0.30,-0.01,0.39,2.14,2.10,2.08
403.72,1.75,-0.34,1.74,-0.35,0.37,0.04,0.43,2.12,2.11,2.09
407.76,1.64,-0.46,1.67,-0.43,0.42,0.08,0.48,2.06,2.09,2.10
411.84,1.61,-0.50,1.62,-0.49,0.45,0.12,0.52,2.06,2.07,2.11
415.96,1.61,-0.51,1.60,-0.52,0.48,0.17,0.57,2.09,2.08,2.12
420.12,1.61,-0.52,1.60,-0.53,0.49,0.22,0.61,2.10,2.09,2.13
424.32,1.61,-0.52,1.61,-0.52,0.50,0.26,0.66,2.11,2.12,2.13
428.56,1.61,-0.53,1.65,-0.49,0.51,0.31,0.70,2.11,2.15,2.13
432.85,1.70,-0.44,1.67,-0.46,0.50,0.36,0.75,2.20,2.17,2.13
437.18,1.71,-0.43,1.68,-0.47,0.49,0.41,0.79,2.20,2.17,2.14
441.55,1.64,-0.51,1.66,-0.49,0.50,0.46,0.83,2.14,2.16,2.15
445.96,1.61,-0.55,1.62,-0.54,0.52,0.51,0.87,2.13,2.14,2.16
450.42,1.61,-0.55,1.61,-0.55,0.55,0.56,0.91,2.16,2.16,2.16
454.93,1.61,-0.57,1.61,-0.56,0.59,0.61,0.95,2.20,2.20,2.18
459.48,1.61,-0.57,1.57,-0.61,0.64,0.66,0.99,2.24,2.21,2.18
464.07,1.51,-0.69,1.51,-0.69,0.69,0.71,1.03,2.19,2.19,2.20
468.71,1.41,-0.81,1.44,-0.78,0.74,0.77,1.07,2.15,2.18,2.22
473.40,1.38,-0.84,1.39,-0.84,0.81,0.82,1.10,2.19,2.20,2.22
478.13,1.38,-0.86,1.38,-0.85,0.87,0.87,1.14,2.25,2.25,2.24
482.91,1.38,-0.87,1.36,-0.90,0.94,0.93,1.17,2.32,2.29,2.25
487.74,1.33,-0.95,1.30,-0.98,1.00,0.98,1.20,2.33,2.29,2.28
492.62,1.19,-1.12,1.22,-1.08,1.05,1.04,1.24,2.24,2.28,2.31
497.55,1.15,-1.18,1.16,-1.16,1.10,1.10,1.27,2.25,2.27,2.33
502.52,1.15,-1.20,1.14,-1.21,1.16,1.15,1.29,2.31,2.30,2.35
507.55,1.15,-1.22,1.16,-1.21,1.24,1.21,1.32,2.39,2.40,2.37
512.62,1.15,-1.25,1.13,-1.26,1.32,1.27,1.35,2.47,2.45,2.40
517.75,1.12,-1.31,1.08,-1.34,1.40,1.33,1.37,2.51,2.48,2.43
522.93,0.96,-1.49,1.00,-1.44,1.47,1.39,1.40,2.43,2.48,2.44
528.16,0.92,-1.55,0.89,-1.57,1.55,1.44,1.42,2.47,2.44,2.46
533.44,0.80,-1.69,0.79,-1.69,1.63,1.50,1.45,2.43,2.43,2.48
538.77,0.71,-1.80,0.74,-1.77,1.72,1.56,1.47,2.43,2.46,2.50
544.16,0.70,-1.83,0.71,-1.82,1.80,1.62,1.49,2.50,2.51,2.52
549.60,0.70,-1.84,0.68,-1.86,1.88,1.68,1.51,2.58,2.56,2.54
555.10,0.67,-1.87,0.62,-1.93,1.95,1.74,1.54,2.62,2.57,2.54
560.65,0.51,-2.04,0.56,-1.99,2.01,1.80,1.56,2.52,2.58,2.55
