frequency,raw,error,smoothed,error_smoothed,equalization,parametric_eq,fixed_band_eq,equalized_raw,equalized_smoothed,target
20.00,-0.67,-5.41,-0.68,-5.41,5.38,5.24,2.19,4.70,4.70,4.74
20.20,-0.62,-5.40,-0.62,-5.39,5.38,5.24,2.25,4.76,4.76,4.78
20.40,-0.58,-5.39,-0.57,-5.38,5.39,5.25,2.31,4.81,4.82,4.81
20.61,-0.53,-5.37,-0.53,-5.36,5.39,5.25,2.38,4.86,4.86,4.84
20.81,-0.48,-5.35,-0.48,-5.35,5.39,5.26,2.45,4.91,4.90,4.87
21.02,-0.44,-5.34,-0.45,-5.35,5.38,5.26,2.52,4.94,4.93,4.90
21.23,-0.44,-5.36,-0.44,-5.35,5.38,5.26,2.59,4.94,4.94,4.92
21.44,-0.44,-5.37,-0.44,-5.37,5.37,5.25,2.66,4.93,4.93,4.93
21.66,-0.44,-5.38,-0.45,-5.38,5.36,5.25,2.74,4.92,4.92,4.93
21.87,-0.44,-5.39,-0.44,-5.38,5.35,5.24,2.82,4.91,4.91,4.94
22.09,-0.42,-5.38,-0.41,-5.37,5.33,5.23,2.90,4.91,4.92,4.95
22.31,-0.37,-5.33,-0.37,-5.34,5.31,5.22,2.98,4.94,4.94,4.96
22.54,-0.32,-5.29,-0.32,-5.28,5.29,5.21,3.06,4.97,4.97,4.96
22.76,-0.27,-5.23,-0.27,-5.23,5.27,5.20,3.15,5.00,5.00,4.96
22.99,-0.22,-5.18,-0.24,-5.20,5.25,5.19,3.24,5.02,5.01,4.96
23.22,-0.22,-5.19,-0.22,-5.19,5.22,5.17,3.33,5.00,5.00,4.97
23.45,-0.22,-5.19,-0.22,-5.19,5.20,5.15,3.42,4.98,4.98,4.97
23.69,-0.22,-5.20,-0.22,-5.20,5.18,5.13,3.52,4.96,4.95,4.98
23.92,-0.22,-5.20,-0.21,-5.20,5.15,5.11,3.61,4.93,4.94,4.98
24.16,-0.18,-5.17,-0.18,-5.17,5.13,5.09,3.71,4.95,4.95,4.99
24.40,-0.13,-5.12,-0.13,-5.12,5.10,5.07,3.81,4.97,4.97,4.99
24.65,-0.07,-5.05,-0.07,-5.05,5.07,5.05,3.91,5.00,5.00,4.98
24.89,-0.01,-4.99,-0.02,-5.00,5.03,5.02,4.02,5.02,5.01,4.98
25.14,0.01,-4.97,0.00,-4.97,5.00,4.99,4.12,5.01,5.01,4.98
25.39,0.01,-4.96,0.01,-4.96,4.98,4.97,4.22,4.99,4.99,4.97
25.65,0.01,-4.96,0.01,-4.95,4.96,4.94,4.33,4.97,4.97,4.97
25.91,0.01,-4.95,0.01,-4.95,4.95,4.91,4.43,4.96,4.96,4.96
26.16,0.01,-4.94,0.01,-4.94,4.94,4.88,4.54,4.95,4.95,4.95
26.43,0.01,-4.94,0.00,-4.94,4.93,4.85,4.64,4.94,4.93,4.95
26.69,0.01,-4.93,0.00,-4.93,4.90,4.82,4.74,4.91,4.91,4.94
26.96,0.01,-4.93,0.02,-4.91,4.87,4.79,4.84,4.88,4.89,4.94
27.23,0.06,-4.87,0.06,-4.86,4.83,4.75,4.94,4.89,4.90,4.92
27.50,0.13,-4.80,0.13,-4.79,4.79,4.72,5.04,4.92,4.92,4.92
27.77,0.19,-4.71,0.19,-4.72,4.75,4.69,5.13,4.94,4.94,4.90
28.05,0.24,-4.66,0.23,-4.67,4.71,4.65,5.22,4.95,4.94,4.90
28.33,0.24,-4.65,0.24,-4.65,4.69,4.62,5.31,4.92,4.93,4.89
28.62,0.24,-4.64,0.24,-4.64,4.66,4.59,5.38,4.90,4.91,4.88
28.90,0.24,-4.64,0.24,-4.64,4.64,4.55,5.46,4.88,4.88,4.88
29.19,0.24,-4.63,0.24,-4.64,4.63,4.52,5.53,4.86,4.86,4.87
29.48,0.24,-4.64,0.23,-4.64,4.61,4.48,5.59,4.84,4.84,4.88
29.78,0.24,-4.63,0.24,-4.62,4.58,4.45,5.64,4.82,4.82,4.87
30.08,0.26,-4.60,0.27,-4.59,4.55,4.41,5.69,4.80,4.82,4.86
30.38,0.33,-4.52,0.33,-4.52,4.51,4.38,5.73,4.84,4.84,4.84
30.68,0.40,-4.45,0.40,-4.44,4.47,4.35,5.76,4.87,4.86,4.84
30.99,0.47,-4.36,0.45,-4.39,4.43,4.31,5.78,4.90,4.88,4.83
31.30,0.47,-4.36,0.47,-4.36,4.39,4.28,5.79,4.86,4.86,4.83
31.61,0.47,-4.36,0.48,-4.35,4.36,4.25,5.79,4.83,4.84,4.83
31.93,0.47,-4.35,0.47,-4.35,4.35,4.21,5.79,4.81,4.81,4.82
32.24,0.47,-4.33,0.47,-4.34,4.34,4.18,5.78,4.81,4.81,4.80
32.57,0.47,-4.33,0.47,-4.33,4.34,4.15,5.76,4.81,4.81,4.80
32.89,0.47,-4.34,0.47,-4.33,4.33,4.12,5.73,4.80,4.80,4.80
33.22,0.47,-4.32,0.46,-4.33,4.32,4.09,5.69,4.79,4.78,4.79
33.55,0.47,-4.32,0.46,-4.33,4.29,4.06,5.65,4.76,4.75,4.79
33.89,0.47,-4.31,0.48,-4.30,4.26,4.03,5.60,4.73,4.74,4.78
34.23,0.52,-4.26,0.53,-4.24,4.22,4.00,5.55,4.74,4.75,4.78
34.57,0.60,-4.17,0.60,-4.17,4.18,3.98,5.49,4.78,4.78,4.77
34.92,0.68,-4.09,0.66,-4.11,4.14,3.95,5.43,4.82,4.80,4.76
35.27,0.70,-4.06,0.70,-4.06,4.11,3.93,5.36,4.80,4.80,4.76
35.62,0.70,-4.05,0.70,-4.05,4.07,3.90,5.29,4.77,4.78,4.75
35.97,0.70,-4.05,0.70,-4.05,4.05,3.88,5.22,4.75,4.75,4.75
36.33,0.70,-4.05,0.70,-4.04,4.03,3.86,5.14,4.73,4.73,4.75
36.70,0.70,-4.04,0.70,-4.04,4.02,3.84,5.07,4.72,4.72,4.73
37.06,0.70,-4.02,0.70,-4.03,4.02,3.82,4.99,4.72,4.72,4.72
37.43,0.70,-4.02,0.70,-4.02,4.01,3.81,4.92,4.71,4.71,4.72
37.81,0.70,-4.01,0.70,-4.01,4.01,3.79,4.84,4.71,4.71,4.71
38.19,0.70,-4.00,0.70,-4.00,4.00,3.77,4.77,4.70,4.70,4.69
38.57,0.70,-3.99,0.70,-3.99,3.99,3.76,4.69,4.69,4.69,4.69
38.95,0.70,-3.98,0.70,-3.98,3.98,3.75,4.62,4.68,4.68,4.68
39.34,0.70,-3.97,0.70,-3.97,3.97,3.74,4.55,4.67,4.67,4.67
39.74,0.70,-3.95,0.70,-3.96,3.96,3.73,4.48,4.66,4.66,4.65
40.14,0.70,-3.96,0.70,-3.95,3.96,3.72,4.41,4.65,4.65,4.66
40.54,0.70,-3.95,0.70,-3.95,3.95,3.72,4.34,4.65,4.65,4.65
40.94,0.70,-3.94,0.70,-3.94,3.94,3.72,4.28,4.64,4.64,4.64
41.35,0.70,-3.93,0.70,-3.93,3.93,3.71,4.22,4.63,4.63,4.63
41.76,0.70,-3.93,0.70,-3.92,3.92,3.71,4.16,4.62,4.62,4.62
42.18,0.70,-3.91,0.70,-3.91,3.91,3.72,4.11,4.61,4.61,4.61
42.60,0.70,-3.90,0.70,-3.90,3.89,3.72,4.06,4.59,4.59,4.60
43.03,0.70,-3.88,0.70,-3.88,3.87,3.73,4.01,4.57,4.57,4.58
43.46,0.70,-3.86,0.70,-3.86,3.84,3.73,3.96,4.54,4.54,4.56
43.90,0.70,-3.83,0.70,-3.83,3.82,3.74,3.92,4.52,4.52,4.52
44.33,0.70,-3.80,0.70,-3.80,3.81,3.75,3.88,4.50,4.51,4.50
44.78,0.70,-3.78,0.69,-3.78,3.80,3.76,3.85,4.50,4.50,4.47
45.23,0.68,-3.77,0.68,-3.77,3.80,3.78,3.81,4.48,4.48,4.45
45.68,0.65,-3.78,0.65,-3.78,3.81,3.79,3.78,4.46,4.46,4.42
46.13,0.61,-3.80,0.59,-3.82,3.83,3.81,3.75,4.44,4.42,4.41
46.60,0.53,-3.87,0.53,-3.86,3.84,3.82,3.73,4.37,4.38,4.40
47.06,0.47,-3.92,0.49,-3.90,3.86,3.84,3.71,4.33,4.35,4.39
47.53,0.47,-3.90,0.46,-3.91,3.88,3.86,3.69,4.35,4.34,4.37
48.01,0.47,-3.91,0.46,-3.91,3.90,3.88,3.67,4.36,4.36,4.37
48.49,0.47,-3.90,0.47,-3.89,3.91,3.90,3.66,4.38,4.38,4.37
48.97,0.47,-3.88,0.47,-3.89,3.91,3.92,3.65,4.38,4.38,4.35
49.46,0.47,-3.88,0.47,-3.88,3.90,3.94,3.64,4.37,4.37,4.34
49.96,0.47,-3.88,0.46,-3.89,3.88,3.96,3.63,4.35,4.34,4.35
50.46,0.47,-3.89,0.47,-3.89,3.85,3.98,3.63,4.32,4.32,4.36
50.96,0.47,-3.89,0.48,-3.88,3.83,4.00,3.63,4.29,4.31,4.36
51.47,0.52,-3.83,0.52,-3.84,3.80,4.01,3.63,4.32,4.32,4.35
51.99,0.57,-3.78,0.59,-3.76,3.77,4.03,3.63,4.34,4.36,4.34
52.51,0.64,-3.71,0.64,-3.70,3.75,4.04,3.63,4.38,4.38,4.35
53.03,0.69,-3.64,0.63,-3.70,3.73,4.05,3.63,4.42,4.36,4.33
53.56,0.57,-3.74,0.58,-3.73,3.72,4.05,3.63,4.29,4.31,4.31
54.10,0.47,-3.82,0.52,-3.76,3.74,4.06,3.63,4.21,4.26,4.29
54.64,0.47,-3.79,0.46,-3.79,3.79,4.05,3.63,4.26,4.25,4.26
55.18,0.43,-3.80,0.40,-3.82,3.87,4.05,3.64,4.30,4.28,4.23
55.74,0.30,-3.90,0.28,-3.92,3.99,4.04,3.64,4.29,4.27,4.20
56.29,0.10,-4.08,0.09,-4.08,4.13,4.02,3.64,4.22,4.22,4.17
56.86,-0.15,-4.29,-0.11,-4.25,4.28,4.00,3.64,4.13,4.17,4.14
57.42,-0.32,-4.42,-0.31,-4.42,4.44,3.98,3.63,4.12,4.13,4.10
58.00,-0.46,-4.53,-0.53,-4.59,4.59,3.95,3.63,4.13,4.07,4.07
58.58,-0.72,-4.76,-0.70,-4.74,4.72,3.91,3.62,4.00,4.02,4.04
59.16,-0.90,-4.91,-0.84,-4.85,4.81,3.87,3.61,3.91,3.96,4.01
59.76,-0.90,-4.88,-0.94,-4.92,4.83,3.83,3.60,3.92,3.89,3.98
60.35,-0.90,-4.84,-0.93,-4.87,4.77,3.78,3.58,3.87,3.84,3.93
60.96,-0.90,-4.80,-0.84,-4.73,4.65,3.73,3.56,3.75,3.82,3.90
61.57,-0.67,-4.52,-0.69,-4.54,4.47,3.67,3.54,3.80,3.79,3.85
62.18,-0.44,-4.25,-0.47,-4.28,4.25,3.61,3.52,3.81,3.79,3.81
62.80,-0.22,-3.99,-0.19,-3.96,4.01,3.54,3.49,3.79,3.82,3.77
63.43,0.06,-3.67,0.07,-3.66,3.75,3.48,3.45,3.81,3.82,3.73
64.07,0.35,-3.35,0.29,-3.40,3.50,3.41,3.42,3.84,3.79,3.70
64.71,0.47,-3.20,0.47,-3.19,3.26,3.33,3.38,3.72,3.73,3.66
65.35,0.58,-3.06,0.60,-3.04,3.04,3.26,3.33,3.62,3.64,3.63
66.01,0.70,-2.90,0.71,-2.89,2.85,3.18,3.29,3.55,3.56,3.60
66.67,0.85,-2.73,0.86,-2.72,2.69,3.11,3.23,3.54,3.55,3.58
67.33,1.00,-2.55,0.99,-2.55,2.55,3.03,3.18,3.55,3.55,3.55
68.01,1.15,-2.38,1.11,-2.42,2.44,2.95,3.13,3.58,3.54,3.53
68.69,1.17,-2.34,1.20,-2.30,2.33,2.87,3.07,3.50,3.54,3.51
69.37,1.26,-2.23,1.28,-2.20,2.23,2.79,3.01,3.49,3.51,3.49
70.07,1.38,-2.09,1.33,-2.14,2.14,2.72,2.94,3.51,3.47,3.46
70.77,1.38,-2.07,1.37,-2.08,2.06,2.64,2.88,3.43,3.42,3.45
71.48,1.38,-2.06,1.41,-2.02,1.99,2.56,2.81,3.37,3.40,3.44
72.19,1.43,-1.99,1.47,-1.95,1.93,2.49,2.74,3.36,3.40,3.41
72.91,1.59,-1.80,1.54,-1.85,1.87,2.41,2.68,3.46,3.41,3.39
73.64,1.61,-1.76,1.60,-1.77,1.81,2.34,2.61,3.42,3.41,3.37
74.38,1.61,-1.74,1.61,-1.73,1.74,2.27,2.54,3.35,3.35,3.35
75.12,1.61,-1.72,1.61,-1.72,1.67,2.20,2.47,3.28,3.28,3.32
75.87,1.61,-1.69,1.65,-1.65,1.61,2.13,2.39,3.22,3.25,3.30
76.63,1.72,-1.56,1.71,-1.56,1.55,2.06,2.32,3.27,3.26,3.28
77.40,1.81,-1.45,1.78,-1.48,1.50,1.99,2.25,3.31,3.29,3.26
78.17,1.84,-1.41,1.83,-1.42,1.46,1.93,2.18,3.30,3.30,3.24
78.95,1.84,-1.41,1.85,-1.40,1.43,1.87,2.11,3.27,3.27,3.25
79.74,1.84,-1.40,1.84,-1.39,1.40,1.80,2.04,3.24,3.24,3.24
80.54,1.84,-1.39,1.84,-1.39,1.38,1.74,1.97,3.22,3.22,3.23
81.35,1.84,-1.39,1.84,-1.39,1.38,1.69,1.91,3.22,3.22,3.23
82.16,1.84,-1.39,1.84,-1.39,1.39,1.63,1.84,3.23,3.23,3.22
82.98,1.84,-1.39,1.84,-1.39,1.40,1.58,1.77,3.24,3.24,3.23
83.81,1.84,-1.39,1.84,-1.39,1.40,1.52,1.71,3.24,3.24,3.23
84.65,1.84,-1.40,1.83,-1.41,1.39,1.47,1.64,3.23,3.22,3.24
85.50,1.84,-1.41,1.82,-1.43,1.37,1.42,1.58,3.21,3.20,3.25
86.35,1.84,-1.42,1.86,-1.40,1.35,1.38,1.51,3.19,3.22,3.26
87.22,1.89,-1.39,1.93,-1.34,1.33,1.33,1.45,3.22,3.26,3.28
88.09,2.06,-1.22,2.00,-1.29,1.31,1.29,1.39,3.37,3.31,3.28
88.97,2.06,-1.24,2.05,-1.24,1.29,1.25,1.33,3.35,3.34,3.30
89.86,2.06,-1.25,2.07,-1.23,1.27,1.21,1.27,3.33,3.34,3.31
90.76,2.06,-1.24,2.06,-1.25,1.25,1.17,1.22,3.31,3.31,3.30
91.66,2.06,-1.26,2.06,-1.25,1.24,1.14,1.16,3.30,3.30,3.32
92.58,2.06,-1.25,2.06,-1.26,1.24,1.11,1.10,3.30,3.30,3.31
93.51,2.06,-1.26,2.06,-1.26,1.25,1.08,1.05,3.31,3.31,3.32
94.44,2.06,-1.27,2.06,-1.26,1.26,1.06,0.99,3.31,3.31,3.32
95.39,2.06,-1.26,2.06,-1.26,1.26,1.04,0.94,3.32,3.32,3.32
96.34,2.06,-1.25,2.06,-1.25,1.27,1.02,0.89,3.33,3.33,3.31
97.30,2.06,-1.25,2.06,-1.25,1.27,1.01,0.84,3.32,3.32,3.31
98.28,2.06,-1.24,2.06,-1.24,1.26,1.00,0.79,3.31,3.31,3.30
99.26,2.06,-1.23,2.06,-1.24,1.23,0.98,0.74,3.29,3.29,3.29
100.25,2.06,-1.23,2.05,-1.24,1.20,0.97,0.69,3.26,3.25,3.28
101.25,2.06,-1.22,2.07,-1.21,1.16,0.95,0.64,3.22,3.22,3.27
102.27,2.09,-1.18,2.12,-1.14,1.11,0.92,0.60,3.20,3.23,3.27
103.29,2.21,-1.03,2.19,-1.05,1.05,0.89,0.55,3.26,3.25,3.24
104.32,2.29,-0.93,2.26,-0.96,1.00,0.85,0.50,3.28,3.25,3.22
105.37,2.29,-0.90,2.30,-0.89,0.93,0.80,0.46,3.22,3.23,3.19
106.42,2.29,-0.87,2.30,-0.86,0.87,0.74,0.42,3.16,3.17,3.16
107.48,2.29,-0.82,2.29,-0.82,0.82,0.69,0.37,3.11,3.11,3.11
108.56,2.29,-0.77,2.29,-0.77,0.78,0.63,0.33,3.06,3.06,3.06
109.64,2.29,-0.73,2.29,-0.73,0.73,0.57,0.29,3.02,3.02,3.02
110.74,2.29,-0.68,2.29,-0.68,0.68,0.51,0.25,2.97,2.97,2.97
111.85,2.29,-0.64,2.29,-0.64,0.62,0.46,0.21,2.91,2.91,2.93
112.97,2.29,-0.57,2.28,-0.59,0.55,0.41,0.18,2.84,2.83,2.86
114.10,2.29,-0.54,2.30,-0.52,0.47,0.36,0.14,2.76,2.77,2.82
115.24,2.32,-0.45,2.36,-0.41,0.39,0.31,0.10,2.71,2.74,2.77
116.39,2.45,-0.27,2.43,-0.29,0.31,0.27,0.07,2.76,2.73,2.72
117.55,2.52,-0.15,2.49,-0.18,0.23,0.22,0.04,2.75,2.72,2.67
118.73,2.52,-0.11,2.53,-0.11,0.16,0.18,0.00,2.68,2.69,2.63
119.92,2.52,-0.09,2.53,-0.08,0.11,0.14,-0.03,2.63,2.63,2.61
121.12,2.52,-0.05,2.52,-0.05,0.06,0.11,-0.06,2.58,2.58,2.57
122.33,2.52,-0.02,2.52,-0.03,0.03,0.07,-0.09,2.55,2.55,2.54
123.55,2.52,-0.01,2.52,-0.00,-0.00,0.03,-0.12,2.52,2.52,2.53
124.79,2.52,0.02,2.51,0.01,-0.04,-0.00,-0.14,2.48,2.47,2.50
126.03,2.52,0.04,2.51,0.03,-0.08,-0.04,-0.17,2.44,2.42,2.48
127.29,2.52,0.06,2.54,0.09,-0.13,-0.07,-0.19,2.38,2.41,2.46
128.57,2.57,0.14,2.61,0.17,-0.19,-0.11,-0.22,2.38,2.42,2.43
129.85,2.73,0.32,2.68,0.27,-0.25,-0.14,-0.24,2.48,2.43,2.40
131.15,2.75,0.37,2.74,0.36,-0.30,-0.18,-0.26,2.45,2.44,2.38
132.46,2.75,0.39,2.76,0.40,-0.35,-0.21,-0.29,2.39,2.41,2.36
133.79,2.75,0.40,2.75,0.41,-0.40,-0.24,-0.31,2.35,2.35,2.35
135.12,2.75,0.43,2.75,0.43,-0.44,-0.27,-0.33,2.31,2.31,2.32
136.48,2.75,0.44,2.75,0.45,-0.47,-0.31,-0.35,2.28,2.28,2.30
137.84,2.75,0.47,2.75,0.48,-0.49,-0.34,-0.37,2.26,2.26,2.27
139.22,2.75,0.51,2.75,0.50,-0.50,-0.37,-0.39,2.24,2.24,2.23
140.61,2.75,0.53,2.75,0.53,-0.52,-0.40,-0.40,2.23,2.23,2.22
142.02,2.75,0.54,2.75,0.55,-0.54,-0.43,-0.42,2.20,2.20,2.21
143.44,2.75,0.57,2.75,0.57,-0.57,-0.46,-0.44,2.18,2.18,2.18
144.87,2.75,0.60,2.75,0.60,-0.60,-0.50,-0.46,2.15,2.15,2.15
146.32,2.75,0.63,2.75,0.63,-0.63,-0.53,-0.47,2.12,2.12,2.12
147.78,2.75,0.66,2.75,0.66,-0.67,-0.56,-0.49,2.08,2.08,2.09
149.26,2.75,0.70,2.75,0.70,-0.71,-0.59,-0.51,2.04,2.04,2.05
150.75,2.75,0.75,2.75,0.75,-0.76,-0.62,-0.53,1.99,1.99,2.00
152.26,2.75,0.80,2.75,0.81,-0.82,-0.65,-0.55,1.93,1.93,1.94
153.78,2.75,0.87,2.75,0.87,-0.88,-0.68,-0.56,1.87,1.87,1.88
155.32,2.75,0.93,2.75,0.93,-0.94,-0.71,-0.58,1.81,1.81,1.82
156.88,2.75,0.98,2.75,0.99,-0.99,-0.74,-0.60,1.76,1.76,1.76
158.44,2.75,1.05,2.76,1.06,-1.02,-0.77,-0.62,1.73,1.74,1.70
160.03,2.75,1.11,2.75,1.10,-1.04,-0.81,-0.64,1.71,1.71,1.64
161.63,2.75,1.15,2.70,1.10,-1.05,-0.84,-0.66,1.69,1.64,1.60
163.24,2.61,1.06,2.63,1.07,-1.06,-0.87,-0.68,1.55,1.57,1.55
164.88,2.52,1.00,2.56,1.04,-1.06,-0.90,-0.70,1.46,1.49,1.52
166.53,2.52,1.03,2.51,1.02,-1.07,-0.93,-0.73,1.44,1.44,1.49
168.19,2.52,1.06,2.50,1.03,-1.09,-0.96,-0.75,1.43,1.40,1.46
169.87,2.52,1.07,2.52,1.07,-1.12,-0.99,-0.77,1.40,1.40,1.44
171.57,2.52,1.08,2.57,1.13,-1.15,-1.02,-0.80,1.37,1.42,1.44
173.29,2.66,1.22,2.64,1.20,-1.19,-1.04,-0.82,1.47,1.46,1.44
175.02,2.75,1.31,2.71,1.27,-1.23,-1.07,-0.85,1.52,1.49,1.44
176.77,2.75,1.31,2.76,1.32,-1.26,-1.10,-0.88,1.49,1.50,1.44
178.54,2.75,1.31,2.76,1.31,-1.29,-1.13,-0.91,1.46,1.47,1.44
180.32,2.75,1.30,2.75,1.30,-1.31,-1.16,-0.93,1.44,1.44,1.45
182.13,2.75,1.30,2.75,1.30,-1.32,-1.19,-0.96,1.43,1.43,1.45
183.95,2.75,1.30,2.75,1.30,-1.32,-1.21,-0.99,1.43,1.43,1.45
185.79,2.75,1.30,2.75,1.30,-1.32,-1.24,-1.02,1.43,1.43,1.45
187.65,2.75,1.32,2.75,1.32,-1.32,-1.26,-1.06,1.43,1.43,1.43
189.52,2.75,1.33,2.75,1.33,-1.33,-1.29,-1.09,1.42,1.42,1.42
191.42,2.75,1.34,2.75,1.35,-1.34,-1.31,-1.12,1.41,1.41,1.40
193.33,2.75,1.36,2.75,1.35,-1.35,-1.34,-1.15,1.39,1.39,1.39
195.27,2.75,1.37,2.75,1.37,-1.37,-1.36,-1.19,1.38,1.38,1.38
197.22,2.75,1.38,2.75,1.39,-1.39,-1.38,-1.22,1.36,1.36,1.37
199.19,2.75,1.41,2.75,1.40,-1.40,-1.40,-1.26,1.35,1.35,1.34
201.18,2.75,1.42,2.75,1.42,-1.42,-1.42,-1.29,1.33,1.33,1.33
203.19,2.75,1.43,2.75,1.44,-1.43,-1.44,-1.33,1.31,1.31,1.32
205.23,2.75,1.45,2.75,1.45,-1.45,-1.46,-1.36,1.30,1.30,1.30
207.28,2.75,1.46,2.75,1.46,-1.47,-1.48,-1.40,1.28,1.28,1.29
209.35,2.75,1.48,2.75,1.48,-1.48,-1.49,-1.43,1.27,1.27,1.27
211.44,2.75,1.51,2.75,1.50,-1.50,-1.51,-1.46,1.25,1.25,1.24
213.56,2.75,1.52,2.75,1.51,-1.51,-1.52,-1.50,1.24,1.24,1.23
215.69,2.75,1.52,2.75,1.52,-1.53,-1.53,-1.53,1.22,1.22,1.23
217.85,2.75,1.53,2.75,1.54,-1.54,-1.54,-1.56,1.21,1.21,1.22
220.03,2.75,1.55,2.75,1.55,-1.55,-1.55,-1.59,1.20,1.20,1.20
222.23,2.75,1.57,2.75,1.56,-1.56,-1.56,-1.62,1.19,1.19,1.18
224.45,2.75,1.57,2.75,1.57,-1.56,-1.56,-1.64,1.18,1.18,1.18
226.70,2.75,1.57,2.75,1.57,-1.57,-1.57,-1.67,1.18,1.18,1.18
228.96,2.75,1.57,2.75,1.57,-1.57,-1.57,-1.69,1.17,1.17,1.18
231.25,2.75,1.57,2.75,1.57,-1.58,-1.57,-1.71,1.17,1.17,1.18
233.57,2.75,1.57,2.75,1.57,-1.58,-1.57,-1.72,1.17,1.17,1.18
235.90,2.75,1.58,2.75,1.57,-1.57,-1.57,-1.74,1.18,1.18,1.17
238.26,2.75,1.57,2.75,1.57,-1.57,-1.56,-1.75,1.18,1.18,1.18
240.64,2.75,1.57,2.75,1.57,-1.56,-1.56,-1.75,1.19,1.19,1.18
243.05,2.75,1.55,2.75,1.55,-1.55,-1.55,-1.76,1.20,1.20,1.19
245.48,2.75,1.54,2.75,1.54,-1.54,-1.54,-1.76,1.21,1.21,1.21
247.93,2.75,1.52,2.75,1.53,-1.53,-1.53,-1.75,1.22,1.22,1.22
250.41,2.75,1.52,2.75,1.51,-1.51,-1.52,-1.75,1.24,1.24,1.23
252.92,2.75,1.49,2.75,1.49,-1.50,-1.50,-1.74,1.25,1.25,1.25
255.45,2.75,1.47,2.75,1.47,-1.49,-1.49,-1.72,1.26,1.26,1.28
258.00,2.75,1.45,2.75,1.45,-1.47,-1.47,-1.70,1.28,1.28,1.30
260.58,2.75,1.45,2.75,1.44,-1.45,-1.45,-1.68,1.29,1.29,1.30
263.19,2.75,1.42,2.75,1.42,-1.43,-1.43,-1.66,1.32,1.32,1.33
265.82,2.75,1.40,2.76,1.41,-1.39,-1.41,-1.63,1.36,1.37,1.34
268.48,2.75,1.39,2.76,1.39,-1.34,-1.38,-1.60,1.41,1.41,1.36
271.16,2.75,1.36,2.71,1.33,-1.29,-1.36,-1.56,1.46,1.42,1.39
273.87,2.66,1.25,2.65,1.24,-1.23,-1.33,-1.52,1.42,1.41,1.40
276.61,2.54,1.11,2.58,1.15,-1.18,-1.30,-1.49,1.36,1.40,1.43
279.38,2.52,1.07,2.52,1.07,-1.12,-1.27,-1.44,1.40,1.40,1.45
282.17,2.52,1.04,2.51,1.03,-1.07,-1.24,-1.40,1.45,1.44,1.47
284.99,2.52,1.02,2.52,1.02,-1.02,-1.21,-1.35,1.50,1.50,1.50
287.84,2.52,0.99,2.52,0.99,-0.98,-1.18,-1.30,1.54,1.54,1.53
290.72,2.52,0.96,2.52,0.96,-0.95,-1.14,-1.25,1.57,1.57,1.56
293.63,2.52,0.95,2.52,0.94,-0.93,-1.11,-1.20,1.59,1.59,1.57
296.57,2.52,0.91,2.52,0.92,-0.91,-1.07,-1.15,1.61,1.61,1.61
299.53,2.52,0.89,2.52,0.89,-0.90,-1.03,-1.10,1.62,1.62,1.63
302.53,2.52,0.88,2.52,0.87,-0.88,-1.00,-1.04,1.64,1.64,1.64
305.55,2.52,0.84,2.52,0.85,-0.86,-0.96,-0.99,1.65,1.65,1.67
308.61,2.52,0.84,2.52,0.83,-0.84,-0.92,-0.93,1.68,1.68,1.68
311.69,2.52,0.81,2.52,0.81,-0.81,-0.88,-0.88,1.71,1.71,1.71
314.81,2.52,0.79,2.53,0.81,-0.77,-0.84,-0.82,1.74,1.76,1.73
317.96,2.52,0.78,2.51,0.78,-0.73,-0.80,-0.76,1.79,1.78,1.74
321.14,2.51,0.77,2.45,0.72,-0.69,-0.75,-0.71,1.82,1.76,1.73
324.35,2.34,0.61,2.38,0.64,-0.65,-0.71,-0.65,1.69,1.73,1.73
327.59,2.29,0.54,2.31,0.57,-0.61,-0.67,-0.59,1.68,1.70,1.75
330.87,2.29,0.53,2.27,0.52,-0.57,-0.62,-0.54,1.72,1.71,1.76
334.18,2.29,0.53,2.28,0.52,-0.53,-0.58,-0.48,1.75,1.75,1.76
337.52,2.29,0.51,2.29,0.51,-0.51,-0.54,-0.42,1.78,1.78,1.78
340.90,2.29,0.49,2.29,0.50,-0.49,-0.49,-0.37,1.80,1.80,1.79
344.30,2.29,0.48,2.29,0.48,-0.48,-0.45,-0.31,1.81,1.81,1.81
347.75,2.29,0.46,2.29,0.46,-0.46,-0.40,-0.25,1.83,1.83,1.83
351.23,2.29,0.44,2.29,0.44,-0.43,-0.36,-0.20,1.86,1.86,1.85
354.74,2.29,0.42,2.30,0.43,-0.39,-0.31,-0.14,1.90,1.91,1.87
358.28,2.29,0.39,2.29,0.39,-0.34,-0.26,-0.09,1.94,1.94,1.90
361.87,2.29,0.37,2.23,0.31,-0.30,-0.22,-0.03,1.99,1.94,1.92
365.49,2.13,0.18,2.16,0.22,-0.24,-0.17,0.03,1.89,1.92,1.95
369.14,2.07,0.11,2.09,0.14,-0.19,-0.12,0.08,1.88,1.91,1.96
372.83,2.06,0.08,2.05,0.07,-0.12,-0.08,0.14,1.93,1.93,1.97
376.56,2.06,0.07,2.07,0.07,-0.06,-0.03,0.19,2.00,2.00,1.99
380.33,2.06,0.04,2.06,0.04,-0.00,0.02,0.24,2.06,2.05,2.02
384.13,2.06,0.02,2.01,-0.03,0.05,0.06,0.30,2.11,2.06,2.04
387.97,1.91,-0.13,1.94,-0.11,0.11,0.11,0.35,2.02,2.05,2.04
391.85,1.85,-0.20,1.88,-0.17,0.17,0.16,0.41,2.02,2.05,2.05
395.77,1.84,-0.23,1.84,-0.23,0.23,0.20,0.46,2.07,2.07,2.07
399.73,1.84,-0.24,1.80,-0.28,0.30,0.25,0.51,2.14,2.10,2.08
403.72,1.75,-0.34,1.74,-0.35,0.37,0.30,0.57,2.11,2.10,2.09
407.76,1.64,-0.46,1.67,-0.43,0.42,0.35,0.62,2.06,2.09,2.10
411.84,1.61,-0.50,1.62,-0.49,0.45,0.39,0.67,2.06,2.07,2.11
415.96,1.61,-0.51,1.60,-0.52,0.48,0.44,0.72,2.08,2.08,2.12
420.12,1.61,-0.52,1.60,-0.53,0.49,0.49,0.77,2.10,2.09,2.12
424.32,1.61,-0.52,1.61,-0.52,0.50,0.54,0.82,2.11,2.11,2.12
428.56,1.61,-0.53,1.65,-0.49,0.50,0.58,0.87,2.11,2.15,2.13
432.85,1.70,-0.43,1.67,-0.46,0.50,0.63,0.92,2.20,2.17,2.13
437.18,1.71,-0.43,1.68,-0.47,0.49,0.68,0.97,2.20,2.17,2.14
441.55,1.64,-0.51,1.66,-0.49,0.50,0.73,1.02,2.14,2.16,2.15
445.96,1.61,-0.55,1.62,-0.54,0.52,0.77,1.07,2.13,2.14,2.16
450.42,1.61,-0.55,1.61,-0.55,0.55,0.82,1.11,2.16,2.16,2.16
454.93,1.61,-0.57,1.61,-0.56,0.59,0.87,1.15,2.20,2.20,2.18
459.48,1.61,-0.57,1.57,-0.61,0.64,0.92,1.20,2.24,2.21,2.18
464.07,1.51,-0.69,1.51,-0.69,0.69,0.96,1.24,2.19,2.19,2.20
468.71,1.41,-0.81,1.44,-0.78,0.74,1.01,1.28,2.15,2.18,2.22
473.40,1.38,-0.84,1.39,-0.84,0.81,1.06,1.32,2.19,2.20,2.22
478.13,1.38,-0.86,1.38,-0.85,0.87,1.11,1.35,2.25,2.25,2.24
482.91,1.38,-0.87,1.36,-0.90,0.94,1.15,1.39,2.32,2.29,2.25
487.74,1.33,-0.95,1.30,-0.98,1.00,1.20,1.42,2.33,2.30,2.28
492.62,1.19,-1.12,1.22,-1.08,1.05,1.25,1.45,2.24,2.28,2.31
497.55,1.15,-1.18,1.16,-1.16,1.10,1.29,1.48,2.25,2.27,2.33
502.52,1.15,-1.20,1.14,-1.21,1.17,1.34,1.51,2.31,2.31,2.35
507.55,1.15,-1.22,1.16,-1.21,1.24,1.39,1.54,2.39,2.40,2.37
512.62,1.15,-1.25,1.13,-1.26,1.32,1.44,1.56,2.47,2.45,2.40
517.75,1.12,-1.31,1.08,-1.34,1.40,1.48,1.59,2.52,2.48,2.43
522.93,0.96,-1.49,1.00,-1.44,1.47,1.53,1.61,2.43,2.48,2.45
528.16,0.92,-1.55,0.89,-1.57,1.55,1.58,1.63,2.47,2.45,2.47
533.44,0.80,-1.69,0.79,-1.69,1.63,1.63,1.65,2.43,2.43,2.49
538.77,0.71,-1.80,0.74,-1.77,1.72,1.67,1.66,2.43,2.46,2.51
544.16,0.70,-1.83,0.71,-1.82,1.81,1.72,1.68,2.50,2.51,2.53
549.60,0.70,-1.85,0.68,-1.86,1.88,1.77,1.70,2.58,2.56,2.55
555.10,0.67,-1.88,0.62,-1.93,1.95,1.81,1.71,2.62,2.57,2.54
560.65,0.51,-2.05,0.56,-1.99,2.01,1.86,1.73,2.52,2.58,2.55
