frequency,raw,error,smoothed,error_smoothed,equalization,parametric_eq,fixed_band_eq,equalized_raw,equalized_smoothed,target
20.00,28.62,24.06,28.62,24.06,-24.07,-23.89,-12.65,4.55,4.55,4.56
20.20,28.60,24.06,28.60,24.06,-24.06,-23.89,-12.87,4.54,4.54,4.54
20.40,28.58,24.05,28.58,24.05,-24.05,-23.88,-13.09,4.53,4.53,4.53
20.61,28.56,24.03,28.56,24.04,-24.04,-23.87,-13.32,4.52,4.52,4.53
20.81,28.54,24.03,28.54,24.03,-24.03,-23.87,-13.55,4.51,4.51,4.51
21.02,28.52,24.02,28.52,24.02,-24.02,-23.86,-13.78,4.50,4.50,4.50
21.23,28.50,24.01,28.50,24.01,-24.00,-23.85,-14.02,4.50,4.50,4.49
21.44,28.48,23.98,28.48,23.99,-23.99,-23.84,-14.27,4.49,4.49,4.50
21.66,28.45,23.96,28.45,23.97,-23.97,-23.83,-14.52,4.48,4.48,4.49
21.87,28.43,23.95,28.43,23.95,-23.96,-23.82,-14.78,4.47,4.47,4.48
22.09,28.41,23.94,28.41,23.94,-23.94,-23.81,-15.05,4.47,4.47,4.47
22.31,28.39,23.93,28.39,23.93,-23.92,-23.80,-15.32,4.47,4.47,4.46
22.54,28.37,23.92,28.37,23.91,-23.91,-23.79,-15.60,4.46,4.46,4.45
22.76,28.34,23.88,28.34,23.89,-23.89,-23.78,-15.88,4.45,4.45,4.46
22.99,28.32,23.87,28.32,23.87,-23.87,-23.77,-16.18,4.45,4.45,4.45
23.22,28.30,23.86,28.30,23.85,-23.85,-23.76,-16.48,4.45,4.45,4.44
23.45,28.28,23.84,28.28,23.84,-23.83,-23.75,-16.79,4.45,4.45,4.44
23.69,28.26,23.82,28.26,23.82,-23.81,-23.74,-17.11,4.45,4.45,4.44
23.92,28.24,23.80,28.24,23.80,-23.80,-23.73,-17.44,4.44,4.44,4.44
24.16,28.22,23.78,28.22,23.78,-23.78,-23.72,-17.77,4.44,4.44,4.44
24.40,28.20,23.75,28.20,23.75,-23.76,-23.71,-18.12,4.44,4.44,4.45
24.65,28.18,23.73,28.18,23.74,-23.74,-23.70,-18.48,4.44,4.44,4.45
24.89,28.16,23.72,28.16,23.72,-23.72,-23.68,-18.85,4.44,4.44,4.44
25.14,28.14,23.71,28.14,23.71,-23.70,-23.67,-19.23,4.44,4.43,4.43
25.39,28.11,23.68,28.11,23.69,-23.69,-23.66,-19.62,4.42,4.43,4.43
25.65,28.09,23.67,28.09,23.67,-23.67,-23.65,-20.02,4.42,4.42,4.42
25.91,28.07,23.66,28.07,23.65,-23.65,-23.64,-20.44,4.42,4.42,4.41
26.16,28.05,23.63,28.05,23.63,-23.63,-23.62,-20.87,4.42,4.42,4.42
26.43,28.03,23.62,28.03,23.61,-23.61,-23.61,-21.32,4.42,4.41,4.41
26.69,28.00,23.59,28.00,23.59,-23.59,-23.60,-21.78,4.41,4.41,4.41
26.96,27.98,23.57,27.98,23.58,-23.57,-23.59,-22.25,4.41,4.41,4.41
27.23,27.96,23.56,27.96,23.56,-23.55,-23.57,-22.73,4.41,4.40,4.40
27.50,27.94,23.54,27.94,23.54,-23.54,-23.56,-23.23,4.40,4.40,4.40
27.77,27.92,23.51,27.92,23.52,-23.52,-23.55,-23.74,4.40,4.40,4.41
28.05,27.90,23.49,27.90,23.50,-23.50,-23.54,-24.27,4.40,4.40,4.41
28.33,27.88,23.48,27.88,23.47,-23.48,-23.52,-24.80,4.40,4.40,4.40
28.62,27.86,23.46,27.86,23.45,-23.45,-23.51,-25.33,4.41,4.41,4.40
28.90,27.84,23.43,27.84,23.43,-23.43,-23.50,-25.86,4.41,4.41,4.41
29.19,27.82,23.41,27.82,23.41,-23.41,-23.48,-26.39,4.41,4.41,4.41
29.48,27.80,23.39,27.80,23.39,-23.38,-23.47,-26.89,4.42,4.41,4.41
29.78,27.78,23.37,27.78,23.36,-23.36,-23.46,-27.37,4.42,4.42,4.41
30.08,27.75,23.32,27.75,23.34,-23.34,-23.45,-27.80,4.41,4.41,4.43
30.38,27.73,23.32,27.73,23.31,-23.32,-23.43,-28.17,4.41,4.41,4.41
30.68,27.71,23.30,27.71,23.29,-23.30,-23.42,-28.47,4.41,4.41,4.41
30.99,27.69,23.28,27.69,23.28,-23.28,-23.41,-28.68,4.41,4.41,4.41
31.30,27.67,23.26,27.67,23.26,-23.26,-23.39,-28.80,4.41,4.41,4.41
31.61,27.65,23.24,27.65,23.25,-23.25,-23.38,-28.82,4.40,4.40,4.41
31.93,27.63,23.24,27.63,23.24,-23.24,-23.37,-28.75,4.39,4.40,4.40
32.24,27.62,23.23,27.62,23.23,-23.22,-23.35,-28.59,4.40,4.39,4.39
32.57,27.60,23.22,27.60,23.22,-23.21,-23.34,-28.36,4.39,4.39,4.38
32.89,27.58,23.20,27.58,23.20,-23.20,-23.33,-28.08,4.38,4.38,4.38
33.22,27.56,23.18,27.56,23.18,-23.19,-23.31,-27.77,4.37,4.37,4.38
33.55,27.54,23.17,27.54,23.17,-23.17,-23.30,-27.42,4.37,4.37,4.37
33.89,27.52,23.16,27.52,23.16,-23.16,-23.29,-27.07,4.36,4.36,4.36
34.23,27.50,23.15,27.50,23.15,-23.15,-23.27,-26.71,4.35,4.35,4.35
34.57,27.48,23.13,27.48,23.13,-23.13,-23.26,-26.35,4.35,4.34,4.35
34.92,27.45,23.12,27.46,23.12,-23.12,-23.25,-26.00,4.33,4.33,4.33
35.27,27.44,23.10,27.44,23.11,-23.11,-23.23,-25.66,4.33,4.32,4.34
35.62,27.42,23.11,27.42,23.10,-23.10,-23.22,-25.33,4.32,4.31,4.31
35.97,27.40,23.10,27.40,23.10,-23.10,-23.21,-25.01,4.30,4.31,4.30
36.33,27.38,23.09,27.38,23.09,-23.09,-23.19,-24.71,4.29,4.29,4.29
36.70,27.36,23.08,27.36,23.08,-23.08,-23.18,-24.43,4.28,4.28,4.28
37.06,27.34,23.08,27.34,23.07,-23.07,-23.17,-24.16,4.27,4.26,4.26
37.43,27.31,23.06,27.31,23.07,-23.07,-23.15,-23.91,4.24,4.25,4.25
37.81,27.29,23.06,27.29,23.06,-23.06,-23.14,-23.67,4.23,4.23,4.23
38.19,27.27,23.06,27.27,23.05,-23.06,-23.13,-23.45,4.21,4.21,4.21
38.57,27.25,23.05,27.25,23.05,-23.05,-23.11,-23.24,4.20,4.19,4.20
38.95,27.22,23.05,27.22,23.05,-23.05,-23.10,-23.05,4.17,4.17,4.17
39.34,27.20,23.05,27.20,23.05,-23.05,-23.08,-22.87,4.15,4.15,4.15
39.74,27.18,23.05,27.18,23.05,-23.05,-23.07,-22.71,4.13,4.13,4.13
40.14,27.15,23.04,27.15,23.04,-23.04,-23.06,-22.56,4.11,4.11,4.11
40.54,27.13,23.04,27.13,23.04,-23.04,-23.04,-22.42,4.09,4.09,4.09
40.94,27.10,23.03,27.10,23.03,-23.03,-23.03,-22.30,4.07,4.07,4.07
41.35,27.08,23.03,27.08,23.03,-23.02,-23.02,-22.19,4.06,4.05,4.05
41.76,27.05,23.01,27.05,23.01,-23.02,-23.00,-22.09,4.03,4.03,4.04
42.18,27.02,23.00,27.02,23.01,-23.01,-22.99,-22.01,4.01,4.01,4.02
42.60,26.99,23.00,26.99,23.00,-23.00,-22.98,-21.93,3.99,3.99,3.99
43.03,26.97,23.00,26.97,23.00,-22.99,-22.96,-21.87,3.98,3.97,3.97
43.46,26.94,22.99,26.94,22.99,-22.99,-22.95,-21.82,3.95,3.95,3.95
43.90,26.91,22.99,26.91,22.98,-22.98,-22.93,-21.78,3.93,3.93,3.92
44.33,26.87,22.96,26.87,22.97,-22.97,-22.92,-21.75,3.90,3.90,3.90
44.78,26.84,22.96,26.84,22.96,-22.96,-22.91,-21.74,3.88,3.88,3.88
45.23,26.80,22.94,26.80,22.95,-22.96,-22.89,-21.73,3.85,3.85,3.86
45.68,26.77,22.95,26.77,22.95,-22.95,-22.88,-21.74,3.82,3.82,3.82
46.13,26.73,22.95,26.73,22.94,-22.94,-22.87,-21.75,3.79,3.79,3.78
46.60,26.69,22.94,26.69,22.94,-22.94,-22.85,-21.78,3.75,3.76,3.75
47.06,26.66,22.94,26.66,22.93,-22.93,-22.84,-21.82,3.73,3.72,3.72
47.53,26.62,22.92,26.62,22.93,-22.93,-22.82,-21.86,3.69,3.69,3.70
48.01,26.58,22.93,26.58,22.93,-22.92,-22.81,-21.92,3.66,3.66,3.65
48.49,26.54,22.92,26.54,22.92,-22.92,-22.80,-21.99,3.62,3.62,3.62
48.97,26.49,22.92,26.49,22.91,-22.91,-22.78,-22.07,3.58,3.58,3.57
49.46,26.44,22.90,26.44,22.90,-22.91,-22.77,-22.15,3.53,3.53,3.54
49.96,26.39,22.90,26.40,22.89,-22.90,-22.75,-22.25,3.49,3.50,3.49
50.46,26.36,22.89,26.36,22.89,-22.89,-22.74,-22.35,3.47,3.47,3.47
50.96,26.32,22.88,26.32,22.88,-22.88,-22.72,-22.47,3.44,3.44,3.44
51.47,26.28,22.87,26.28,22.88,-22.87,-22.71,-22.59,3.41,3.41,3.41
51.99,26.24,22.87,26.24,22.86,-22.86,-22.69,-22.72,3.38,3.38,3.37
52.51,26.19,22.85,26.19,22.85,-22.85,-22.68,-22.85,3.34,3.34,3.34
53.03,26.14,22.83,26.14,22.83,-22.84,-22.67,-22.99,3.30,3.30,3.32
53.56,26.09,22.82,26.09,22.82,-22.83,-22.65,-23.14,3.26,3.26,3.27
54.10,26.04,22.80,26.04,22.81,-22.82,-22.64,-23.29,3.22,3.23,3.24
54.64,26.00,22.80,26.00,22.81,-22.80,-22.62,-23.44,3.20,3.20,3.20
55.18,25.96,22.81,25.96,22.80,-22.79,-22.61,-23.60,3.17,3.17,3.15
55.74,25.91,22.79,25.91,22.79,-22.78,-22.59,-23.75,3.13,3.13,3.12
56.29,25.86,22.76,25.86,22.77,-22.76,-22.58,-23.91,3.10,3.10,3.10
56.86,25.81,22.74,25.81,22.74,-22.74,-22.56,-24.05,3.07,3.07,3.07
57.42,25.76,22.73,25.76,22.72,-22.72,-22.54,-24.19,3.04,3.04,3.03
58.00,25.71,22.71,25.71,22.70,-22.70,-22.53,-24.33,3.01,3.01,3.00
58.58,25.66,22.67,25.66,22.67,-22.68,-22.51,-24.44,2.98,2.98,3.00
59.16,25.61,22.64,25.61,22.65,-22.66,-22.50,-24.55,2.95,2.96,2.96
59.76,25.57,22.64,25.57,22.64,-22.65,-22.48,-24.63,2.93,2.92,2.93
60.35,25.53,22.64,25.52,22.63,-22.63,-22.47,-24.70,2.90,2.89,2.89
60.96,25.47,22.62,25.47,22.63,-22.63,-22.45,-24.74,2.84,2.85,2.85
61.57,25.42,22.62,25.42,22.62,-22.62,-22.43,-24.76,2.80,2.80,2.80
62.18,25.38,22.63,25.37,22.62,-22.62,-22.42,-24.75,2.76,2.76,2.75
62.80,25.33,22.62,25.33,22.62,-22.62,-22.40,-24.72,2.71,2.71,2.71
63.43,25.28,22.62,25.28,22.62,-22.61,-22.38,-24.66,2.67,2.67,2.66
64.07,25.24,22.61,25.24,22.61,-22.60,-22.37,-24.58,2.64,2.63,2.63
64.71,25.19,22.60,25.19,22.60,-22.60,-22.35,-24.47,2.59,2.59,2.59
65.35,25.14,22.59,25.14,22.59,-22.59,-22.33,-24.34,2.55,2.55,2.55
66.01,25.09,22.57,25.09,22.57,-22.58,-22.31,-24.19,2.51,2.51,2.52
66.67,25.04,22.55,25.04,22.56,-22.56,-22.30,-24.02,2.48,2.48,2.49
67.33,24.99,22.55,24.99,22.55,-22.55,-22.28,-23.83,2.44,2.44,2.44
68.01,24.94,22.54,24.94,22.54,-22.54,-22.26,-23.64,2.40,2.40,2.40
68.69,24.88,22.52,24.88,22.52,-22.52,-22.24,-23.43,2.36,2.36,2.36
69.37,24.83,22.51,24.83,22.51,-22.51,-22.22,-23.22,2.32,2.32,2.32
70.07,24.78,22.49,24.78,22.49,-22.50,-22.21,-23.01,2.28,2.28,2.29
70.77,24.73,22.48,24.73,22.48,-22.48,-22.19,-22.79,2.25,2.24,2.25
71.48,24.67,22.47,24.67,22.47,-22.47,-22.17,-22.57,2.20,2.20,2.20
72.19,24.61,22.45,24.61,22.46,-22.45,-22.15,-22.36,2.16,2.16,2.16
72.91,24.56,22.44,24.56,22.44,-22.44,-22.13,-22.15,2.12,2.12,2.12
73.64,24.50,22.43,24.50,22.42,-22.42,-22.11,-21.94,2.08,2.08,2.07
74.38,24.44,22.41,24.44,22.40,-22.40,-22.09,-21.73,2.04,2.04,2.04
75.12,24.38,22.37,24.38,22.38,-22.37,-22.07,-21.54,2.01,2.01,2.01
75.87,24.33,22.35,24.32,22.35,-22.35,-22.05,-21.35,1.98,1.97,1.98
76.63,24.26,22.31,24.26,22.32,-22.32,-22.03,-21.17,1.94,1.94,1.95
77.40,24.20,22.29,24.20,22.29,-22.29,-22.01,-21.00,1.91,1.91,1.91
78.17,24.15,22.27,24.14,22.26,-22.26,-21.99,-20.83,1.89,1.88,1.88
78.95,24.08,22.22,24.09,22.23,-22.23,-21.97,-20.68,1.85,1.86,1.86
79.74,24.04,22.21,24.03,22.20,-22.20,-21.95,-20.54,1.84,1.83,1.83
80.54,23.98,22.18,23.97,22.17,-22.17,-21.92,-20.40,1.81,1.80,1.80
81.35,23.91,22.14,23.92,22.14,-22.14,-21.90,-20.28,1.77,1.78,1.77
82.16,23.85,22.10,23.85,22.11,-22.11,-21.88,-20.16,1.74,1.74,1.75
82.98,23.79,22.08,23.79,22.07,-22.08,-21.86,-20.06,1.71,1.71,1.71
83.81,23.72,22.05,23.72,22.05,-22.05,-21.83,-19.96,1.67,1.67,1.67
84.65,23.66,22.02,23.66,22.02,-22.02,-21.81,-19.88,1.64,1.64,1.64
85.50,23.60,22.00,23.60,21.99,-21.99,-21.79,-19.81,1.61,1.61,1.60
86.35,23.54,21.97,23.54,21.96,-21.96,-21.76,-19.75,1.58,1.57,1.57
87.22,23.47,21.93,23.47,21.93,-21.94,-21.74,-19.70,1.53,1.54,1.54
88.09,23.41,21.91,23.41,21.90,-21.91,-21.72,-19.66,1.50,1.50,1.50
88.97,23.34,21.87,23.34,21.88,-21.88,-21.69,-19.63,1.46,1.47,1.47
89.86,23.28,21.85,23.28,21.85,-21.85,-21.67,-19.61,1.43,1.43,1.43
90.76,23.22,21.83,23.22,21.82,-21.82,-21.64,-19.60,1.41,1.40,1.39
91.66,23.15,21.79,23.15,21.79,-21.78,-21.62,-19.60,1.37,1.36,1.36
92.58,23.07,21.75,23.07,21.75,-21.75,-21.59,-19.62,1.32,1.32,1.32
93.51,23.00,21.71,23.00,21.71,-21.72,-21.56,-19.64,1.28,1.28,1.29
94.44,22.93,21.68,22.93,21.68,-21.69,-21.54,-19.68,1.24,1.24,1.25
95.39,22.86,21.65,22.86,21.65,-21.66,-21.51,-19.72,1.20,1.20,1.21
96.34,22.79,21.63,22.79,21.62,-21.62,-21.48,-19.78,1.17,1.17,1.16
97.30,22.72,21.59,22.72,21.60,-21.59,-21.46,-19.85,1.13,1.13,1.13
98.28,22.65,21.56,22.65,21.57,-21.55,-21.43,-19.92,1.10,1.10,1.09
99.26,22.57,21.53,22.57,21.52,-21.51,-21.40,-20.01,1.06,1.05,1.04
100.25,22.49,21.49,22.49,21.47,-21.48,-21.37,-20.11,1.01,1.01,1.00
101.25,22.40,21.41,22.41,21.43,-21.44,-21.34,-20.22,0.96,0.96,0.99
102.27,22.33,21.38,22.34,21.39,-21.40,-21.31,-20.34,0.93,0.93,0.95
103.29,22.28,21.37,22.28,21.36,-21.37,-21.28,-20.46,0.91,0.91,0.91
104.32,22.23,21.34,22.22,21.33,-21.33,-21.25,-20.60,0.90,0.89,0.89
105.37,22.15,21.30,22.16,21.30,-21.29,-21.22,-20.74,0.86,0.87,0.86
106.42,22.08,21.25,22.08,21.26,-21.25,-21.19,-20.89,0.83,0.83,0.83
107.48,22.01,21.22,22.00,21.21,-21.21,-21.16,-21.05,0.80,0.80,0.79
108.56,21.93,21.17,21.93,21.17,-21.16,-21.13,-21.21,0.77,0.77,0.76
109.64,21.84,21.12,21.85,21.12,-21.11,-21.10,-21.38,0.72,0.73,0.72
110.74,21.77,21.07,21.76,21.07,-21.07,-21.06,-21.54,0.70,0.69,0.70
111.85,21.68,21.02,21.68,21.02,-21.03,-21.03,-21.71,0.65,0.65,0.66
112.97,21.59,20.97,21.59,20.97,-20.99,-21.00,-21.88,0.60,0.61,0.62
114.10,21.52,20.92,21.52,20.93,-20.95,-20.96,-22.04,0.57,0.57,0.60
115.24,21.44,20.89,21.45,20.90,-20.91,-20.93,-22.19,0.53,0.54,0.55
116.39,21.40,20.90,21.40,20.88,-20.87,-20.89,-22.33,0.53,0.52,0.50
117.55,21.34,20.86,21.33,20.86,-20.84,-20.86,-22.46,0.50,0.49,0.48
118.73,21.26,20.83,21.26,20.82,-20.80,-20.82,-22.57,0.46,0.46,0.43
119.92,21.17,20.76,21.17,20.76,-20.76,-20.79,-22.66,0.41,0.41,0.41
121.12,21.08,20.70,21.10,20.72,-20.72,-20.75,-22.73,0.36,0.37,0.38
122.33,21.03,20.68,21.03,20.67,-20.68,-20.71,-22.77,0.35,0.34,0.35
123.55,20.97,20.65,20.95,20.63,-20.64,-20.68,-22.78,0.33,0.31,0.32
124.79,20.87,20.57,20.88,20.59,-20.59,-20.64,-22.76,0.28,0.28,0.30
126.03,20.79,20.54,20.81,20.55,-20.55,-20.60,-22.71,0.24,0.25,0.25
127.29,20.74,20.52,20.74,20.51,-20.51,-20.56,-22.64,0.23,0.23,0.22
128.57,20.68,20.49,20.66,20.47,-20.47,-20.52,-22.53,0.21,0.19,0.19
129.85,20.58,20.43,20.58,20.43,-20.43,-20.48,-22.39,0.15,0.16,0.15
131.15,20.48,20.37,20.50,20.39,-20.38,-20.44,-22.23,0.10,0.12,0.11
132.46,20.43,20.35,20.41,20.34,-20.34,-20.40,-22.05,0.09,0.07,0.08
133.79,20.34,20.30,20.33,20.29,-20.29,-20.36,-21.86,0.05,0.04,0.04
135.12,20.22,20.22,20.24,20.24,-20.24,-20.32,-21.64,-0.02,0.00,0.00
136.48,20.17,20.18,20.16,20.18,-20.19,-20.27,-21.42,-0.02,-0.03,-0.01
137.84,20.08,20.13,20.09,20.14,-20.14,-20.23,-21.18,-0.06,-0.05,-0.05
139.22,20.02,20.11,20.01,20.09,-20.08,-20.19,-20.94,-0.06,-0.08,-0.09
140.61,19.92,20.04,19.91,20.04,-20.03,-20.14,-20.70,-0.11,-0.11,-0.12
142.02,19.80,19.95,19.82,19.97,-19.97,-20.10,-20.45,-0.17,-0.15,-0.15
143.44,19.74,19.92,19.73,19.90,-19.91,-20.05,-20.21,-0.17,-0.19,-0.18
144.87,19.64,19.83,19.65,19.85,-19.86,-20.01,-19.97,-0.22,-0.21,-0.19
146.32,19.58,19.80,19.58,19.80,-19.80,-19.96,-19.73,-0.22,-0.22,-0.22
147.78,19.49,19.73,19.49,19.74,-19.74,-19.91,-19.50,-0.25,-0.24,-0.24
149.26,19.42,19.69,19.41,19.68,-19.67,-19.87,-19.28,-0.25,-0.26,-0.27
150.75,19.32,19.62,19.32,19.62,-19.61,-19.82,-19.06,-0.29,-0.29,-0.30
152.26,19.24,19.55,19.24,19.56,-19.56,-19.77,-18.85,-0.32,-0.32,-0.31
153.78,19.15,19.49,19.15,19.49,-19.50,-19.72,-18.66,-0.35,-0.34,-0.34
155.32,19.08,19.45,19.08,19.44,-19.44,-19.67,-18.47,-0.36,-0.36,-0.37
156.88,18.99,19.38,18.99,19.38,-19.39,-19.62,-18.28,-0.40,-0.40,-0.39
158.44,18.92,19.34,18.91,19.33,-19.34,-19.57,-18.11,-0.42,-0.43,-0.42
160.03,18.82,19.27,18.83,19.28,-19.29,-19.52,-17.95,-0.47,-0.46,-0.45
161.63,18.76,19.24,18.76,19.24,-19.25,-19.47,-17.80,-0.49,-0.48,-0.48
163.24,18.71,19.23,18.69,19.21,-19.21,-19.42,-17.66,-0.50,-0.51,-0.52
164.88,18.62,19.17,18.63,19.18,-19.16,-19.36,-17.53,-0.54,-0.53,-0.55
166.53,18.55,19.13,18.55,19.13,-19.12,-19.31,-17.41,-0.57,-0.57,-0.58
168.19,18.49,19.10,18.47,19.08,-19.08,-19.26,-17.31,-0.59,-0.61,-0.61
169.87,18.39,19.03,18.40,19.04,-19.04,-19.20,-17.21,-0.65,-0.64,-0.64
171.57,18.32,18.99,18.32,19.00,-19.00,-19.15,-17.12,-0.68,-0.68,-0.67
173.29,18.26,18.97,18.24,18.95,-18.96,-19.09,-17.04,-0.70,-0.72,-0.71
175.02,18.16,18.90,18.17,18.91,-18.92,-19.03,-16.98,-0.76,-0.74,-0.74
176.77,18.10,18.88,18.10,18.88,-18.87,-18.98,-16.92,-0.77,-0.77,-0.78
178.54,18.04,18.84,18.04,18.84,-18.83,-18.92,-16.88,-0.79,-0.79,-0.80
180.32,17.97,18.81,17.96,18.80,-18.79,-18.86,-16.84,-0.82,-0.83,-0.84
182.13,17.89,18.77,17.88,18.75,-18.75,-18.80,-16.82,-0.86,-0.87,-0.87
183.95,17.77,18.68,17.79,18.70,-18.71,-18.74,-16.80,-0.94,-0.92,-0.91
185.79,17.71,18.66,17.71,18.65,-18.67,-18.68,-16.80,-0.96,-0.96,-0.95
187.65,17.63,18.61,17.63,18.61,-18.62,-18.62,-16.80,-0.99,-0.99,-0.98
189.52,17.57,18.59,17.57,18.58,-18.58,-18.56,-16.82,-1.01,-1.01,-1.02
191.42,17.50,18.55,17.50,18.54,-18.54,-18.50,-16.85,-1.04,-1.04,-1.05
193.33,17.43,18.51,17.43,18.51,-18.50,-18.44,-16.88,-1.07,-1.07,-1.08
195.27,17.35,18.46,17.35,18.47,-18.46,-18.37,-16.93,-1.11,-1.11,-1.11
197.22,17.28,18.43,17.28,18.42,-18.42,-18.31,-16.98,-1.14,-1.14,-1.15
199.19,17.20,18.37,17.20,18.38,-18.38,-18.25,-17.05,-1.18,-1.17,-1.17
201.18,17.13,18.33,17.13,18.33,-18.33,-18.18,-17.12,-1.20,-1.20,-1.20
203.19,17.06,18.28,17.06,18.28,-18.27,-18.12,-17.20,-1.21,-1.22,-1.22
205.23,16.98,18.23,16.98,18.23,-18.22,-18.05,-17.29,-1.24,-1.24,-1.24
207.28,16.90,18.16,16.90,18.17,-18.17,-17.98,-17.39,-1.26,-1.27,-1.26
209.35,16.82,18.11,16.82,18.11,-18.11,-17.92,-17.49,-1.29,-1.29,-1.29
211.44,16.73,18.05,16.74,18.05,-18.06,-17.85,-17.60,-1.33,-1.32,-1.32
213.56,16.66,17.99,16.66,17.99,-18.00,-17.78,-17.72,-1.34,-1.34,-1.33
215.69,16.58,17.93,16.58,17.94,-17.94,-17.71,-17.84,-1.36,-1.36,-1.35
217.85,16.51,17.89,16.51,17.89,-17.89,-17.64,-17.96,-1.38,-1.38,-1.38
220.03,16.44,17.84,16.44,17.84,-17.83,-17.57,-18.09,-1.39,-1.39,-1.40
222.23,16.36,17.78,16.36,17.78,-17.77,-17.50,-18.21,-1.41,-1.41,-1.42
224.45,16.28,17.72,16.27,17.71,-17.71,-17.43,-18.33,-1.43,-1.43,-1.44
226.70,16.19,17.64,16.19,17.64,-17.64,-17.35,-18.45,-1.45,-1.46,-1.45
228.96,16.09,17.55,16.11,17.57,-17.58,-17.28,-18.56,-1.49,-1.47,-1.46
231.25,16.03,17.51,16.02,17.50,-17.51,-17.21,-18.67,-1.48,-1.49,-1.48
233.57,15.95,17.44,15.94,17.43,-17.43,-17.13,-18.76,-1.48,-1.50,-1.49
235.90,15.84,17.35,15.85,17.36,-17.36,-17.06,-18.84,-1.52,-1.50,-1.51
238.26,15.77,17.29,15.77,17.28,-17.28,-16.98,-18.90,-1.51,-1.51,-1.52
240.64,15.68,17.19,15.68,17.20,-17.19,-16.91,-18.94,-1.51,-1.51,-1.51
243.05,15.60,17.12,15.59,17.12,-17.11,-16.83,-18.96,-1.51,-1.51,-1.52
245.48,15.50,17.03,15.50,17.03,-17.02,-16.75,-18.96,-1.52,-1.52,-1.53
247.93,15.38,16.92,15.39,16.93,-16.93,-16.68,-18.93,-1.55,-1.53,-1.54
250.41,15.30,16.83,15.29,16.82,-16.83,-16.60,-18.88,-1.53,-1.54,-1.53
252.92,15.18,16.71,15.20,16.73,-16.74,-16.52,-18.80,-1.56,-1.54,-1.53
255.45,15.11,16.64,15.10,16.63,-16.64,-16.44,-18.69,-1.53,-1.53,-1.53
258.00,15.02,16.55,15.01,16.54,-16.54,-16.36,-18.56,-1.52,-1.53,-1.53
260.58,14.91,16.45,14.92,16.45,-16.44,-16.28,-18.41,-1.53,-1.53,-1.54
263.19,14.82,16.35,14.81,16.35,-16.35,-16.19,-18.23,-1.53,-1.53,-1.53
265.82,14.71,16.25,14.72,16.25,-16.25,-16.11,-18.04,-1.54,-1.54,-1.54
268.48,14.62,16.15,14.62,16.16,-16.16,-16.03,-17.83,-1.54,-1.54,-1.53
271.16,14.53,16.07,14.52,16.06,-16.07,-15.95,-17.61,-1.53,-1.54,-1.54
273.87,14.42,15.95,14.43,15.97,-15.97,-15.86,-17.37,-1.55,-1.54,-1.53
276.61,14.33,15.87,14.33,15.88,-15.88,-15.78,-17.13,-1.55,-1.55,-1.54
279.38,14.25,15.80,14.25,15.79,-15.79,-15.69,-16.88,-1.54,-1.54,-1.55
282.17,14.16,15.70,14.16,15.70,-15.70,-15.61,-16.63,-1.54,-1.54,-1.54
284.99,14.08,15.61,14.07,15.61,-15.60,-15.52,-16.38,-1.52,-1.53,-1.53
287.84,13.97,15.50,13.98,15.52,-15.51,-15.43,-16.12,-1.54,-1.53,-1.53
290.72,13.89,15.43,13.89,15.42,-15.42,-15.34,-15.87,-1.53,-1.53,-1.54
293.63,13.80,15.34,13.79,15.33,-15.33,-15.26,-15.62,-1.53,-1.53,-1.54
296.57,13.70,15.22,13.70,15.23,-15.23,-15.17,-15.37,-1.53,-1.53,-1.52
299.53,13.61,15.13,13.61,15.13,-15.14,-15.08,-15.13,-1.53,-1.53,-1.52
302.53,13.53,15.05,13.53,15.05,-15.05,-14.99,-14.90,-1.52,-1.52,-1.52
305.55,13.45,14.96,13.45,14.96,-14.96,-14.90,-14.67,-1.51,-1.51,-1.51
308.61,13.37,14.87,13.37,14.87,-14.88,-14.80,-14.44,-1.51,-1.51,-1.50
311.69,13.29,14.79,13.30,14.79,-14.80,-14.71,-14.23,-1.50,-1.50,-1.50
314.81,13.23,14.72,13.23,14.72,-14.72,-14.62,-14.02,-1.49,-1.49,-1.49
317.96,13.16,14.64,13.16,14.64,-14.64,-14.53,-13.82,-1.48,-1.48,-1.48
321.14,13.09,14.57,13.09,14.57,-14.57,-14.43,-13.62,-1.48,-1.48,-1.48
324.35,13.02,14.50,13.02,14.49,-14.49,-14.34,-13.44,-1.47,-1.47,-1.48
327.59,12.95,14.40,12.96,14.42,-14.42,-14.24,-13.26,-1.47,-1.47,-1.45
330.87,12.90,14.35,12.90,14.35,-14.35,-14.15,-13.09,-1.45,-1.46,-1.45
334.18,12.84,14.30,12.84,14.28,-14.28,-14.05,-12.93,-1.44,-1.45,-1.46
337.52,12.77,14.21,12.77,14.22,-14.21,-13.95,-12.78,-1.44,-1.44,-1.44
340.90,12.71,14.14,12.71,14.14,-14.14,-13.86,-12.64,-1.43,-1.43,-1.43
344.30,12.64,14.06,12.64,14.06,-14.07,-13.76,-12.50,-1.43,-1.43,-1.42
347.75,12.57,13.99,12.58,13.99,-13.99,-13.66,-12.38,-1.42,-1.41,-1.42
351.23,12.51,13.92,12.51,13.91,-13.91,-13.56,-12.26,-1.40,-1.40,-1.41
354.74,12.44,13.83,12.43,13.83,-13.82,-13.46,-12.15,-1.38,-1.39,-1.39
358.28,12.34,13.73,12.35,13.74,-13.73,-13.36,-12.04,-1.39,-1.38,-1.39
361.87,12.26,13.65,12.26,13.64,-13.64,-13.26,-11.95,-1.38,-1.38,-1.39
365.49,12.16,13.53,12.16,13.54,-13.54,-13.16,-11.86,-1.38,-1.37,-1.37
369.14,12.07,13.44,12.07,13.44,-13.44,-13.05,-11.78,-1.37,-1.37,-1.37
