frequency,raw,error,smoothed,error_smoothed,equalization,parametric_eq,fixed_band_eq,equalized_raw,equalized_smoothed,target
20.00,9.65,1.90,9.65,1.90,-1.90,-2.12,-1.28,7.76,7.76,7.76
20.20,9.67,1.95,9.67,1.94,-1.94,-2.14,-1.32,7.74,7.73,7.73
20.40,9.68,1.98,9.69,1.98,-1.98,-2.16,-1.36,7.70,7.71,7.71
20.61,9.70,2.02,9.70,2.02,-2.02,-2.18,-1.39,7.68,7.69,7.69
20.81,9.72,2.06,9.72,2.05,-2.06,-2.20,-1.43,7.67,7.66,7.67
21.02,9.73,2.09,9.74,2.09,-2.09,-2.22,-1.47,7.64,7.64,7.65
21.23,9.75,2.13,9.75,2.13,-2.13,-2.23,-1.51,7.62,7.62,7.63
21.44,9.77,2.17,9.77,2.16,-2.16,-2.25,-1.55,7.61,7.61,7.61
21.66,9.78,2.20,9.79,2.20,-2.20,-2.27,-1.60,7.59,7.59,7.59
21.87,9.80,2.23,9.80,2.23,-2.23,-2.29,-1.64,7.57,7.57,7.57
22.09,9.82,2.27,9.82,2.26,-2.26,-2.30,-1.68,7.56,7.56,7.55
22.31,9.83,2.29,9.84,2.29,-2.29,-2.32,-1.73,7.54,7.55,7.54
22.54,9.85,2.32,9.85,2.32,-2.32,-2.34,-1.78,7.53,7.53,7.53
22.76,9.86,2.34,9.87,2.34,-2.35,-2.36,-1.83,7.52,7.52,7.52
22.99,9.88,2.37,9.88,2.37,-2.37,-2.37,-1.88,7.51,7.51,7.51
23.22,9.90,2.40,9.90,2.40,-2.40,-2.39,-1.93,7.50,7.50,7.50
23.45,9.91,2.42,9.92,2.42,-2.42,-2.41,-1.98,7.49,7.49,7.49
23.69,9.93,2.45,9.93,2.45,-2.45,-2.42,-2.03,7.49,7.49,7.48
23.92,9.94,2.46,9.95,2.47,-2.47,-2.44,-2.09,7.48,7.48,7.48
24.16,9.96,2.49,9.96,2.49,-2.49,-2.46,-2.14,7.48,7.47,7.47
24.40,9.97,2.51,9.97,2.51,-2.51,-2.47,-2.20,7.47,7.46,7.47
24.65,9.98,2.53,9.99,2.52,-2.53,-2.49,-2.25,7.46,7.46,7.46
24.89,9.99,2.54,10.00,2.54,-2.55,-2.51,-2.31,7.45,7.45,7.46
25.14,10.01,2.57,10.01,2.56,-2.57,-2.52,-2.36,7.45,7.44,7.45
25.39,10.02,2.59,10.03,2.59,-2.59,-2.54,-2.42,7.44,7.44,7.44
25.65,10.04,2.61,10.04,2.61,-2.61,-2.55,-2.48,7.44,7.44,7.43
25.91,10.05,2.63,10.06,2.63,-2.63,-2.57,-2.54,7.43,7.43,7.42
26.16,10.07,2.65,10.07,2.65,-2.65,-2.58,-2.59,7.43,7.43,7.42
26.43,10.08,2.66,10.08,2.66,-2.66,-2.60,-2.65,7.42,7.42,7.42
26.69,10.09,2.68,10.09,2.68,-2.68,-2.61,-2.70,7.41,7.41,7.41
26.96,10.10,2.69,10.10,2.70,-2.70,-2.63,-2.76,7.40,7.40,7.41
27.23,10.11,2.71,10.12,2.71,-2.72,-2.64,-2.81,7.40,7.40,7.40
27.50,10.13,2.74,10.13,2.73,-2.73,-2.66,-2.86,7.40,7.40,7.40
27.77,10.14,2.75,10.14,2.75,-2.75,-2.67,-2.92,7.39,7.39,7.40
28.05,10.15,2.77,10.15,2.76,-2.76,-2.69,-2.96,7.39,7.39,7.39
28.33,10.16,2.78,10.16,2.78,-2.78,-2.70,-3.01,7.38,7.38,7.38
28.62,10.17,2.79,10.17,2.80,-2.79,-2.71,-3.05,7.38,7.38,7.38
28.90,10.18,2.81,10.18,2.81,-2.81,-2.73,-3.09,7.38,7.38,7.37
29.19,10.19,2.82,10.19,2.82,-2.82,-2.74,-3.13,7.38,7.37,7.37
29.48,10.19,2.83,10.20,2.83,-2.83,-2.75,-3.17,7.36,7.37,7.37
29.78,10.20,2.84,10.20,2.84,-2.84,-2.77,-3.20,7.36,7.36,7.37
30.08,10.21,2.85,10.21,2.85,-2.85,-2.78,-3.23,7.36,7.36,7.37
30.38,10.21,2.86,10.22,2.86,-2.86,-2.79,-3.25,7.36,7.36,7.35
30.68,10.22,2.87,10.22,2.87,-2.87,-2.80,-3.27,7.36,7.35,7.35
30.99,10.22,2.87,10.23,2.88,-2.88,-2.82,-3.29,7.35,7.35,7.35
31.30,10.23,2.89,10.23,2.89,-2.89,-2.83,-3.30,7.35,7.35,7.35
31.61,10.23,2.90,10.24,2.89,-2.90,-2.84,-3.31,7.34,7.34,7.34
31.93,10.24,2.91,10.24,2.91,-2.91,-2.85,-3.31,7.34,7.33,7.33
32.24,10.24,2.91,10.25,2.92,-2.92,-2.86,-3.32,7.32,7.33,7.33
32.57,10.25,2.93,10.25,2.93,-2.93,-2.87,-3.31,7.32,7.32,7.32
32.89,10.26,2.95,10.26,2.94,-2.94,-2.89,-3.31,7.32,7.32,7.32
33.22,10.26,2.95,10.27,2.96,-2.95,-2.90,-3.30,7.31,7.32,7.32
33.55,10.27,2.97,10.27,2.96,-2.96,-2.91,-3.29,7.31,7.31,7.30
33.89,10.27,2.97,10.27,2.97,-2.97,-2.92,-3.27,7.30,7.30,7.30
34.23,10.27,2.98,10.27,2.98,-2.98,-2.93,-3.25,7.29,7.29,7.30
34.57,10.27,2.99,10.27,2.98,-2.99,-2.94,-3.24,7.29,7.29,7.29
34.92,10.27,2.99,10.27,2.99,-2.99,-2.95,-3.21,7.28,7.28,7.28
35.27,10.27,2.99,10.27,3.00,-3.00,-2.96,-3.19,7.28,7.28,7.28
35.62,10.27,3.01,10.27,3.00,-3.00,-2.97,-3.17,7.27,7.27,7.27
35.97,10.27,3.01,10.27,3.01,-3.00,-2.98,-3.14,7.27,7.27,7.26
36.33,10.26,3.00,10.27,3.01,-3.01,-2.98,-3.12,7.26,7.26,7.26
36.70,10.26,3.01,10.26,3.01,-3.01,-2.99,-3.09,7.26,7.25,7.26
37.06,10.25,3.00,10.26,3.01,-3.01,-3.00,-3.06,7.24,7.24,7.25
37.43,10.25,3.02,10.25,3.01,-3.02,-3.01,-3.04,7.24,7.24,7.24
37.81,10.25,3.02,10.25,3.02,-3.02,-3.02,-3.01,7.23,7.23,7.23
38.19,10.25,3.02,10.25,3.03,-3.03,-3.03,-2.99,7.23,7.23,7.23
38.57,10.25,3.04,10.25,3.04,-3.04,-3.04,-2.96,7.22,7.22,7.22
38.95,10.25,3.04,10.25,3.04,-3.04,-3.04,-2.94,7.21,7.21,7.21
39.34,10.25,3.06,10.25,3.06,-3.05,-3.05,-2.91,7.20,7.20,7.20
39.74,10.25,3.06,10.25,3.06,-3.06,-3.06,-2.89,7.19,7.19,7.19
40.14,10.25,3.08,10.25,3.07,-3.07,-3.07,-2.87,7.18,7.18,7.18
40.54,10.25,3.08,10.25,3.08,-3.08,-3.07,-2.85,7.17,7.17,7.17
40.94,10.25,3.09,10.25,3.09,-3.09,-3.08,-2.84,7.17,7.17,7.17
41.35,10.25,3.09,10.25,3.09,-3.09,-3.09,-2.82,7.16,7.16,7.16
41.76,10.25,3.10,10.25,3.10,-3.10,-3.10,-2.81,7.16,7.16,7.15
42.18,10.25,3.11,10.25,3.10,-3.10,-3.10,-2.80,7.15,7.15,7.15
42.60,10.25,3.11,10.25,3.11,-3.11,-3.11,-2.79,7.14,7.14,7.14
43.03,10.25,3.11,10.26,3.12,-3.12,-3.12,-2.78,7.13,7.14,7.15
43.46,10.26,3.12,10.26,3.13,-3.13,-3.12,-2.78,7.14,7.14,7.14
43.90,10.27,3.14,10.27,3.14,-3.14,-3.13,-2.77,7.14,7.13,7.13
44.33,10.27,3.15,10.27,3.15,-3.15,-3.14,-2.77,7.13,7.13,7.12
44.78,10.27,3.16,10.27,3.16,-3.16,-3.14,-2.77,7.12,7.12,7.12
45.23,10.27,3.16,10.27,3.17,-3.16,-3.15,-2.78,7.11,7.11,7.11
45.68,10.27,3.17,10.27,3.17,-3.17,-3.15,-2.78,7.10,7.10,7.10
46.13,10.27,3.18,10.27,3.18,-3.18,-3.16,-2.79,7.09,7.09,7.09
46.60,10.26,3.18,10.27,3.18,-3.19,-3.17,-2.80,7.08,7.08,7.08
47.06,10.26,3.19,10.26,3.19,-3.19,-3.17,-2.81,7.07,7.07,7.07
47.53,10.25,3.20,10.25,3.20,-3.19,-3.18,-2.82,7.06,7.06,7.05
48.01,10.24,3.20,10.24,3.20,-3.20,-3.18,-2.84,7.05,7.05,7.05
48.49,10.23,3.20,10.23,3.20,-3.20,-3.19,-2.86,7.04,7.03,7.03
48.97,10.21,3.19,10.22,3.19,-3.19,-3.20,-2.87,7.02,7.02,7.02
49.46,10.20,3.19,10.20,3.19,-3.19,-3.20,-2.89,7.01,7.01,7.01
49.96,10.19,3.19,10.19,3.19,-3.19,-3.21,-2.92,7.01,7.00,7.00
50.46,10.17,3.18,10.17,3.18,-3.18,-3.21,-2.94,6.99,6.99,6.99
50.96,10.15,3.18,10.16,3.18,-3.18,-3.22,-2.96,6.98,6.98,6.98
51.47,10.14,3.17,10.14,3.17,-3.17,-3.23,-2.99,6.97,6.97,6.98
51.99,10.12,3.16,10.12,3.16,-3.17,-3.23,-3.02,6.96,6.96,6.96
52.51,10.10,3.16,10.11,3.16,-3.16,-3.24,-3.05,6.94,6.95,6.95
53.03,10.09,3.16,10.09,3.16,-3.15,-3.24,-3.07,6.94,6.94,6.93
53.56,10.07,3.15,10.07,3.15,-3.15,-3.25,-3.10,6.93,6.93,6.92
54.10,10.05,3.14,10.05,3.14,-3.14,-3.26,-3.13,6.91,6.91,6.91
54.64,10.03,3.13,10.03,3.14,-3.14,-3.26,-3.16,6.90,6.90,6.90
55.18,10.01,3.13,10.02,3.13,-3.13,-3.27,-3.19,6.88,6.88,6.88
55.74,10.00,3.14,10.00,3.13,-3.13,-3.28,-3.22,6.87,6.87,6.87
56.29,9.98,3.12,9.98,3.13,-3.13,-3.28,-3.25,6.86,6.86,6.86
56.86,9.96,3.12,9.97,3.13,-3.12,-3.29,-3.28,6.84,6.84,6.84
57.42,9.95,3.13,9.95,3.12,-3.12,-3.30,-3.30,6.83,6.83,6.82
58.00,9.93,3.12,9.94,3.13,-3.12,-3.30,-3.33,6.81,6.81,6.81
58.58,9.92,3.13,9.92,3.13,-3.13,-3.31,-3.35,6.79,6.79,6.79
59.16,9.91,3.14,9.91,3.13,-3.14,-3.32,-3.38,6.77,6.77,6.77
59.76,9.90,3.14,9.91,3.15,-3.15,-3.33,-3.40,6.75,6.75,6.76
60.35,9.90,3.16,9.91,3.17,-3.17,-3.33,-3.42,6.73,6.73,6.74
60.96,9.91,3.19,9.91,3.19,-3.20,-3.34,-3.43,6.72,6.71,6.72
61.57,9.92,3.23,9.92,3.22,-3.23,-3.35,-3.45,6.70,6.70,6.70
62.18,9.92,3.25,9.93,3.26,-3.25,-3.36,-3.46,6.67,6.68,6.67
62.80,9.94,3.29,9.94,3.29,-3.28,-3.37,-3.47,6.66,6.66,6.65
63.43,9.94,3.32,9.94,3.32,-3.31,-3.38,-3.48,6.63,6.63,6.62
64.07,9.94,3.35,9.94,3.34,-3.34,-3.39,-3.49,6.61,6.60,6.60
64.71,9.93,3.36,9.94,3.36,-3.36,-3.40,-3.50,6.57,6.57,6.57
65.35,9.92,3.38,9.93,3.38,-3.38,-3.41,-3.50,6.54,6.55,6.54
66.01,9.91,3.40,9.91,3.39,-3.39,-3.42,-3.50,6.52,6.52,6.52
66.67,9.89,3.41,9.89,3.41,-3.41,-3.43,-3.50,6.49,6.49,6.49
67.33,9.87,3.42,9.87,3.42,-3.42,-3.44,-3.50,6.45,6.45,6.46
68.01,9.85,3.43,9.85,3.43,-3.43,-3.45,-3.50,6.42,6.42,6.43
68.69,9.83,3.44,9.83,3.44,-3.44,-3.46,-3.50,6.39,6.39,6.40
69.37,9.81,3.45,9.81,3.45,-3.45,-3.47,-3.49,6.37,6.37,6.36
70.07,9.79,3.46,9.79,3.46,-3.46,-3.48,-3.49,6.34,6.34,6.33
70.77,9.76,3.47,9.77,3.47,-3.46,-3.50,-3.48,6.30,6.30,6.30
71.48,9.74,3.47,9.74,3.47,-3.47,-3.51,-3.48,6.27,6.27,6.27
72.19,9.71,3.48,9.71,3.48,-3.48,-3.52,-3.47,6.23,6.23,6.24
72.91,9.68,3.48,9.69,3.49,-3.49,-3.54,-3.47,6.19,6.20,6.20
73.64,9.66,3.50,9.66,3.50,-3.50,-3.55,-3.46,6.16,6.16,6.16
74.38,9.64,3.51,9.65,3.51,-3.52,-3.57,-3.46,6.12,6.13,6.13
75.12,9.63,3.54,9.63,3.53,-3.54,-3.58,-3.46,6.09,6.09,6.10
75.87,9.62,3.56,9.62,3.56,-3.56,-3.60,-3.46,6.06,6.06,6.07
76.63,9.61,3.59,9.62,3.59,-3.59,-3.61,-3.46,6.02,6.03,6.02
77.40,9.61,3.63,9.61,3.62,-3.62,-3.63,-3.46,6.00,5.99,5.98
78.17,9.60,3.65,9.60,3.65,-3.65,-3.65,-3.47,5.95,5.95,5.95
78.95,9.58,3.68,9.59,3.68,-3.68,-3.66,-3.47,5.90,5.91,5.91
79.74,9.57,3.71,9.57,3.71,-3.71,-3.68,-3.48,5.86,5.86,5.86
80.54,9.56,3.73,9.56,3.74,-3.74,-3.70,-3.49,5.82,5.82,5.83
81.35,9.55,3.77,9.55,3.77,-3.77,-3.72,-3.51,5.78,5.78,5.78
82.16,9.54,3.81,9.54,3.80,-3.79,-3.74,-3.52,5.75,5.74,5.74
82.98,9.51,3.82,9.52,3.83,-3.82,-3.76,-3.54,5.70,5.70,5.69
83.81,9.49,3.85,9.49,3.85,-3.84,-3.78,-3.56,5.65,5.65,5.64
84.65,9.46,3.86,9.46,3.86,-3.86,-3.80,-3.58,5.60,5.60,5.60
85.50,9.43,3.88,9.43,3.88,-3.88,-3.82,-3.61,5.55,5.55,5.55
86.35,9.40,3.90,9.40,3.90,-3.91,-3.84,-3.64,5.50,5.50,5.50
87.22,9.37,3.92,9.38,3.92,-3.93,-3.87,-3.67,5.44,5.45,5.45
88.09,9.35,3.95,9.35,3.95,-3.96,-3.89,-3.70,5.40,5.40,5.40
88.97,9.33,3.99,9.33,3.98,-3.99,-3.91,-3.74,5.35,5.35,5.35
89.86,9.31,4.02,9.31,4.02,-4.02,-3.94,-3.78,5.29,5.29,5.30
90.76,9.29,4.05,9.30,4.06,-4.06,-3.96,-3.82,5.24,5.24,5.24
91.66,9.28,4.10,9.28,4.09,-4.09,-3.99,-3.87,5.19,5.19,5.19
92.58,9.26,4.13,9.26,4.13,-4.13,-4.01,-3.92,5.13,5.13,5.13
93.51,9.24,4.17,9.24,4.17,-4.17,-4.04,-3.97,5.08,5.08,5.08
94.44,9.22,4.20,9.22,4.20,-4.20,-4.07,-4.02,5.03,5.03,5.02
95.39,9.20,4.24,9.20,4.24,-4.23,-4.10,-4.08,4.97,4.97,4.97
96.34,9.18,4.27,9.18,4.27,-4.26,-4.12,-4.14,4.93,4.92,4.91
97.30,9.15,4.29,9.15,4.29,-4.29,-4.15,-4.20,4.87,4.87,4.86
98.28,9.12,4.32,9.12,4.31,-4.32,-4.18,-4.26,4.81,4.81,4.81
99.26,9.08,4.33,9.09,4.33,-4.34,-4.21,-4.32,4.74,4.74,4.75
100.25,9.05,4.36,9.06,4.36,-4.38,-4.24,-4.39,4.68,4.68,4.69
101.25,9.03,4.40,9.03,4.40,-4.41,-4.27,-4.46,4.63,4.63,4.64
102.27,9.01,4.44,9.02,4.44,-4.44,-4.30,-4.53,4.58,4.58,4.58
103.29,9.00,4.48,9.00,4.48,-4.47,-4.33,-4.60,4.53,4.53,4.52
104.32,8.98,4.51,8.98,4.52,-4.51,-4.36,-4.67,4.48,4.48,4.47
105.37,8.96,4.55,8.96,4.55,-4.54,-4.39,-4.74,4.42,4.42,4.41
106.42,8.93,4.58,8.93,4.57,-4.57,-4.42,-4.81,4.36,4.36,4.36
107.48,8.90,4.59,8.91,4.60,-4.61,-4.46,-4.88,4.30,4.30,4.31
108.56,8.88,4.63,8.88,4.63,-4.64,-4.49,-4.95,4.25,4.25,4.25
109.64,8.86,4.67,8.86,4.66,-4.66,-4.52,-5.01,4.20,4.19,4.19
110.74,8.83,4.70,8.83,4.69,-4.69,-4.55,-5.08,4.14,4.14,4.14
111.85,8.79,4.71,8.80,4.72,-4.72,-4.58,-5.14,4.07,4.08,4.08
112.97,8.77,4.74,8.77,4.74,-4.75,-4.62,-5.20,4.03,4.02,4.03
114.10,8.74,4.77,8.74,4.77,-4.77,-4.65,-5.26,3.97,3.97,3.98
115.24,8.71,4.79,8.72,4.80,-4.80,-4.68,-5.31,3.92,3.92,3.92
116.39,8.69,4.83,8.69,4.83,-4.82,-4.71,-5.36,3.88,3.88,3.86
117.55,8.66,4.85,8.66,4.85,-4.84,-4.74,-5.41,3.83,3.82,3.82
118.73,8.62,4.86,8.62,4.86,-4.86,-4.77,-5.44,3.77,3.76,3.76
119.92,8.57,4.87,8.58,4.87,-4.88,-4.81,-5.48,3.70,3.70,3.71
121.12,8.53,4.88,8.54,4.89,-4.90,-4.84,-5.50,3.64,3.65,3.65
122.33,8.52,4.91,8.51,4.91,-4.92,-4.87,-5.53,3.61,3.60,3.61
123.55,8.49,4.94,8.49,4.93,-4.94,-4.90,-5.54,3.56,3.56,3.56
124.79,8.46,4.95,8.47,4.96,-4.96,-4.93,-5.55,3.51,3.51,3.52
126.03,8.44,4.98,8.44,4.98,-4.97,-4.95,-5.55,3.47,3.47,3.46
127.29,8.42,5.00,8.42,5.00,-4.99,-4.98,-5.54,3.43,3.43,3.42
128.57,8.39,5.02,8.39,5.02,-5.01,-5.01,-5.53,3.38,3.38,3.37
129.85,8.35,5.03,8.36,5.03,-5.03,-5.03,-5.51,3.33,3.33,3.32
131.15,8.31,5.04,8.32,5.04,-5.04,-5.06,-5.49,3.27,3.27,3.27
132.46,8.28,5.05,8.28,5.05,-5.06,-5.08,-5.45,3.22,3.22,3.24
133.79,8.24,5.06,8.25,5.06,-5.08,-5.10,-5.42,3.17,3.17,3.19
135.12,8.21,5.07,8.22,5.08,-5.09,-5.13,-5.38,3.12,3.13,3.14
136.48,8.20,5.11,8.20,5.10,-5.11,-5.15,-5.33,3.10,3.09,3.09
137.84,8.17,5.12,8.18,5.13,-5.12,-5.16,-5.28,3.06,3.06,3.05
139.22,8.15,5.15,8.15,5.14,-5.12,-5.18,-5.23,3.03,3.03,3.01
140.61,8.11,5.15,8.11,5.14,-5.12,-5.20,-5.17,2.99,2.98,2.96
142.02,8.04,5.11,8.06,5.13,-5.12,-5.21,-5.12,2.92,2.94,2.93
143.44,8.00,5.12,8.00,5.11,-5.11,-5.22,-5.05,2.89,2.89,2.89
144.87,7.94,5.10,7.94,5.09,-5.10,-5.23,-4.99,2.84,2.84,2.85
146.32,7.89,5.08,7.89,5.08,-5.09,-5.24,-4.93,2.80,2.80,2.82
147.78,7.84,5.07,7.84,5.07,-5.08,-5.25,-4.87,2.76,2.76,2.78
149.26,7.80,5.06,7.81,5.06,-5.08,-5.26,-4.80,2.73,2.73,2.74
150.75,7.77,5.06,7.78,5.07,-5.07,-5.26,-4.74,2.70,2.70,2.71
152.26,7.76,5.09,7.76,5.08,-5.07,-5.26,-4.68,2.69,2.68,2.67
153.78,7.73,5.09,7.73,5.09,-5.07,-5.26,-4.61,2.66,2.66,2.64
155.32,7.70,5.09,7.70,5.09,-5.08,-5.25,-4.55,2.63,2.62,2.61
156.88,7.65,5.07,7.66,5.08,-5.08,-5.25,-4.50,2.58,2.58,2.58
158.44,7.61,5.07,7.61,5.07,-5.08,-5.24,-4.44,2.53,2.53,2.55
160.03,7.57,5.06,7.58,5.07,-5.08,-5.23,-4.38,2.49,2.50,2.51
161.63,7.55,5.07,7.56,5.07,-5.08,-5.22,-4.33,2.48,2.48,2.48
163.24,7.54,5.08,7.53,5.08,-5.07,-5.21,-4.28,2.47,2.46,2.46
164.88,7.50,5.07,7.51,5.08,-5.07,-5.19,-4.23,2.44,2.44,2.43
166.53,7.47,5.07,7.47,5.07,-5.06,-5.17,-4.19,2.41,2.41,2.40
168.19,7.43,5.06,7.43,5.05,-5.05,-5.15,-4.14,2.39,2.38,2.37
169.87,7.38,5.03,7.39,5.03,-5.03,-5.13,-4.11,2.36,2.36,2.36
171.57,7.33,5.00,7.34,5.01,-5.01,-5.11,-4.07,2.33,2.33,2.33
173.29,7.29,4.99,7.28,4.98,-4.98,-5.08,-4.04,2.31,2.31,2.30
175.02,7.22,4.95,7.23,4.95,-4.95,-5.05,-4.01,2.27,2.28,2.28
176.77,7.17,4.91,7.17,4.91,-4.92,-5.02,-3.98,2.25,2.25,2.26
178.54,7.11,4.87,7.12,4.88,-4.89,-4.99,-3.95,2.22,2.23,2.24
180.32,7.07,4.86,7.08,4.86,-4.86,-4.95,-3.93,2.21,2.22,2.22
182.13,7.04,4.85,7.03,4.84,-4.83,-4.92,-3.91,2.22,2.20,2.19
183.95,6.97,4.80,6.98,4.81,-4.80,-4.88,-3.90,2.18,2.18,2.17
185.79,6.92,4.77,6.92,4.77,-4.76,-4.84,-3.89,2.16,2.16,2.15
187.65,6.86,4.73,6.86,4.73,-4.73,-4.80,-3.88,2.13,2.13,2.13
189.52,6.80,4.69,6.80,4.69,-4.70,-4.75,-3.87,2.10,2.11,2.11
191.42,6.74,4.65,6.74,4.65,-4.66,-4.71,-3.87,2.08,2.08,2.09
193.33,6.69,4.62,6.70,4.62,-4.63,-4.67,-3.87,2.07,2.07,2.07
195.27,6.64,4.59,6.65,4.60,-4.59,-4.62,-3.87,2.05,2.06,2.06
197.22,6.61,4.58,6.60,4.56,-4.56,-4.57,-3.87,2.06,2.05,2.04
199.19,6.55,4.53,6.55,4.53,-4.52,-4.52,-3.88,2.03,2.03,2.02
201.18,6.49,4.48,6.50,4.49,-4.49,-4.47,-3.88,2.01,2.01,2.02
203.19,6.44,4.44,6.45,4.44,-4.45,-4.42,-3.89,1.99,1.99,2.00
205.23,6.40,4.41,6.40,4.41,-4.41,-4.37,-3.90,1.99,1.99,1.99
207.28,6.35,4.37,6.36,4.38,-4.37,-4.32,-3.91,1.98,1.99,1.98
209.35,6.31,4.35,6.31,4.34,-4.33,-4.26,-3.93,1.98,1.97,1.97
211.44,6.25,4.29,6.25,4.29,-4.29,-4.21,-3.94,1.96,1.96,1.96
213.56,6.18,4.24,6.19,4.25,-4.25,-4.15,-3.95,1.93,1.94,1.95
215.69,6.14,4.21,6.14,4.20,-4.21,-4.10,-3.97,1.93,1.93,1.94
217.85,6.08,4.16,6.09,4.17,-4.17,-4.04,-3.98,1.91,1.92,1.92
220.03,6.05,4.13,6.05,4.13,-4.13,-3.99,-3.99,1.93,1.92,1.92
222.23,6.00,4.09,6.00,4.09,-4.08,-3.93,-4.01,1.93,1.92,1.91
224.45,5.93,4.03,5.94,4.04,-4.03,-3.88,-4.02,1.91,1.91,1.90
226.70,5.87,3.99,5.87,3.98,-3.98,-3.82,-4.02,1.90,1.89,1.89
228.96,5.79,3.91,5.80,3.92,-3.92,-3.76,-4.03,1.87,1.88,1.89
231.25,5.74,3.87,5.74,3.86,-3.86,-3.71,-4.03,1.88,1.87,1.88
233.57,5.67,3.81,5.67,3.80,-3.80,-3.65,-4.04,1.87,1.87,1.87
235.90,5.59,3.72,5.60,3.74,-3.74,-3.60,-4.03,1.85,1.86,1.87
238.26,5.54,3.68,5.54,3.68,-3.67,-3.54,-4.03,1.87,1.86,1.86
240.64,5.47,3.61,5.48,3.61,-3.61,-3.48,-4.02,1.87,1.87,1.86
243.05,5.41,3.55,5.41,3.54,-3.54,-3.43,-4.01,1.88,1.87,1.86
245.48,5.33,3.47,5.33,3.47,-3.47,-3.37,-3.99,1.87,1.87,1.87
247.93,5.24,3.39,5.26,3.40,-3.40,-3.32,-3.97,1.85,1.86,1.86
250.41,5.19,3.33,5.18,3.32,-3.32,-3.27,-3.94,1.87,1.86,1.86
252.92,5.10,3.24,5.11,3.25,-3.25,-3.21,-3.91,1.85,1.86,1.86
255.45,5.03,3.17,5.04,3.17,-3.18,-3.16,-3.87,1.85,1.86,1.87
258.00,4.97,3.11,4.97,3.10,-3.11,-3.11,-3.83,1.86,1.86,1.86
260.58,4.89,3.03,4.90,3.04,-3.04,-3.06,-3.79,1.85,1.86,1.86
263.19,4.84,2.99,4.83,2.98,-2.97,-3.00,-3.74,1.87,1.86,1.86
265.82,4.76,2.91,4.77,2.91,-2.91,-2.95,-3.69,1.86,1.86,1.85
268.48,4.69,2.84,4.70,2.85,-2.84,-2.91,-3.64,1.85,1.85,1.86
271.16,4.63,2.78,4.63,2.78,-2.78,-2.86,-3.58,1.86,1.85,1.85
273.87,4.55,2.71,4.56,2.71,-2.71,-2.81,-3.52,1.84,1.85,1.84
276.61,4.50,2.65,4.50,2.65,-2.65,-2.76,-3.45,1.86,1.85,1.85
279.38,4.43,2.59,4.43,2.59,-2.58,-2.72,-3.38,1.85,1.85,1.84
282.17,4.37,2.52,4.37,2.53,-2.53,-2.67,-3.31,1.85,1.85,1.85
284.99,4.31,2.47,4.31,2.47,-2.47,-2.63,-3.24,1.84,1.84,1.85
287.84,4.25,2.41,4.26,2.41,-2.42,-2.59,-3.17,1.83,1.83,1.84
290.72,4.20,2.37,4.21,2.37,-2.38,-2.55,-3.09,1.83,1.83,1.84
293.63,4.17,2.34,4.17,2.34,-2.34,-2.51,-3.02,1.83,1.83,1.83
296.57,4.14,2.31,4.14,2.31,-2.31,-2.47,-2.94,1.83,1.83,1.83
299.53,4.11,2.28,4.12,2.29,-2.28,-2.44,-2.86,1.83,1.83,1.84
302.53,4.10,2.27,4.10,2.27,-2.26,-2.40,-2.79,1.84,1.83,1.83
305.55,4.08,2.26,4.08,2.25,-2.25,-2.37,-2.71,1.83,1.83,1.83
308.61,4.07,2.24,4.07,2.24,-2.24,-2.34,-2.63,1.83,1.83,1.83
311.69,4.06,2.23,4.07,2.23,-2.24,-2.31,-2.55,1.83,1.83,1.83
314.81,4.06,2.23,4.07,2.23,-2.24,-2.28,-2.48,1.83,1.83,1.84
317.96,4.07,2.24,4.07,2.23,-2.24,-2.26,-2.40,1.84,1.83,1.84
321.14,4.08,2.24,4.08,2.24,-2.24,-2.24,-2.32,1.84,1.84,1.84
324.35,4.08,2.24,4.09,2.25,-2.25,-2.22,-2.25,1.84,1.84,1.84
327.59,4.09,2.26,4.10,2.25,-2.25,-2.20,-2.18,1.84,1.85,1.84
330.87,4.10,2.26,4.10,2.26,-2.25,-2.18,-2.10,1.85,1.85,1.85
334.18,4.11,2.26,4.11,2.26,-2.25,-2.16,-2.03,1.86,1.85,1.85
337.52,4.10,2.25,4.11,2.25,-2.25,-2.15,-1.96,1.85,1.85,1.85
340.90,4.10,2.25,4.10,2.24,-2.25,-2.14,-1.89,1.86,1.85,1.86
344.30,4.08,2.23,4.09,2.23,-2.24,-2.13,-1.83,1.85,1.85,1.86
347.75,4.07,2.22,4.07,2.22,-2.22,-2.11,-1.76,1.86,1.85,1.85
351.23,4.05,2.20,4.05,2.20,-2.20,-2.10,-1.69,1.86,1.86,1.85
354.74,4.03,2.17,4.03,2.18,-2.17,-2.09,-1.63,1.86,1.86,1.86
358.28,4.00,2.15,4.00,2.14,-2.14,-2.08,-1.57,1.86,1.86,1.86
361.87,3.96,2.11,3.96,2.10,-2.10,-2.06,-1.51,1.86,1.86,1.86
365.49,3.91,2.06,3.92,2.06,-2.06,-2.04,-1.45,1.85,1.85,1.85
369.14,3.86,2.01,3.87,2.02,-2.02,-2.02,-1.39,1.85,1.85,1.85
372.83,3.82,1.97,3.82,1.97,-1.97,-1.99,-1.33,1.86,1.86,1.85
376.56,3.77,1.91,3.77,1.91,-1.91,-1.95,-1.27,1.86,1.86,1.86
380.33,3.71,1.86,3.72,1.86,-1.86,-1.91,-1.22,1.85,1.86,1.86
384.13,3.65,1.80,3.66,1.80,-1.80,-1.86,-1.16,1.85,1.85,1.86
387.97,3.60,1.75,3.60,1.74,-1.75,-1.81,-1.11,1.86,1.85,1.86
391.85,3.54,1.68,3.55,1.69,-1.69,-1.75,-1.06,1.85,1.86,1.86
395.77,3.50,1.64,3.50,1.64,-1.63,-1.69,-1.01,1.87,1.87,1.86
399.73,3.45,1.58,3.45,1.58,-1.57,-1.63,-0.96,1.88,1.87,1.87
403.72,3.38,1.51,3.39,1.52,-1.51,-1.56,-0.91,1.87,1.88,1.87
407.76,3.32,1.44,3.33,1.45,-1.45,-1.48,-0.86,1.88,1.88,1.88
411.84,3.26,1.38,3.26,1.38,-1.38,-1.41,-0.81,1.88,1.88,1.88
415.96,3.20,1.32,3.20,1.31,-1.32,-1.34,-0.77,1.89,1.88,1.89
420.12,3.13,1.25,3.14,1.25,-1.25,-1.26,-0.72,1.88,1.89,1.89
424.32,3.06,1.18,3.07,1.18,-1.18,-1.19,-0.68,1.88,1.89,1.89
428.56,3.01,1.12,3.01,1.11,-1.12,-1.11,-0.63,1.90,1.89,1.90
432.85,2.94,1.05,2.94,1.05,-1.05,-1.04,-0.59,1.89,1.89,1.89
437.18,2.87,0.98,2.88,0.99,-0.99,-0.97,-0.55,1.89,1.90,1.89
441.55,2.82,0.93,2.82,0.93,-0.92,-0.90,-0.51,1.90,1.89,1.89
445.96,2.76,0.87,2.76,0.86,-0.86,-0.83,-0.47,1.90,1.89,1.89
450.42,2.68,0.79,2.69,0.80,-0.80,-0.76,-0.43,1.88,1.89,1.89
454.93,2.63,0.74,2.63,0.74,-0.74,-0.69,-0.39,1.89,1.88,1.89
459.48,2.56,0.67,2.57,0.68,-0.68,-0.63,-0.35,1.88,1.88,1.89
464.07,2.51,0.62,2.52,0.63,-0.62,-0.57,-0.32,1.89,1.89,1.89
468.71,2.46,0.57,2.46,0.57,-0.56,-0.51,-0.28,1.90,1.89,1.89
473.40,2.40,0.52,2.40,0.51,-0.51,-0.45,-0.25,1.90,1.90,1.89
478.13,2.34,0.45,2.34,0.45,-0.45,-0.39,-0.21,1.90,1.90,1.90
482.91,2.28,0.39,2.28,0.39,-0.39,-0.33,-0.18,1.89,1.89,1.90
487.74,2.22,0.33,2.22,0.33,-0.33,-0.27,-0.15,1.89,1.89,1.90
492.62,2.16,0.27,2.17,0.27,-0.27,-0.22,-0.12,1.89,1.89,1.90
497.55,2.11,0.21,2.11,0.21,-0.21,-0.16,-0.09,1.90,1.90,1.91
502.52,2.06,0.16,2.06,0.16,-0.16,-0.11,-0.06,1.91,1.91,1.91
507.55,2.01,0.11,2.01,0.10,-0.10,-0.06,-0.03,1.91,1.91,1.90
512.62,1.95,0.05,1.95,0.05,-0.05,-0.01,0.00,1.91,1.91,1.90
517.75,1.89,-0.02,1.90,-0.01,0.01,0.05,0.03,1.90,1.91,1.91
522.93,1.84,-0.07,1.85,-0.06,0.06,0.10,0.06,1.91,1.91,1.91
528.16,1.80,-0.11,1.80,-0.11,0.12,0.15,0.08,1.92,1.92,1.91
533.44,1.75,-0.16,1.75,-0.17,0.17,0.20,0.11,1.93,1.92,1.91
