frequency,raw,error,smoothed,error_smoothed,equalization,parametric_eq,fixed_band_eq,equalized_raw,equalized_smoothed,target
20.00,-16.97,-17.69,-16.96,-17.68,6.00,4.87,2.82,-10.97,-10.96,0.72
20.20,-16.85,-17.58,-16.86,-17.58,6.00,4.94,2.90,-10.85,-10.86,0.73
20.40,-16.73,-17.47,-16.74,-17.48,6.00,5.01,2.99,-10.73,-10.74,0.74
20.61,-16.61,-17.35,-16.62,-17.36,6.00,5.08,3.07,-10.61,-10.62,0.74
20.81,-16.49,-17.23,-16.49,-17.24,6.00,5.14,3.16,-10.49,-10.49,0.75
21.02,-16.36,-17.11,-16.34,-17.09,6.00,5.21,3.25,-10.36,-10.34,0.75
21.23,-16.15,-16.90,-16.15,-16.91,6.00,5.28,3.34,-10.15,-10.15,0.76
21.44,-15.94,-16.69,-15.94,-16.70,6.00,5.34,3.44,-9.94,-9.94,0.76
21.66,-15.73,-16.49,-15.72,-16.48,6.00,5.41,3.54,-9.73,-9.72,0.76
21.87,-15.52,-16.27,-15.53,-16.29,6.00,5.47,3.64,-9.52,-9.53,0.76
22.09,-15.35,-16.11,-15.36,-16.12,6.00,5.54,3.74,-9.35,-9.36,0.77
22.31,-15.22,-15.98,-15.21,-15.97,6.00,5.60,3.85,-9.22,-9.21,0.77
22.54,-15.09,-15.85,-15.09,-15.85,6.00,5.66,3.96,-9.09,-9.09,0.76
22.76,-14.96,-15.70,-14.96,-15.71,6.00,5.73,4.07,-8.96,-8.96,0.74
22.99,-14.84,-15.58,-14.82,-15.56,6.00,5.79,4.19,-8.84,-8.82,0.74
23.22,-14.66,-15.40,-14.66,-15.40,6.00,5.84,4.30,-8.66,-8.66,0.74
23.45,-14.49,-15.22,-14.49,-15.23,6.00,5.90,4.42,-8.49,-8.49,0.73
23.69,-14.31,-15.04,-14.31,-15.04,6.00,5.96,4.55,-8.31,-8.31,0.73
23.92,-14.14,-14.87,-14.14,-14.87,6.00,6.01,4.67,-8.14,-8.14,0.73
24.16,-13.97,-14.70,-13.97,-14.70,6.00,6.06,4.80,-7.97,-7.97,0.73
24.40,-13.80,-14.53,-13.80,-14.53,6.00,6.11,4.93,-7.80,-7.80,0.73
24.65,-13.64,-14.37,-13.64,-14.37,6.00,6.16,5.06,-7.64,-7.64,0.73
24.89,-13.47,-14.20,-13.46,-14.19,6.00,6.21,5.19,-7.47,-7.46,0.73
25.14,-13.29,-14.02,-13.29,-14.01,6.00,6.25,5.32,-7.29,-7.29,0.73
25.39,-13.10,-13.82,-13.10,-13.82,6.00,6.29,5.46,-7.10,-7.10,0.72
25.65,-12.92,-13.64,-12.91,-13.64,6.00,6.33,5.59,-6.92,-6.91,0.72
25.91,-12.73,-13.45,-12.73,-13.45,6.00,6.37,5.73,-6.73,-6.73,0.72
26.16,-12.56,-13.27,-12.56,-13.28,6.00,6.40,5.86,-6.56,-6.56,0.72
26.43,-12.39,-13.11,-12.39,-13.11,6.00,6.43,6.00,-6.39,-6.39,0.72
26.69,-12.23,-12.95,-12.23,-12.95,6.00,6.46,6.13,-6.23,-6.23,0.72
26.96,-12.07,-12.79,-12.07,-12.78,6.00,6.49,6.26,-6.07,-6.07,0.72
27.23,-11.90,-12.62,-11.90,-12.61,6.00,6.51,6.39,-5.90,-5.90,0.72
27.50,-11.72,-12.43,-11.72,-12.43,6.00,6.53,6.51,-5.72,-5.72,0.72
27.77,-11.55,-12.26,-11.55,-12.26,6.00,6.54,6.64,-5.55,-5.55,0.71
28.05,-11.39,-12.10,-11.41,-12.12,6.00,6.56,6.75,-5.39,-5.41,0.71
28.33,-11.31,-12.02,-11.31,-12.02,6.00,6.57,6.86,-5.31,-5.31,0.71
28.62,-11.22,-11.93,-11.22,-11.94,6.00,6.57,6.96,-5.22,-5.22,0.71
28.90,-11.13,-11.85,-11.10,-11.82,6.00,6.58,7.06,-5.13,-5.10,0.72
29.19,-10.93,-11.65,-10.91,-11.63,6.00,6.58,7.14,-4.93,-4.91,0.72
29.48,-10.67,-11.39,-10.67,-11.40,6.00,6.57,7.22,-4.67,-4.67,0.72
29.78,-10.41,-11.14,-10.42,-11.14,6.00,6.56,7.29,-4.41,-4.42,0.73
30.08,-10.17,-10.90,-10.19,-10.92,6.00,6.55,7.34,-4.17,-4.19,0.73
30.38,-10.01,-10.74,-10.01,-10.74,6.00,6.54,7.39,-4.01,-4.01,0.73
30.68,-9.85,-10.57,-9.85,-10.57,6.00,6.52,7.42,-3.85,-3.85,0.73
30.99,-9.69,-10.41,-9.68,-10.40,6.00,6.50,7.44,-3.69,-3.68,0.72
31.30,-9.48,-10.20,-9.48,-10.20,6.00,6.48,7.45,-3.48,-3.48,0.72
31.61,-9.27,-9.99,-9.27,-9.99,6.00,6.46,7.44,-3.27,-3.27,0.72
31.93,-9.06,-9.78,-9.08,-9.80,6.00,6.43,7.42,-3.06,-3.08,0.72
32.24,-8.93,-9.64,-8.94,-9.65,6.00,6.39,7.39,-2.93,-2.94,0.71
32.57,-8.82,-9.53,-8.82,-9.52,6.00,6.36,7.35,-2.82,-2.82,0.71
32.89,-8.71,-9.41,-8.69,-9.39,6.00,6.32,7.30,-2.71,-2.69,0.71
33.22,-8.53,-9.22,-8.52,-9.21,6.00,6.28,7.24,-2.53,-2.52,0.69
33.55,-8.32,-9.01,-8.32,-9.01,6.00,6.24,7.17,-2.32,-2.32,0.69
33.89,-8.11,-8.79,-8.13,-8.81,6.00,6.19,7.09,-2.11,-2.13,0.68
34.23,-7.97,-8.65,-7.98,-8.66,6.00,6.15,7.00,-1.97,-1.98,0.68
34.57,-7.87,-8.55,-7.86,-8.54,6.00,6.10,6.90,-1.87,-1.86,0.68
34.92,-7.76,-8.44,-7.75,-8.43,6.00,6.05,6.80,-1.76,-1.75,0.68
35.27,-7.64,-8.31,-7.64,-8.31,6.00,5.99,6.69,-1.64,-1.64,0.67
35.62,-7.51,-8.18,-7.51,-8.18,6.00,5.94,6.58,-1.51,-1.51,0.67
35.97,-7.38,-8.05,-7.37,-8.04,6.00,5.88,6.47,-1.38,-1.37,0.67
36.33,-7.22,-7.88,-7.21,-7.88,6.00,5.82,6.35,-1.22,-1.21,0.67
36.70,-7.05,-7.72,-7.06,-7.72,6.00,5.76,6.23,-1.05,-1.06,0.67
37.06,-6.90,-7.56,-6.91,-7.57,6.00,5.70,6.11,-0.90,-0.91,0.66
37.43,-6.78,-7.44,-6.78,-7.45,6.00,5.64,5.99,-0.78,-0.78,0.66
37.81,-6.66,-7.33,-6.64,-7.31,6.00,5.58,5.86,-0.66,-0.64,0.67
38.19,-6.49,-7.16,-6.46,-7.13,6.00,5.51,5.74,-0.49,-0.46,0.67
38.57,-6.26,-6.92,-6.26,-6.92,6.00,5.45,5.62,-0.26,-0.25,0.66
38.95,-6.03,-6.70,-6.07,-6.74,6.01,5.38,5.50,-0.01,-0.06,0.67
39.34,-5.93,-6.59,-5.94,-6.60,6.02,5.31,5.38,0.10,0.09,0.67
39.74,-5.86,-6.52,-5.84,-6.50,6.03,5.25,5.26,0.17,0.19,0.66
40.14,-5.76,-6.42,-5.75,-6.41,6.02,5.18,5.15,0.26,0.27,0.66
40.54,-5.62,-6.28,-5.62,-6.28,5.99,5.11,5.04,0.37,0.37,0.66
40.94,-5.47,-6.12,-5.47,-6.13,5.94,5.04,4.93,0.47,0.47,0.65
41.35,-5.32,-5.97,-5.32,-5.96,5.88,4.97,4.82,0.56,0.56,0.65
41.76,-5.17,-5.80,-5.17,-5.81,5.79,4.90,4.71,0.62,0.62,0.64
42.18,-5.02,-5.65,-5.03,-5.66,5.67,4.83,4.61,0.65,0.64,0.63
42.60,-4.90,-5.53,-4.89,-5.52,5.54,4.76,4.51,0.64,0.64,0.63
43.03,-4.77,-5.39,-4.77,-5.39,5.40,4.69,4.42,0.63,0.63,0.62
43.46,-4.64,-5.26,-4.64,-5.26,5.26,4.62,4.32,0.62,0.62,0.62
43.90,-4.51,-5.12,-4.50,-5.11,5.14,4.56,4.23,0.63,0.64,0.61
44.33,-4.37,-4.97,-4.36,-4.96,5.03,4.49,4.15,0.66,0.67,0.60
44.78,-4.23,-4.82,-4.26,-4.85,4.92,4.42,4.06,0.69,0.66,0.60
45.23,-4.17,-4.76,-4.20,-4.79,4.79,4.35,3.98,0.62,0.59,0.59
45.68,-4.18,-4.76,-4.16,-4.75,4.65,4.28,3.91,0.48,0.50,0.59
46.13,-4.13,-4.72,-4.08,-4.66,4.52,4.21,3.83,0.40,0.45,0.59
46.60,-3.91,-4.49,-3.92,-4.51,4.41,4.14,3.76,0.50,0.49,0.58
47.06,-3.69,-4.28,-3.66,-4.25,4.30,4.08,3.69,0.62,0.64,0.59
47.53,-3.45,-4.04,-3.43,-4.03,4.20,4.01,3.62,0.75,0.77,0.59
48.01,-3.22,-3.82,-3.35,-3.95,4.09,3.94,3.56,0.87,0.74,0.60
48.49,-3.36,-3.96,-3.36,-3.95,3.99,3.88,3.50,0.63,0.63,0.60
48.97,-3.50,-4.10,-3.37,-3.97,3.89,3.81,3.44,0.40,0.53,0.60
49.46,-3.33,-3.93,-3.34,-3.94,3.82,3.75,3.39,0.49,0.48,0.61
49.96,-3.15,-3.77,-3.19,-3.81,3.75,3.68,3.33,0.60,0.55,0.62
50.46,-3.03,-3.65,-3.03,-3.65,3.67,3.62,3.28,0.64,0.65,0.62
50.96,-2.92,-3.55,-2.93,-3.56,3.58,3.56,3.23,0.66,0.66,0.63
51.47,-2.84,-3.47,-2.84,-3.48,3.47,3.50,3.19,0.63,0.63,0.63
51.99,-2.77,-3.40,-2.75,-3.39,3.36,3.43,3.14,0.59,0.61,0.64
52.51,-2.65,-3.29,-2.65,-3.28,3.27,3.37,3.10,0.62,0.62,0.64
53.03,-2.53,-3.17,-2.50,-3.14,3.20,3.31,3.06,0.67,0.70,0.64
53.56,-2.38,-3.02,-2.39,-3.04,3.14,3.25,3.02,0.76,0.74,0.64
54.10,-2.29,-2.94,-2.37,-3.02,3.09,3.19,2.98,0.80,0.71,0.65
54.64,-2.43,-3.08,-2.40,-3.05,3.04,3.13,2.94,0.61,0.64,0.65
55.18,-2.49,-3.14,-2.42,-3.07,2.98,3.08,2.90,0.50,0.56,0.65
55.74,-2.38,-3.02,-2.37,-3.02,2.92,3.02,2.86,0.55,0.55,0.64
56.29,-2.24,-2.87,-2.24,-2.88,2.85,2.96,2.83,0.61,0.61,0.64
56.86,-2.08,-2.71,-2.14,-2.77,2.76,2.91,2.79,0.68,0.62,0.63
57.42,-2.05,-2.67,-2.06,-2.69,2.66,2.85,2.76,0.61,0.60,0.62
58.00,-2.06,-2.67,-1.97,-2.58,2.56,2.80,2.72,0.50,0.59,0.61
58.58,-1.85,-2.45,-1.85,-2.45,2.47,2.74,2.69,0.62,0.62,0.60
59.16,-1.68,-2.26,-1.72,-2.30,2.40,2.69,2.65,0.72,0.68,0.58
59.76,-1.62,-2.19,-1.65,-2.22,2.34,2.64,2.62,0.73,0.70,0.57
60.35,-1.68,-2.23,-1.69,-2.24,2.30,2.59,2.58,0.62,0.61,0.55
60.96,-1.81,-2.33,-1.79,-2.31,2.26,2.54,2.54,0.45,0.47,0.52
61.57,-1.87,-2.37,-1.84,-2.34,2.22,2.49,2.50,0.35,0.37,0.50
62.18,-1.86,-2.32,-1.82,-2.28,2.18,2.44,2.47,0.32,0.36,0.46
62.80,-1.71,-2.13,-1.75,-2.17,2.14,2.39,2.43,0.44,0.40,0.43
63.43,-1.66,-2.04,-1.68,-2.06,2.10,2.34,2.39,0.45,0.42,0.38
64.07,-1.66,-2.00,-1.65,-1.99,2.05,2.29,2.35,0.39,0.40,0.34
64.71,-1.66,-1.95,-1.65,-1.95,1.98,2.25,2.31,0.33,0.33,0.29
65.35,-1.66,-1.92,-1.66,-1.91,1.92,2.20,2.26,0.26,0.26,0.26
66.01,-1.66,-1.88,-1.66,-1.88,1.86,2.15,2.22,0.20,0.20,0.22
66.67,-1.66,-1.84,-1.66,-1.84,1.82,2.11,2.18,0.16,0.16,0.18
67.33,-1.66,-1.81,-1.66,-1.80,1.79,2.06,2.13,0.13,0.14,0.15
68.01,-1.66,-1.77,-1.66,-1.77,1.78,2.02,2.09,0.12,0.12,0.11
68.69,-1.66,-1.74,-1.66,-1.74,1.76,1.98,2.04,0.10,0.10,0.08
69.37,-1.68,-1.73,-1.68,-1.73,1.75,1.93,1.99,0.07,0.07,0.05
70.07,-1.71,-1.72,-1.72,-1.73,1.75,1.89,1.95,0.04,0.03,0.02
70.77,-1.77,-1.75,-1.77,-1.75,1.75,1.85,1.90,-0.02,-0.01,-0.02
71.48,-1.82,-1.78,-1.81,-1.77,1.77,1.81,1.85,-0.05,-0.04,-0.04
72.19,-1.86,-1.78,-1.84,-1.77,1.78,1.77,1.80,-0.08,-0.06,-0.07
72.91,-1.86,-1.75,-1.86,-1.75,1.77,1.73,1.76,-0.09,-0.08,-0.11
73.64,-1.86,-1.72,-1.91,-1.77,1.74,1.69,1.71,-0.12,-0.17,-0.14
74.38,-1.94,-1.76,-1.94,-1.76,1.70,1.65,1.66,-0.24,-0.24,-0.18
75.12,-2.03,-1.81,-1.95,-1.73,1.64,1.61,1.62,-0.39,-0.31,-0.21
75.87,-1.86,-1.60,-1.89,-1.63,1.58,1.57,1.57,-0.28,-0.31,-0.26
76.63,-1.77,-1.47,-1.73,-1.43,1.51,1.54,1.52,-0.26,-0.23,-0.30
77.40,-1.62,-1.27,-1.65,-1.31,1.42,1.50,1.47,-0.20,-0.23,-0.35
78.17,-1.53,-1.15,-1.66,-1.28,1.33,1.46,1.43,-0.20,-0.33,-0.38
78.95,-1.84,-1.40,-1.68,-1.25,1.23,1.43,1.38,-0.61,-0.45,-0.43
79.74,-1.70,-1.23,-1.69,-1.21,1.13,1.39,1.34,-0.57,-0.56,-0.47
80.54,-1.60,-1.08,-1.66,-1.14,1.05,1.36,1.29,-0.55,-0.61,-0.52
81.35,-1.56,-1.00,-1.55,-0.98,1.00,1.32,1.25,-0.56,-0.55,-0.56
82.16,-1.54,-0.93,-1.49,-0.88,0.95,1.29,1.21,-0.59,-0.54,-0.60
82.98,-1.42,-0.77,-1.47,-0.83,0.90,1.25,1.16,-0.52,-0.57,-0.65
83.81,-1.47,-0.78,-1.50,-0.82,0.86,1.22,1.12,-0.61,-0.64,-0.69
84.65,-1.60,-0.88,-1.56,-0.84,0.83,1.19,1.08,-0.77,-0.73,-0.72
85.50,-1.66,-0.89,-1.64,-0.87,0.82,1.15,1.04,-0.84,-0.82,-0.76
86.35,-1.66,-0.85,-1.66,-0.85,0.82,1.12,1.00,-0.84,-0.84,-0.81
87.22,-1.66,-0.81,-1.66,-0.81,0.83,1.09,0.96,-0.83,-0.83,-0.85
88.09,-1.67,-0.77,-1.72,-0.83,0.83,1.06,0.92,-0.84,-0.89,-0.90
88.97,-1.78,-0.85,-1.78,-0.85,0.82,1.02,0.88,-0.96,-0.96,-0.93
89.86,-1.92,-0.94,-1.82,-0.84,0.81,0.99,0.85,-1.11,-1.02,-0.98
90.76,-1.80,-0.77,-1.83,-0.81,0.79,0.96,0.81,-1.01,-1.05,-1.03
91.66,-1.79,-0.73,-1.83,-0.76,0.78,0.93,0.77,-1.01,-1.05,-1.06
92.58,-1.84,-0.74,-1.84,-0.73,0.78,0.90,0.74,-1.06,-1.06,-1.10
93.51,-1.91,-0.76,-1.89,-0.74,0.78,0.87,0.70,-1.13,-1.11,-1.15
94.44,-1.95,-0.76,-1.93,-0.74,0.78,0.84,0.67,-1.17,-1.14,-1.18
95.39,-1.95,-0.73,-1.99,-0.77,0.78,0.81,0.63,-1.17,-1.21,-1.22
96.34,-2.03,-0.77,-2.07,-0.81,0.78,0.78,0.60,-1.25,-1.29,-1.26
97.30,-2.19,-0.89,-2.13,-0.83,0.77,0.75,0.57,-1.42,-1.36,-1.30
98.28,-2.20,-0.85,-2.16,-0.81,0.76,0.72,0.53,-1.44,-1.40,-1.35
99.26,-2.09,-0.70,-2.15,-0.76,0.74,0.69,0.50,-1.35,-1.40,-1.39
100.25,-2.11,-0.68,-2.11,-0.69,0.71,0.66,0.47,-1.39,-1.40,-1.42
101.25,-2.13,-0.66,-2.11,-0.65,0.68,0.63,0.44,-1.45,-1.43,-1.46
102.27,-2.14,-0.63,-2.14,-0.62,0.64,0.61,0.41,-1.50,-1.50,-1.51
103.29,-2.15,-0.59,-2.15,-0.59,0.60,0.58,0.38,-1.55,-1.55,-1.56
104.32,-2.17,-0.56,-2.17,-0.56,0.56,0.55,0.35,-1.61,-1.61,-1.61
105.37,-2.19,-0.54,-2.19,-0.54,0.53,0.52,0.32,-1.65,-1.66,-1.65
106.42,-2.22,-0.52,-2.22,-0.51,0.51,0.49,0.29,-1.71,-1.71,-1.70
107.48,-2.24,-0.49,-2.24,-0.49,0.49,0.46,0.26,-1.75,-1.75,-1.75
108.56,-2.27,-0.47,-2.27,-0.47,0.46,0.44,0.24,-1.80,-1.80,-1.80
109.64,-2.29,-0.44,-2.29,-0.44,0.44,0.41,0.21,-1.85,-1.85,-1.85
110.74,-2.30,-0.41,-2.30,-0.42,0.41,0.38,0.18,-1.88,-1.89,-1.89
111.85,-2.32,-0.39,-2.32,-0.39,0.39,0.35,0.16,-1.93,-1.93,-1.93
112.97,-2.33,-0.36,-2.33,-0.36,0.36,0.32,0.13,-1.97,-1.97,-1.97
114.10,-2.34,-0.33,-2.34,-0.33,0.33,0.29,0.11,-2.01,-2.00,-2.00
115.24,-2.34,-0.31,-2.34,-0.30,0.30,0.27,0.09,-2.04,-2.04,-2.03
116.39,-2.34,-0.27,-2.34,-0.27,0.27,0.24,0.06,-2.06,-2.07,-2.07
117.55,-2.34,-0.25,-2.33,-0.24,0.25,0.21,0.04,-2.09,-2.09,-2.09
118.73,-2.33,-0.21,-2.33,-0.22,0.22,0.18,0.02,-2.11,-2.11,-2.12
119.92,-2.32,-0.19,-2.32,-0.19,0.19,0.15,-0.00,-2.13,-2.13,-2.13
121.12,-2.32,-0.17,-2.32,-0.17,0.17,0.13,-0.02,-2.15,-2.15,-2.15
122.33,-2.31,-0.14,-2.31,-0.14,0.14,0.10,-0.04,-2.17,-2.17,-2.17
123.55,-2.30,-0.12,-2.30,-0.12,0.12,0.07,-0.06,-2.18,-2.18,-2.18
124.79,-2.29,-0.09,-2.29,-0.10,0.10,0.04,-0.08,-2.19,-2.20,-2.20
126.03,-2.29,-0.08,-2.28,-0.07,0.07,0.01,-0.09,-2.21,-2.21,-2.21
127.29,-2.28,-0.05,-2.28,-0.05,0.05,-0.02,-0.11,-2.23,-2.23,-2.23
128.57,-2.27,-0.03,-2.27,-0.03,0.03,-0.05,-0.13,-2.24,-2.24,-2.24
129.85,-2.27,-0.01,-2.27,-0.01,0.01,-0.08,-0.14,-2.26,-2.25,-2.25
131.15,-2.26,0.01,-2.26,0.01,-0.01,-0.11,-0.16,-2.27,-2.27,-2.27
132.46,-2.26,0.03,-2.26,0.03,-0.03,-0.13,-0.17,-2.29,-2.29,-2.29
133.79,-2.25,0.05,-2.25,0.05,-0.05,-0.16,-0.18,-2.30,-2.30,-2.30
135.12,-2.25,0.07,-2.25,0.07,-0.07,-0.19,-0.20,-2.32,-2.32,-2.32
136.48,-2.25,0.09,-2.24,0.09,-0.09,-0.22,-0.21,-2.34,-2.34,-2.33
137.84,-2.24,0.12,-2.24,0.11,-0.11,-0.25,-0.22,-2.35,-2.35,-2.35
139.22,-2.24,0.14,-2.24,0.13,-0.13,-0.28,-0.24,-2.37,-2.37,-2.37
140.61,-2.24,0.15,-2.24,0.15,-0.15,-0.31,-0.25,-2.38,-2.38,-2.39
142.02,-2.24,0.17,-2.24,0.18,-0.16,-0.34,-0.26,-2.40,-2.40,-2.41
143.44,-2.24,0.20,-2.24,0.20,-0.19,-0.37,-0.27,-2.42,-2.42,-2.44
144.87,-2.24,0.23,-2.24,0.23,-0.22,-0.40,-0.28,-2.46,-2.46,-2.47
146.32,-2.24,0.25,-2.24,0.25,-0.28,-0.43,-0.29,-2.51,-2.52,-2.49
147.78,-2.24,0.29,-2.26,0.27,-0.34,-0.45,-0.30,-2.57,-2.59,-2.53
149.26,-2.24,0.33,-2.23,0.34,-0.39,-0.48,-0.32,-2.63,-2.62,-2.56
150.75,-2.22,0.39,-2.15,0.46,-0.46,-0.51,-0.33,-2.68,-2.61,-2.61
152.26,-2.03,0.64,-2.08,0.59,-0.54,-0.54,-0.34,-2.57,-2.62,-2.66
153.78,-1.98,0.74,-2.04,0.68,-0.63,-0.57,-0.35,-2.60,-2.67,-2.72
155.32,-2.09,0.69,-2.05,0.73,-0.72,-0.59,-0.36,-2.80,-2.77,-2.78
156.88,-2.14,0.70,-2.13,0.71,-0.78,-0.62,-0.37,-2.92,-2.91,-2.83
158.44,-2.14,0.76,-2.14,0.76,-0.81,-0.64,-0.38,-2.95,-2.95,-2.90
160.03,-2.14,0.81,-2.06,0.88,-0.80,-0.67,-0.40,-2.94,-2.87,-2.95
161.63,-1.99,1.00,-2.05,0.94,-0.79,-0.69,-0.41,-2.77,-2.84,-2.99
163.24,-2.02,1.02,-2.14,0.90,-0.77,-0.72,-0.42,-2.79,-2.91,-3.04
164.88,-2.38,0.69,-2.28,0.79,-0.78,-0.74,-0.44,-3.15,-3.06,-3.07
166.53,-2.51,0.59,-2.51,0.59,-0.79,-0.76,-0.45,-3.30,-3.30,-3.10
168.19,-2.54,0.58,-2.55,0.56,-0.81,-0.78,-0.46,-3.35,-3.36,-3.12
169.87,-2.58,0.55,-2.39,0.74,-0.82,-0.80,-0.48,-3.40,-3.21,-3.12
171.57,-2.08,1.05,-2.23,0.90,-0.83,-0.82,-0.49,-2.91,-3.06,-3.13
173.29,-2.00,1.13,-2.11,1.01,-0.85,-0.84,-0.51,-2.85,-2.97,-3.13
175.02,-2.18,0.94,-2.07,1.04,-0.89,-0.86,-0.52,-3.06,-2.96,-3.12
176.77,-2.18,0.92,-2.16,0.94,-0.92,-0.87,-0.54,-3.10,-3.08,-3.10
178.54,-2.18,0.91,-2.20,0.89,-0.94,-0.89,-0.55,-3.12,-3.14,-3.09
180.32,-2.18,0.88,-2.18,0.89,-0.94,-0.90,-0.57,-3.12,-3.11,-3.06
182.13,-2.17,0.88,-2.17,0.87,-0.91,-0.92,-0.59,-3.08,-3.08,-3.05
183.95,-2.16,0.86,-2.16,0.87,-0.88,-0.93,-0.61,-3.04,-3.04,-3.02
185.79,-2.15,0.87,-2.15,0.87,-0.87,-0.94,-0.62,-3.01,-3.01,-3.02
187.65,-2.14,0.87,-2.14,0.87,-0.87,-0.95,-0.64,-3.00,-3.00,-3.01
189.52,-2.12,0.88,-2.12,0.88,-0.87,-0.96,-0.66,-2.99,-3.00,-3.00
191.42,-2.11,0.90,-2.11,0.89,-0.88,-0.97,-0.68,-2.99,-2.99,-3.00
193.33,-2.10,0.90,-2.10,0.90,-0.89,-0.98,-0.70,-2.99,-2.99,-3.00
195.27,-2.08,0.92,-2.08,0.92,-0.91,-0.98,-0.72,-2.99,-3.00,-3.00
197.22,-2.07,0.94,-2.07,0.94,-0.95,-0.99,-0.74,-3.02,-3.02,-3.01
199.19,-2.05,0.96,-2.07,0.94,-0.99,-1.00,-0.76,-3.04,-3.06,-3.01
201.18,-2.05,0.97,-2.05,0.97,-1.03,-1.01,-0.78,-3.08,-3.08,-3.02
203.19,-2.04,0.99,-1.97,1.06,-1.07,-1.01,-0.81,-3.11,-3.04,-3.03
205.23,-1.87,1.17,-1.89,1.15,-1.10,-1.02,-0.83,-2.97,-2.99,-3.04
207.28,-1.75,1.30,-1.84,1.21,-1.13,-1.02,-0.85,-2.87,-2.97,-3.05
209.35,-1.88,1.18,-1.85,1.22,-1.14,-1.03,-0.87,-3.02,-2.99,-3.06
211.44,-1.94,1.14,-1.90,1.17,-1.17,-1.03,-0.89,-3.10,-3.07,-3.08
213.56,-1.95,1.14,-1.96,1.13,-1.20,-1.04,-0.92,-3.14,-3.15,-3.09
215.69,-1.95,1.16,-1.96,1.15,-1.22,-1.05,-0.94,-3.17,-3.18,-3.11
217.85,-1.96,1.15,-1.97,1.14,-1.23,-1.05,-0.96,-3.19,-3.20,-3.11
220.03,-1.96,1.17,-1.96,1.17,-1.22,-1.06,-0.98,-3.18,-3.18,-3.13
222.23,-1.96,1.18,-1.87,1.27,-1.21,-1.06,-1.00,-3.16,-3.08,-3.14
224.45,-1.79,1.36,-1.81,1.34,-1.19,-1.07,-1.03,-2.98,-3.00,-3.15
226.70,-1.72,1.43,-1.86,1.29,-1.16,-1.07,-1.05,-2.88,-3.03,-3.15
228.96,-2.02,1.14,-2.01,1.14,-1.12,-1.08,-1.07,-3.14,-3.14,-3.16
231.25,-2.30,0.86,-2.18,0.98,-1.07,-1.09,-1.09,-3.37,-3.25,-3.16
233.57,-2.30,0.86,-2.24,0.92,-1.01,-1.10,-1.11,-3.31,-3.25,-3.16
235.90,-2.14,1.02,-2.23,0.93,-0.96,-1.10,-1.13,-3.09,-3.18,-3.16
238.26,-2.13,1.02,-2.23,0.92,-0.91,-1.11,-1.14,-3.04,-3.14,-3.15
240.64,-2.36,0.78,-2.26,0.88,-0.89,-1.12,-1.16,-3.25,-3.15,-3.14
243.05,-2.34,0.80,-2.28,0.85,-0.89,-1.13,-1.18,-3.23,-3.17,-3.13
245.48,-2.19,0.94,-2.24,0.89,-0.91,-1.14,-1.20,-3.10,-3.15,-3.13
247.93,-2.13,1.00,-2.15,0.97,-0.94,-1.14,-1.21,-3.07,-3.09,-3.12
250.41,-2.12,1.00,-2.10,1.01,-0.97,-1.15,-1.23,-3.09,-3.08,-3.12
252.92,-2.10,1.02,-2.10,1.02,-1.00,-1.16,-1.24,-3.10,-3.10,-3.11
255.45,-2.09,1.03,-2.09,1.03,-1.04,-1.18,-1.25,-3.12,-3.13,-3.12
258.00,-2.08,1.04,-2.10,1.03,-1.07,-1.19,-1.27,-3.14,-3.16,-3.12
260.58,-2.07,1.06,-2.04,1.08,-1.09,-1.20,-1.28,-3.16,-3.14,-3.13
263.19,-2.04,1.09,-1.95,1.18,-1.13,-1.21,-1.29,-3.17,-3.07,-3.13
265.82,-1.83,1.31,-1.98,1.15,-1.16,-1.22,-1.30,-2.98,-3.14,-3.13
268.48,-1.91,1.23,-2.01,1.13,-1.18,-1.23,-1.31,-3.09,-3.19,-3.14
271.16,-2.28,0.86,-1.98,1.16,-1.19,-1.25,-1.32,-3.46,-3.17,-3.14
273.87,-1.90,1.25,-1.97,1.18,-1.17,-1.26,-1.33,-3.07,-3.14,-3.14
276.61,-1.76,1.39,-1.91,1.24,-1.15,-1.27,-1.34,-2.91,-3.06,-3.15
279.38,-1.94,1.21,-1.89,1.26,-1.12,-1.29,-1.35,-3.05,-3.00,-3.15
282.17,-2.03,1.12,-2.04,1.11,-1.08,-1.30,-1.36,-3.11,-3.12,-3.14
284.99,-2.19,0.95,-2.14,1.00,-1.07,-1.32,-1.37,-3.26,-3.22,-3.14
287.84,-2.18,0.96,-2.16,0.97,-1.08,-1.33,-1.38,-3.26,-3.25,-3.14
290.72,-2.09,1.04,-2.13,1.00,-1.11,-1.35,-1.39,-3.20,-3.24,-3.13
293.63,-2.06,1.07,-2.03,1.09,-1.17,-1.37,-1.40,-3.23,-3.20,-3.12
296.57,-1.92,1.20,-1.93,1.19,-1.23,-1.38,-1.41,-3.15,-3.16,-3.12
299.53,-1.82,1.30,-1.80,1.31,-1.29,-1.40,-1.43,-3.11,-3.09,-3.12
302.53,-1.68,1.43,-1.65,1.47,-1.35,-1.42,-1.44,-3.02,-2.99,-3.11
305.55,-1.52,1.60,-1.55,1.56,-1.39,-1.44,-1.45,-2.91,-2.95,-3.11
308.61,-1.49,1.63,-1.54,1.57,-1.44,-1.45,-1.46,-2.93,-2.99,-3.12
311.69,-1.64,1.48,-1.64,1.48,-1.49,-1.47,-1.48,-3.13,-3.13,-3.12
314.81,-1.79,1.34,-1.78,1.34,-1.53,-1.49,-1.49,-3.32,-3.31,-3.13
317.96,-1.87,1.26,-1.81,1.33,-1.54,-1.51,-1.51,-3.41,-3.35,-3.13
321.14,-1.77,1.38,-1.68,1.46,-1.52,-1.53,-1.53,-3.29,-3.20,-3.14
324.35,-1.43,1.72,-1.52,1.63,-1.49,-1.55,-1.55,-2.92,-3.02,-3.15
327.59,-1.36,1.80,-1.43,1.73,-1.48,-1.57,-1.57,-2.84,-2.91,-3.16
330.87,-1.52,1.65,-1.51,1.66,-1.49,-1.59,-1.59,-3.01,-3.00,-3.17
334.18,-1.69,1.49,-1.69,1.49,-1.53,-1.62,-1.61,-3.22,-3.22,-3.18
337.52,-1.89,1.30,-1.81,1.38,-1.58,-1.64,-1.63,-3.47,-3.39,-3.19
340.90,-1.77,1.43,-1.77,1.43,-1.63,-1.66,-1.66,-3.40,-3.40,-3.19
344.30,-1.63,1.58,-1.61,1.60,-1.70,-1.68,-1.69,-3.32,-3.30,-3.21
347.75,-1.35,1.88,-1.41,1.81,-1.79,-1.71,-1.71,-3.14,-3.20,-3.23
351.23,-1.24,2.00,-1.25,1.98,-1.91,-1.73,-1.74,-3.15,-3.16,-3.24
354.74,-1.19,2.06,-1.13,2.12,-2.05,-1.75,-1.77,-3.24,-3.18,-3.25
358.28,-1.02,2.24,-1.07,2.19,-2.19,-1.78,-1.80,-3.20,-3.26,-3.26
361.87,-0.99,2.28,-0.97,2.31,-2.28,-1.80,-1.84,-3.27,-3.25,-3.27
365.49,-0.95,2.34,-0.87,2.42,-2.33,-1.83,-1.87,-3.28,-3.20,-3.29
369.14,-0.77,2.53,-0.87,2.43,-2.35,-1.85,-1.91,-3.12,-3.23,-3.30
372.83,-0.88,2.44,-0.92,2.39,-2.35,-1.88,-1.94,-3.23,-3.27,-3.31
376.56,-1.11,2.22,-1.02,2.31,-2.34,-1.91,-1.98,-3.45,-3.36,-3.33
380.33,-1.13,2.21,-1.13,2.21,-2.32,-1.93,-2.02,-3.45,-3.45,-3.34
384.13,-1.13,2.22,-1.14,2.21,-2.30,-1.96,-2.06,-3.43,-3.44,-3.35
387.97,-1.12,2.24,-1.08,2.28,-2.29,-1.99,-2.10,-3.40,-3.36,-3.36
391.85,-1.02,2.35,-1.08,2.29,-2.28,-2.01,-2.15,-3.30,-3.35,-3.37
395.77,-1.05,2.33,-1.11,2.27,-2.27,-2.04,-2.19,-3.32,-3.38,-3.38
399.73,-1.22,2.17,-1.10,2.29,-2.26,-2.07,-2.24,-3.48,-3.36,-3.39
403.72,-1.16,2.24,-1.14,2.27,-2.24,-2.10,-2.28,-3.40,-3.37,-3.40
407.76,-1.02,2.40,-1.17,2.25,-2.20,-2.13,-2.33,-3.22,-3.37,-3.42
411.84,-1.28,2.15,-1.19,2.25,-2.15,-2.16,-2.37,-3.43,-3.34,-3.43
415.96,-1.32,2.12,-1.33,2.11,-2.10,-2.19,-2.42,-3.42,-3.43,-3.44
420.12,-1.40,2.05,-1.48,1.97,-2.05,-2.22,-2.47,-3.45,-3.53,-3.44
424.32,-1.65,1.81,-1.51,1.94,-2.01,-2.25,-2.52,-3.66,-3.52,-3.45
428.56,-1.49,1.97,-1.50,1.95,-1.98,-2.28,-2.56,-3.47,-3.48,-3.45
432.85,-1.40,2.05,-1.48,1.96,-1.98,-2.32,-2.61,-3.38,-3.47,-3.45
437.18,-1.39,2.05,-1.42,2.02,-2.01,-2.35,-2.66,-3.40,-3.43,-3.44
