frequency,raw,error,smoothed,error_smoothed,equalization,parametric_eq,fixed_band_eq,equalized_raw,equalized_smoothed,target
20.00,-3.53,-10.73,-3.53,-10.73,6.00,5.71,2.81,2.47,2.47,7.20
20.20,-3.45,-10.63,-3.45,-10.64,6.00,5.74,2.89,2.55,2.55,7.18
20.40,-3.37,-10.54,-3.37,-10.55,6.00,5.77,2.98,2.63,2.63,7.17
20.61,-3.29,-10.46,-3.29,-10.45,6.00,5.79,3.06,2.71,2.71,7.17
20.81,-3.21,-10.36,-3.21,-10.36,6.00,5.82,3.15,2.79,2.79,7.15
21.02,-3.13,-10.27,-3.13,-10.27,6.00,5.84,3.24,2.87,2.87,7.14
21.23,-3.05,-10.18,-3.05,-10.18,6.00,5.87,3.34,2.95,2.95,7.13
21.44,-2.97,-10.11,-2.97,-10.10,6.00,5.89,3.43,3.03,3.03,7.14
21.66,-2.89,-10.02,-2.89,-10.02,6.00,5.92,3.53,3.11,3.11,7.13
21.87,-2.82,-9.94,-2.82,-9.94,6.00,5.94,3.63,3.18,3.18,7.12
22.09,-2.74,-9.85,-2.74,-9.85,6.00,5.96,3.74,3.26,3.26,7.11
22.31,-2.66,-9.77,-2.66,-9.77,6.00,5.99,3.85,3.34,3.34,7.11
22.54,-2.58,-9.68,-2.58,-9.68,6.00,6.01,3.96,3.42,3.42,7.10
22.76,-2.50,-9.61,-2.50,-9.60,6.00,6.03,4.07,3.50,3.50,7.11
22.99,-2.42,-9.52,-2.42,-9.52,6.00,6.05,4.19,3.58,3.58,7.10
23.22,-2.35,-9.44,-2.35,-9.44,6.00,6.07,4.31,3.65,3.65,7.09
23.45,-2.27,-9.35,-2.27,-9.35,6.00,6.08,4.43,3.73,3.73,7.09
23.69,-2.19,-9.28,-2.19,-9.27,6.00,6.10,4.55,3.81,3.81,7.08
23.92,-2.11,-9.19,-2.11,-9.20,6.00,6.12,4.68,3.89,3.89,7.08
24.16,-2.04,-9.12,-2.04,-9.12,6.00,6.13,4.81,3.96,3.96,7.08
24.40,-1.96,-9.05,-1.96,-9.05,6.00,6.15,4.94,4.04,4.04,7.09
24.65,-1.89,-8.98,-1.89,-8.98,6.00,6.16,5.07,4.11,4.11,7.09
24.89,-1.81,-8.89,-1.81,-8.89,6.00,6.18,5.20,4.19,4.19,7.08
25.14,-1.74,-8.81,-1.74,-8.81,6.00,6.19,5.34,4.26,4.26,7.07
25.39,-1.66,-8.73,-1.66,-8.73,6.00,6.20,5.48,4.34,4.34,7.07
25.65,-1.59,-8.65,-1.59,-8.65,6.00,6.21,5.62,4.41,4.41,7.06
25.91,-1.52,-8.58,-1.52,-8.58,6.00,6.22,5.75,4.48,4.48,7.06
26.16,-1.44,-8.51,-1.44,-8.50,6.00,6.23,5.89,4.56,4.56,7.07
26.43,-1.37,-8.43,-1.37,-8.43,6.00,6.24,6.03,4.63,4.63,7.06
26.69,-1.30,-8.36,-1.30,-8.35,6.00,6.25,6.17,4.70,4.70,7.06
26.96,-1.22,-8.28,-1.22,-8.27,6.00,6.25,6.30,4.78,4.78,7.05
27.23,-1.15,-8.19,-1.15,-8.20,6.00,6.26,6.43,4.85,4.85,7.04
27.50,-1.08,-8.12,-1.08,-8.13,6.00,6.27,6.56,4.92,4.92,7.04
27.77,-1.02,-8.07,-1.02,-8.06,6.00,6.27,6.69,4.98,4.98,7.05
28.05,-0.95,-8.00,-0.95,-8.00,6.00,6.27,6.81,5.05,5.05,7.05
28.33,-0.88,-7.93,-0.88,-7.93,6.00,6.28,6.92,5.12,5.12,7.05
28.62,-0.82,-7.87,-0.82,-7.87,6.00,6.28,7.03,5.18,5.18,7.05
28.90,-0.75,-7.81,-0.75,-7.80,6.00,6.28,7.13,5.25,5.25,7.06
29.19,-0.69,-7.74,-0.69,-7.74,6.00,6.28,7.22,5.31,5.31,7.05
29.48,-0.63,-7.68,-0.63,-7.68,6.00,6.28,7.30,5.37,5.37,7.05
29.78,-0.57,-7.62,-0.57,-7.63,6.00,6.28,7.38,5.43,5.43,7.05
30.08,-0.51,-7.58,-0.51,-7.57,6.00,6.27,7.44,5.49,5.49,7.07
30.38,-0.46,-7.52,-0.46,-7.52,6.00,6.27,7.49,5.54,5.54,7.06
30.68,-0.42,-7.48,-0.42,-7.48,6.00,6.27,7.53,5.58,5.58,7.06
30.99,-0.37,-7.43,-0.37,-7.43,6.00,6.26,7.56,5.63,5.63,7.05
31.30,-0.33,-7.38,-0.33,-7.38,6.00,6.26,7.57,5.67,5.67,7.05
31.61,-0.28,-7.33,-0.28,-7.33,6.00,6.25,7.57,5.72,5.72,7.05
31.93,-0.23,-7.27,-0.23,-7.28,6.00,6.24,7.57,5.77,5.77,7.04
32.24,-0.19,-7.23,-0.19,-7.22,6.00,6.23,7.54,5.81,5.81,7.04
32.57,-0.15,-7.17,-0.15,-7.17,6.00,6.23,7.51,5.85,5.85,7.02
32.89,-0.10,-7.12,-0.10,-7.13,6.00,6.22,7.47,5.90,5.90,7.02
33.22,-0.06,-7.08,-0.06,-7.08,6.00,6.21,7.42,5.94,5.94,7.02
33.55,-0.02,-7.04,-0.02,-7.03,6.00,6.20,7.36,5.98,5.98,7.02
33.89,0.03,-6.97,0.03,-6.98,6.00,6.18,7.29,6.03,6.03,7.00
34.23,0.07,-6.92,0.07,-6.92,6.00,6.17,7.21,6.07,6.07,6.99
34.57,0.11,-6.88,0.11,-6.88,6.00,6.16,7.12,6.11,6.11,6.99
34.92,0.15,-6.83,0.15,-6.83,6.00,6.14,7.03,6.15,6.15,6.98
35.27,0.19,-6.79,0.19,-6.78,6.00,6.13,6.94,6.19,6.19,6.98
35.62,0.23,-6.72,0.23,-6.73,6.00,6.11,6.84,6.23,6.23,6.95
35.97,0.28,-6.67,0.27,-6.67,6.00,6.10,6.74,6.28,6.27,6.95
36.33,0.31,-6.62,0.31,-6.62,6.00,6.08,6.63,6.31,6.31,6.93
36.70,0.35,-6.57,0.35,-6.57,6.00,6.06,6.53,6.35,6.35,6.92
37.06,0.39,-6.52,0.39,-6.52,6.00,6.04,6.42,6.39,6.39,6.91
37.43,0.42,-6.47,0.42,-6.47,6.00,6.02,6.31,6.42,6.42,6.89
37.81,0.45,-6.43,0.45,-6.42,6.00,6.00,6.20,6.45,6.45,6.88
38.19,0.49,-6.36,0.49,-6.37,6.00,5.98,6.10,6.49,6.49,6.85
38.57,0.52,-6.32,0.52,-6.32,6.00,5.96,5.99,6.52,6.52,6.84
38.95,0.55,-6.26,0.55,-6.26,6.01,5.94,5.89,6.56,6.56,6.82
39.34,0.58,-6.21,0.58,-6.21,6.01,5.91,5.79,6.59,6.59,6.79
39.74,0.62,-6.16,0.62,-6.15,6.01,5.89,5.69,6.63,6.62,6.78
40.14,0.66,-6.09,0.66,-6.10,6.00,5.86,5.59,6.66,6.65,6.75
40.54,0.69,-6.05,0.69,-6.04,5.98,5.83,5.50,6.67,6.68,6.74
40.94,0.73,-5.98,0.73,-5.99,5.96,5.80,5.41,6.69,6.69,6.71
41.35,0.76,-5.93,0.76,-5.94,5.93,5.77,5.32,6.69,6.69,6.69
41.76,0.79,-5.89,0.79,-5.89,5.89,5.73,5.23,6.68,6.68,6.68
42.18,0.82,-5.84,0.82,-5.84,5.85,5.70,5.15,6.67,6.67,6.66
42.60,0.85,-5.79,0.85,-5.79,5.80,5.66,5.07,6.65,6.64,6.64
43.03,0.87,-5.74,0.88,-5.74,5.74,5.62,5.00,6.61,6.62,6.61
43.46,0.91,-5.68,0.91,-5.68,5.69,5.58,4.93,6.60,6.59,6.59
43.90,0.94,-5.63,0.94,-5.63,5.63,5.54,4.86,6.57,6.57,6.57
44.33,0.97,-5.58,0.97,-5.58,5.57,5.49,4.80,6.55,6.55,6.55
44.78,1.00,-5.52,1.00,-5.52,5.52,5.45,4.74,6.52,6.52,6.52
45.23,1.04,-5.46,1.04,-5.46,5.46,5.40,4.68,6.49,6.49,6.50
45.68,1.07,-5.40,1.07,-5.39,5.39,5.36,4.63,6.46,6.46,6.47
46.13,1.10,-5.33,1.10,-5.33,5.33,5.31,4.58,6.43,6.43,6.43
46.60,1.14,-5.26,1.14,-5.26,5.27,5.26,4.54,6.41,6.40,6.40
47.06,1.17,-5.20,1.17,-5.20,5.20,5.21,4.49,6.37,6.37,6.37
47.53,1.20,-5.14,1.20,-5.13,5.13,5.16,4.46,6.33,6.33,6.34
48.01,1.23,-5.06,1.23,-5.07,5.07,5.11,4.42,6.30,6.29,6.29
48.49,1.25,-5.01,1.25,-5.01,5.00,5.05,4.39,6.25,6.25,6.26
48.97,1.28,-4.94,1.28,-4.94,4.93,5.00,4.36,6.21,6.21,6.22
49.46,1.31,-4.88,1.31,-4.87,4.87,4.95,4.33,6.18,6.18,6.19
49.96,1.35,-4.79,1.35,-4.80,4.80,4.90,4.31,6.15,6.15,6.14
50.46,1.38,-4.73,1.38,-4.73,4.74,4.84,4.28,6.12,6.12,6.11
50.96,1.41,-4.67,1.41,-4.67,4.68,4.79,4.26,6.09,6.09,6.08
51.47,1.44,-4.61,1.44,-4.61,4.61,4.74,4.24,6.05,6.05,6.05
51.99,1.47,-4.55,1.47,-4.55,4.54,4.68,4.23,6.01,6.01,6.02
52.51,1.50,-4.48,1.50,-4.49,4.48,4.63,4.21,5.98,5.98,5.98
53.03,1.53,-4.43,1.53,-4.42,4.41,4.58,4.20,5.94,5.94,5.96
53.56,1.57,-4.34,1.57,-4.35,4.34,4.52,4.19,5.91,5.91,5.91
54.10,1.61,-4.27,1.61,-4.27,4.27,4.47,4.18,5.88,5.88,5.88
54.64,1.64,-4.20,1.64,-4.20,4.21,4.41,4.16,5.85,5.85,5.84
55.18,1.67,-4.13,1.67,-4.13,4.14,4.36,4.15,5.81,5.81,5.80
55.74,1.70,-4.06,1.70,-4.07,4.08,4.31,4.14,5.78,5.77,5.76
56.29,1.72,-4.02,1.72,-4.02,4.02,4.25,4.13,5.74,5.74,5.74
56.86,1.74,-3.98,1.74,-3.96,3.96,4.20,4.11,5.70,5.71,5.72
57.42,1.77,-3.91,1.77,-3.91,3.91,4.14,4.10,5.68,5.68,5.68
58.00,1.80,-3.85,1.80,-3.86,3.86,4.09,4.08,5.66,5.65,5.65
58.58,1.82,-3.82,1.82,-3.81,3.81,4.03,4.07,5.63,5.63,5.64
59.16,1.85,-3.76,1.85,-3.76,3.75,3.98,4.05,5.60,5.60,5.61
59.76,1.87,-3.71,1.87,-3.71,3.70,3.92,4.02,5.57,5.57,5.58
60.35,1.89,-3.65,1.89,-3.65,3.65,3.87,4.00,5.54,5.54,5.54
60.96,1.90,-3.59,1.90,-3.59,3.59,3.82,3.97,5.49,5.50,5.49
61.57,1.91,-3.53,1.91,-3.54,3.54,3.76,3.94,5.45,5.45,5.44
62.18,1.91,-3.49,1.91,-3.49,3.49,3.71,3.91,5.40,5.40,5.40
62.80,1.91,-3.44,1.91,-3.44,3.44,3.65,3.87,5.35,5.35,5.35
63.43,1.92,-3.39,1.92,-3.39,3.39,3.60,3.83,5.31,5.31,5.31
64.07,1.93,-3.34,1.93,-3.34,3.34,3.54,3.79,5.27,5.27,5.27
64.71,1.94,-3.30,1.94,-3.29,3.29,3.49,3.74,5.23,5.23,5.24
65.35,1.96,-3.24,1.96,-3.24,3.24,3.43,3.69,5.20,5.19,5.20
66.01,1.97,-3.19,1.97,-3.19,3.19,3.38,3.64,5.16,5.16,5.16
66.67,1.99,-3.14,1.99,-3.13,3.13,3.32,3.59,5.12,5.12,5.13
67.33,2.01,-3.07,2.01,-3.08,3.08,3.27,3.53,5.09,5.08,5.08
68.01,2.02,-3.02,2.02,-3.02,3.03,3.22,3.47,5.05,5.05,5.04
68.69,2.03,-2.97,2.03,-2.97,2.97,3.16,3.41,5.00,5.00,5.00
69.37,2.05,-2.92,2.05,-2.92,2.92,3.11,3.34,4.97,4.96,4.97
70.07,2.06,-2.87,2.06,-2.87,2.86,3.05,3.28,4.92,4.93,4.93
70.77,2.08,-2.81,2.08,-2.81,2.81,3.00,3.21,4.89,4.89,4.89
71.48,2.08,-2.77,2.08,-2.76,2.76,2.94,3.14,4.84,4.85,4.85
72.19,2.09,-2.71,2.09,-2.71,2.72,2.89,3.07,4.81,4.81,4.80
72.91,2.09,-2.67,2.09,-2.67,2.68,2.84,3.00,4.77,4.77,4.76
73.64,2.09,-2.63,2.09,-2.63,2.64,2.78,2.93,4.73,4.73,4.72
74.38,2.09,-2.59,2.09,-2.60,2.60,2.73,2.86,4.69,4.69,4.68
75.12,2.08,-2.57,2.08,-2.56,2.56,2.68,2.79,4.64,4.65,4.65
75.87,2.08,-2.54,2.08,-2.54,2.53,2.62,2.72,4.61,4.61,4.62
76.63,2.08,-2.51,2.08,-2.51,2.50,2.57,2.65,4.58,4.58,4.59
77.40,2.08,-2.48,2.08,-2.47,2.47,2.52,2.58,4.55,4.56,4.56
78.17,2.09,-2.44,2.09,-2.44,2.45,2.47,2.51,4.54,4.53,4.53
78.95,2.09,-2.41,2.09,-2.41,2.42,2.41,2.44,4.51,4.51,4.50
79.74,2.09,-2.39,2.09,-2.38,2.39,2.36,2.37,4.48,4.48,4.48
80.54,2.09,-2.35,2.09,-2.36,2.36,2.31,2.30,4.45,4.45,4.44
81.35,2.09,-2.33,2.09,-2.33,2.32,2.26,2.23,4.41,4.41,4.42
82.16,2.09,-2.30,2.09,-2.29,2.29,2.21,2.17,4.38,4.38,4.39
82.98,2.10,-2.25,2.10,-2.25,2.24,2.16,2.10,4.34,4.34,4.35
83.81,2.12,-2.20,2.12,-2.20,2.19,2.11,2.04,4.31,4.31,4.32
84.65,2.14,-2.15,2.14,-2.14,2.13,2.06,1.98,4.27,4.28,4.29
85.50,2.17,-2.08,2.17,-2.08,2.07,2.01,1.92,4.24,4.25,4.25
86.35,2.21,-2.01,2.21,-2.01,2.01,1.96,1.86,4.22,4.22,4.22
87.22,2.24,-1.95,2.24,-1.94,1.95,1.91,1.80,4.19,4.19,4.19
88.09,2.26,-1.88,2.26,-1.88,1.90,1.86,1.74,4.16,4.16,4.14
88.97,2.28,-1.83,2.27,-1.83,1.85,1.81,1.68,4.13,4.13,4.11
89.86,2.28,-1.79,2.28,-1.79,1.81,1.76,1.63,4.09,4.09,4.07
90.76,2.27,-1.77,2.27,-1.76,1.77,1.71,1.58,4.04,4.04,4.04
91.66,2.27,-1.73,2.27,-1.73,1.73,1.67,1.52,4.00,4.00,4.00
92.58,2.26,-1.71,2.26,-1.70,1.69,1.62,1.47,3.95,3.96,3.97
93.51,2.27,-1.66,2.27,-1.67,1.65,1.57,1.42,3.92,3.92,3.93
94.44,2.27,-1.63,2.27,-1.62,1.60,1.53,1.37,3.87,3.88,3.90
95.39,2.29,-1.56,2.29,-1.56,1.55,1.48,1.33,3.84,3.84,3.85
96.34,2.32,-1.49,2.32,-1.49,1.49,1.43,1.28,3.81,3.80,3.81
97.30,2.35,-1.42,2.35,-1.42,1.42,1.39,1.23,3.77,3.77,3.77
98.28,2.38,-1.35,2.38,-1.35,1.35,1.34,1.19,3.73,3.73,3.73
99.26,2.41,-1.27,2.41,-1.27,1.28,1.30,1.14,3.69,3.70,3.68
100.25,2.45,-1.20,2.45,-1.21,1.22,1.25,1.10,3.67,3.66,3.65
101.25,2.48,-1.15,2.48,-1.14,1.15,1.21,1.06,3.63,3.63,3.63
102.27,2.50,-1.09,2.50,-1.09,1.09,1.17,1.02,3.59,3.59,3.59
103.29,2.52,-1.03,2.52,-1.04,1.03,1.12,0.98,3.55,3.55,3.55
104.32,2.54,-1.00,2.54,-0.99,0.98,1.08,0.94,3.52,3.52,3.54
105.37,2.57,-0.93,2.57,-0.93,0.93,1.04,0.90,3.50,3.50,3.50
106.42,2.59,-0.88,2.59,-0.88,0.88,1.00,0.87,3.47,3.47,3.47
107.48,2.60,-0.83,2.61,-0.83,0.84,0.96,0.83,3.44,3.45,3.43
108.56,2.62,-0.79,2.61,-0.79,0.80,0.92,0.80,3.42,3.41,3.41
109.64,2.61,-0.76,2.61,-0.76,0.77,0.88,0.76,3.38,3.38,3.37
110.74,2.60,-0.74,2.61,-0.73,0.73,0.84,0.73,3.33,3.34,3.34
111.85,2.60,-0.70,2.60,-0.71,0.70,0.80,0.70,3.30,3.29,3.30
112.97,2.59,-0.68,2.59,-0.68,0.67,0.76,0.66,3.26,3.26,3.27
114.10,2.59,-0.65,2.59,-0.64,0.63,0.72,0.63,3.22,3.22,3.24
115.24,2.59,-0.60,2.59,-0.61,0.60,0.69,0.60,3.19,3.19,3.19
116.39,2.59,-0.56,2.59,-0.56,0.57,0.65,0.57,3.16,3.16,3.15
117.55,2.59,-0.53,2.59,-0.52,0.53,0.61,0.55,3.12,3.12,3.12
118.73,2.59,-0.49,2.59,-0.49,0.50,0.58,0.52,3.09,3.09,3.08
119.92,2.59,-0.46,2.59,-0.46,0.47,0.54,0.49,3.06,3.06,3.05
121.12,2.59,-0.44,2.59,-0.43,0.43,0.51,0.47,3.02,3.02,3.03
122.33,2.59,-0.40,2.59,-0.41,0.40,0.47,0.44,2.99,2.99,2.99
123.55,2.59,-0.37,2.59,-0.38,0.37,0.44,0.42,2.96,2.96,2.96
124.79,2.59,-0.35,2.59,-0.34,0.34,0.40,0.39,2.93,2.93,2.94
126.03,2.59,-0.31,2.59,-0.31,0.31,0.37,0.37,2.90,2.90,2.90
127.29,2.59,-0.28,2.59,-0.28,0.28,0.34,0.35,2.87,2.87,2.87
128.57,2.59,-0.25,2.59,-0.24,0.24,0.31,0.33,2.83,2.83,2.84
129.85,2.59,-0.21,2.59,-0.21,0.20,0.28,0.31,2.79,2.79,2.80
131.15,2.59,-0.17,2.59,-0.17,0.16,0.24,0.29,2.75,2.75,2.76
132.46,2.60,-0.12,2.60,-0.12,0.12,0.21,0.27,2.72,2.72,2.72
133.79,2.61,-0.07,2.61,-0.07,0.08,0.18,0.25,2.69,2.69,2.68
135.12,2.62,-0.02,2.62,-0.03,0.04,0.16,0.23,2.66,2.66,2.64
136.48,2.62,-0.01,2.62,-0.00,0.01,0.13,0.21,2.63,2.63,2.63
137.84,2.61,0.02,2.61,0.02,-0.02,0.10,0.19,2.59,2.60,2.59
139.22,2.60,0.05,2.60,0.04,-0.04,0.07,0.18,2.56,2.56,2.55
140.61,2.58,0.05,2.58,0.05,-0.05,0.04,0.16,2.53,2.53,2.53
142.02,2.54,0.05,2.55,0.05,-0.05,0.02,0.14,2.49,2.50,2.49
143.44,2.52,0.06,2.52,0.05,-0.05,-0.01,0.13,2.47,2.47,2.46
144.87,2.48,0.03,2.48,0.04,-0.04,-0.03,0.11,2.44,2.44,2.45
146.32,2.46,0.04,2.46,0.03,-0.03,-0.06,0.10,2.43,2.42,2.42
147.78,2.42,0.02,2.42,0.02,-0.02,-0.08,0.08,2.40,2.40,2.40
149.26,2.39,0.02,2.39,0.02,-0.01,-0.11,0.06,2.38,2.38,2.37
150.75,2.35,0.00,2.35,0.01,-0.01,-0.13,0.05,2.34,2.35,2.35
152.26,2.33,0.00,2.32,-0.00,-0.01,-0.15,0.03,2.32,2.32,2.33
153.78,2.30,-0.00,2.30,-0.00,-0.01,-0.17,0.02,2.29,2.29,2.30
155.32,2.28,0.00,2.29,0.01,-0.02,-0.19,0.00,2.26,2.27,2.28
156.88,2.28,0.03,2.28,0.02,-0.03,-0.21,-0.01,2.25,2.24,2.25
158.44,2.27,0.05,2.27,0.05,-0.05,-0.24,-0.03,2.22,2.22,2.22
160.03,2.27,0.07,2.27,0.07,-0.07,-0.25,-0.04,2.20,2.20,2.20
161.63,2.26,0.09,2.26,0.10,-0.09,-0.27,-0.06,2.17,2.17,2.17
163.24,2.25,0.12,2.25,0.12,-0.11,-0.29,-0.08,2.14,2.14,2.13
164.88,2.23,0.13,2.23,0.14,-0.13,-0.31,-0.09,2.10,2.10,2.10
166.53,2.21,0.14,2.21,0.14,-0.14,-0.33,-0.11,2.07,2.07,2.07
168.19,2.19,0.15,2.19,0.15,-0.15,-0.34,-0.12,2.04,2.03,2.04
169.87,2.15,0.15,2.16,0.16,-0.15,-0.36,-0.14,2.00,2.01,2.00
171.57,2.13,0.16,2.12,0.15,-0.15,-0.38,-0.16,1.98,1.98,1.97
173.29,2.09,0.15,2.08,0.15,-0.14,-0.39,-0.18,1.95,1.94,1.94
175.02,2.03,0.13,2.04,0.13,-0.13,-0.41,-0.19,1.90,1.91,1.90
176.77,1.99,0.12,1.99,0.11,-0.11,-0.42,-0.21,1.88,1.87,1.87
178.54,1.93,0.09,1.94,0.10,-0.10,-0.43,-0.23,1.83,1.84,1.84
180.32,1.89,0.09,1.89,0.08,-0.08,-0.45,-0.25,1.81,1.80,1.80
182.13,1.84,0.07,1.83,0.06,-0.07,-0.46,-0.26,1.77,1.76,1.77
183.95,1.78,0.04,1.79,0.05,-0.06,-0.47,-0.28,1.72,1.72,1.74
185.79,1.74,0.04,1.75,0.05,-0.06,-0.48,-0.30,1.68,1.69,1.70
187.65,1.72,0.05,1.72,0.05,-0.06,-0.49,-0.32,1.66,1.66,1.67
189.52,1.70,0.07,1.70,0.07,-0.06,-0.50,-0.34,1.63,1.63,1.63
191.42,1.68,0.08,1.68,0.08,-0.07,-0.51,-0.36,1.61,1.61,1.60
193.33,1.66,0.09,1.66,0.09,-0.09,-0.52,-0.38,1.57,1.57,1.57
195.27,1.63,0.10,1.63,0.10,-0.10,-0.53,-0.40,1.53,1.53,1.53
197.22,1.61,0.12,1.61,0.11,-0.12,-0.54,-0.42,1.49,1.50,1.49
199.19,1.60,0.12,1.60,0.13,-0.14,-0.55,-0.44,1.46,1.47,1.48
201.18,1.60,0.16,1.60,0.15,-0.15,-0.56,-0.46,1.45,1.44,1.44
203.19,1.60,0.18,1.60,0.18,-0.17,-0.56,-0.48,1.43,1.43,1.42
205.23,1.60,0.20,1.60,0.20,-0.20,-0.57,-0.50,1.40,1.40,1.40
207.28,1.60,0.22,1.60,0.22,-0.22,-0.57,-0.52,1.38,1.38,1.38
209.35,1.60,0.25,1.60,0.25,-0.25,-0.58,-0.54,1.35,1.35,1.35
211.44,1.61,0.28,1.61,0.28,-0.28,-0.58,-0.56,1.33,1.33,1.33
213.56,1.62,0.31,1.62,0.31,-0.31,-0.59,-0.58,1.31,1.31,1.31
215.69,1.64,0.35,1.64,0.35,-0.35,-0.59,-0.59,1.29,1.28,1.29
217.85,1.66,0.39,1.66,0.39,-0.40,-0.59,-0.61,1.26,1.26,1.27
220.03,1.68,0.43,1.68,0.44,-0.44,-0.60,-0.63,1.24,1.24,1.25
222.23,1.71,0.49,1.71,0.49,-0.49,-0.60,-0.64,1.22,1.22,1.22
224.45,1.75,0.55,1.75,0.54,-0.54,-0.60,-0.66,1.21,1.21,1.20
226.70,1.79,0.60,1.79,0.60,-0.59,-0.60,-0.67,1.20,1.20,1.19
228.96,1.83,0.65,1.82,0.64,-0.64,-0.60,-0.69,1.19,1.18,1.18
231.25,1.85,0.69,1.86,0.69,-0.69,-0.60,-0.70,1.16,1.16,1.16
233.57,1.88,0.73,1.89,0.74,-0.74,-0.60,-0.71,1.14,1.15,1.15
235.90,1.92,0.79,1.91,0.78,-0.77,-0.60,-0.72,1.15,1.14,1.13
238.26,1.94,0.82,1.94,0.81,-0.80,-0.60,-0.73,1.14,1.14,1.12
240.64,1.96,0.82,1.96,0.83,-0.82,-0.59,-0.73,1.14,1.14,1.14
243.05,1.97,0.84,1.97,0.85,-0.84,-0.59,-0.74,1.13,1.13,1.13
245.48,1.97,0.86,1.97,0.85,-0.85,-0.59,-0.74,1.12,1.12,1.11
247.93,1.96,0.86,1.96,0.85,-0.85,-0.59,-0.74,1.11,1.11,1.10
250.41,1.95,0.84,1.95,0.84,-0.85,-0.58,-0.74,1.10,1.11,1.11
252.92,1.95,0.83,1.95,0.84,-0.85,-0.58,-0.74,1.10,1.10,1.12
255.45,1.95,0.84,1.95,0.83,-0.84,-0.57,-0.74,1.11,1.10,1.11
258.00,1.95,0.84,1.95,0.84,-0.84,-0.57,-0.73,1.11,1.10,1.11
260.58,1.95,0.84,1.95,0.84,-0.85,-0.56,-0.73,1.10,1.10,1.11
263.19,1.95,0.84,1.95,0.84,-0.85,-0.55,-0.72,1.10,1.10,1.11
265.82,1.96,0.85,1.96,0.85,-0.85,-0.55,-0.71,1.11,1.11,1.11
268.48,1.97,0.86,1.97,0.86,-0.86,-0.54,-0.70,1.11,1.11,1.11
271.16,1.97,0.87,1.97,0.86,-0.86,-0.53,-0.68,1.11,1.11,1.10
273.87,1.96,0.85,1.96,0.86,-0.85,-0.52,-0.67,1.11,1.11,1.11
276.61,1.95,0.85,1.95,0.85,-0.84,-0.52,-0.66,1.11,1.11,1.10
279.38,1.93,0.84,1.93,0.83,-0.83,-0.51,-0.64,1.10,1.11,1.09
282.17,1.91,0.81,1.91,0.81,-0.81,-0.50,-0.62,1.10,1.10,1.10
284.99,1.89,0.78,1.88,0.78,-0.78,-0.49,-0.60,1.11,1.10,1.11
287.84,1.85,0.73,1.86,0.75,-0.76,-0.48,-0.59,1.09,1.10,1.12
290.72,1.83,0.73,1.83,0.72,-0.72,-0.47,-0.57,1.11,1.11,1.10
293.63,1.80,0.69,1.80,0.69,-0.69,-0.46,-0.55,1.11,1.11,1.11
296.57,1.77,0.65,1.77,0.65,-0.64,-0.44,-0.53,1.13,1.13,1.12
299.53,1.73,0.61,1.73,0.61,-0.60,-0.43,-0.51,1.13,1.13,1.12
302.53,1.68,0.55,1.68,0.55,-0.55,-0.42,-0.48,1.13,1.13,1.13
305.55,1.63,0.50,1.63,0.50,-0.50,-0.41,-0.46,1.13,1.13,1.13
308.61,1.58,0.44,1.58,0.44,-0.45,-0.39,-0.44,1.13,1.13,1.14
311.69,1.53,0.38,1.53,0.39,-0.40,-0.38,-0.42,1.13,1.14,1.15
314.81,1.49,0.34,1.49,0.34,-0.35,-0.37,-0.40,1.14,1.14,1.15
317.96,1.45,0.29,1.46,0.30,-0.30,-0.35,-0.37,1.15,1.15,1.16
321.14,1.43,0.26,1.43,0.26,-0.26,-0.34,-0.35,1.17,1.16,1.17
324.35,1.40,0.24,1.40,0.22,-0.22,-0.32,-0.33,1.18,1.18,1.16
327.59,1.37,0.18,1.37,0.19,-0.18,-0.31,-0.31,1.19,1.19,1.19
330.87,1.35,0.16,1.35,0.16,-0.15,-0.29,-0.29,1.20,1.20,1.19
334.18,1.32,0.13,1.32,0.12,-0.12,-0.28,-0.26,1.20,1.20,1.19
337.52,1.29,0.09,1.29,0.09,-0.09,-0.26,-0.24,1.20,1.20,1.20
340.90,1.27,0.06,1.27,0.06,-0.06,-0.24,-0.22,1.21,1.20,1.21
344.30,1.25,0.03,1.26,0.04,-0.05,-0.23,-0.20,1.20,1.21,1.22
347.75,1.26,0.03,1.26,0.03,-0.04,-0.21,-0.18,1.22,1.22,1.23
351.23,1.27,0.03,1.27,0.03,-0.04,-0.19,-0.16,1.23,1.23,1.24
354.74,1.29,0.04,1.29,0.04,-0.05,-0.17,-0.14,1.24,1.24,1.25
358.28,1.32,0.07,1.32,0.06,-0.06,-0.16,-0.12,1.26,1.25,1.25
361.87,1.34,0.09,1.35,0.09,-0.08,-0.14,-0.10,1.26,1.26,1.25
365.49,1.38,0.11,1.38,0.11,-0.11,-0.12,-0.07,1.27,1.27,1.27
369.14,1.41,0.13,1.41,0.13,-0.13,-0.10,-0.05,1.28,1.28,1.28
372.83,1.44,0.15,1.44,0.16,-0.16,-0.08,-0.03,1.28,1.28,1.29
376.56,1.48,0.20,1.48,0.19,-0.19,-0.06,-0.01,1.29,1.29,1.28
380.33,1.51,0.22,1.51,0.22,-0.21,-0.04,0.00,1.30,1.29,1.29
384.13,1.54,0.24,1.54,0.24,-0.24,-0.02,0.02,1.30,1.30,1.30
387.97,1.57,0.26,1.57,0.26,-0.26,-0.00,0.04,1.31,1.31,1.31
391.85,1.60,0.27,1.60,0.28,-0.28,0.02,0.06,1.32,1.32,1.33
395.77,1.62,0.29,1.63,0.30,-0.29,0.04,0.08,1.33,1.33,1.33
399.73,1.65,0.31,1.65,0.31,-0.30,0.06,0.10,1.35,1.35,1.34
403.72,1.67,0.31,1.66,0.31,-0.30,0.08,0.12,1.37,1.36,1.36
407.76,1.66,0.30,1.66,0.30,-0.29,0.10,0.14,1.37,1.37,1.36
411.84,1.65,0.28,1.65,0.28,-0.27,0.12,0.16,1.38,1.38,1.37
415.96,1.63,0.25,1.63,0.25,-0.25,0.15,0.18,1.38,1.38,1.38
420.12,1.60,0.22,1.60,0.22,-0.22,0.17,0.20,1.38,1.39,1.38
424.32,1.57,0.18,1.57,0.18,-0.18,0.19,0.21,1.39,1.39,1.39
428.56,1.54,0.13,1.54,0.13,-0.14,0.21,0.23,1.40,1.40,1.41
432.85,1.51,0.08,1.51,0.09,-0.09,0.24,0.25,1.42,1.42,1.43
437.18,1.47,0.05,1.47,0.05,-0.05,0.26,0.27,1.42,1.43,1.42
441.55,1.44,0.01,1.44,0.01,-0.01,0.28,0.29,1.43,1.43,1.43
445.96,1.40,-0.04,1.40,-0.04,0.04,0.30,0.30,1.44,1.43,1.44
450.42,1.36,-0.09,1.37,-0.08,0.07,0.33,0.32,1.43,1.44,1.45
454.93,1.34,-0.11,1.34,-0.11,0.11,0.35,0.34,1.45,1.45,1.45
459.48,1.33,-0.13,1.32,-0.14,0.13,0.37,0.36,1.46,1.46,1.46
464.07,1.31,-0.17,1.31,-0.16,0.16,0.40,0.37,1.47,1.47,1.48
468.71,1.30,-0.18,1.30,-0.18,0.18,0.42,0.39,1.48,1.48,1.48
473.40,1.29,-0.20,1.29,-0.21,0.20,0.44,0.41,1.49,1.49,1.49
478.13,1.28,-0.22,1.28,-0.22,0.23,0.47,0.42,1.51,1.50,1.50
482.91,1.26,-0.25,1.26,-0.25,0.25,0.49,0.44,1.51,1.52,1.51
487.74,1.25,-0.27,1.25,-0.27,0.28,0.52,0.46,1.53,1.53,1.52
492.62,1.23,-0.30,1.23,-0.30,0.31,0.54,0.47,1.54,1.54,1.53
497.55,1.20,-0.34,1.20,-0.34,0.35,0.56,0.49,1.55,1.55,1.54
502.52,1.16,-0.39,1.16,-0.39,0.39,0.59,0.51,1.55,1.56,1.55
507.55,1.13,-0.44,1.13,-0.44,0.44,0.61,0.52,1.57,1.57,1.57
512.62,1.09,-0.49,1.09,-0.49,0.48,0.64,0.54,1.57,1.57,1.58
517.75,1.06,-0.54,1.06,-0.54,0.52,0.66,0.56,1.58,1.58,1.60
522.93,1.03,-0.58,1.03,-0.57,0.56,0.68,0.57,1.59,1.60,1.61
528.16,1.01,-0.61,1.01,-0.61,0.60,0.71,0.59,1.61,1.61,1.62
533.44,1.00,-0.63,1.00,-0.63,0.63,0.73,0.60,1.63,1.63,1.63
538.77,0.98,-0.66,0.98,-0.66,0.66,0.76,0.62,1.64,1.64,1.64
544.16,0.97,-0.69,0.97,-0.68,0.69,0.78,0.64,1.66,1.66,1.66
549.60,0.96,-0.71,0.96,-0.71,0.71,0.80,0.65,1.67,1.67,1.67
555.10,0.94,-0.75,0.95,-0.74,0.74,0.83,0.67,1.68,1.68,1.69
560.65,0.93,-0.77,0.93,-0.76,0.77,0.85,0.69,1.70,1.70,1.70
