frequency,raw,error,smoothed,error_smoothed,equalization,parametric_eq,fixed_band_eq,equalized_raw,equalized_smoothed,target
20.00,5.27,-0.83,5.28,-0.82,0.85,1.03,0.48,6.12,6.13,6.10
20.20,5.18,-0.91,5.18,-0.92,0.93,1.04,0.50,6.11,6.11,6.09
20.40,5.10,-0.99,5.09,-1.00,1.00,1.05,0.51,6.10,6.09,6.09
20.61,5.01,-1.07,5.01,-1.07,1.06,1.05,0.53,6.07,6.07,6.08
20.81,4.93,-1.14,4.93,-1.14,1.11,1.06,0.54,6.04,6.04,6.07
21.02,4.85,-1.21,4.87,-1.19,1.15,1.07,0.56,6.00,6.03,6.06
21.23,4.85,-1.21,4.85,-1.21,1.19,1.07,0.58,6.04,6.03,6.06
21.44,4.85,-1.22,4.84,-1.22,1.21,1.08,0.60,6.06,6.06,6.07
21.66,4.85,-1.21,4.85,-1.21,1.22,1.08,0.62,6.07,6.07,6.06
21.87,4.85,-1.21,4.85,-1.21,1.22,1.09,0.63,6.07,6.07,6.06
22.09,4.85,-1.20,4.85,-1.20,1.22,1.09,0.65,6.07,6.07,6.05
22.31,4.85,-1.20,4.85,-1.19,1.21,1.09,0.67,6.06,6.06,6.05
22.54,4.85,-1.19,4.85,-1.19,1.19,1.10,0.70,6.05,6.04,6.04
22.76,4.85,-1.19,4.85,-1.19,1.18,1.10,0.72,6.03,6.03,6.05
22.99,4.85,-1.19,4.86,-1.18,1.17,1.10,0.74,6.02,6.02,6.05
23.22,4.87,-1.16,4.87,-1.17,1.15,1.11,0.76,6.03,6.03,6.04
23.45,4.90,-1.13,4.90,-1.14,1.14,1.11,0.78,6.04,6.04,6.04
23.69,4.92,-1.11,4.92,-1.11,1.13,1.11,0.81,6.05,6.05,6.03
23.92,4.94,-1.09,4.94,-1.10,1.12,1.11,0.83,6.06,6.06,6.03
24.16,4.95,-1.09,4.95,-1.09,1.11,1.11,0.85,6.06,6.06,6.04
24.40,4.95,-1.10,4.95,-1.10,1.10,1.11,0.88,6.05,6.05,6.05
24.65,4.95,-1.10,4.95,-1.10,1.08,1.11,0.90,6.03,6.03,6.05
24.89,4.95,-1.10,4.96,-1.09,1.06,1.11,0.93,6.01,6.02,6.05
25.14,4.97,-1.07,4.98,-1.07,1.04,1.11,0.95,6.01,6.02,6.04
25.39,5.01,-1.03,5.01,-1.03,1.02,1.11,0.98,6.03,6.03,6.04
25.65,5.05,-0.99,5.06,-0.98,1.00,1.10,1.00,6.05,6.06,6.04
25.91,5.10,-0.94,5.09,-0.95,0.98,1.10,1.02,6.08,6.07,6.04
26.16,5.10,-0.94,5.10,-0.94,0.97,1.10,1.05,6.07,6.06,6.04
26.43,5.08,-0.94,5.09,-0.94,0.95,1.09,1.07,6.04,6.04,6.03
26.69,5.06,-0.96,5.06,-0.96,0.95,1.09,1.10,6.01,6.01,6.03
26.96,5.04,-0.97,5.05,-0.97,0.95,1.09,1.12,5.99,6.00,6.01
27.23,5.04,-0.96,5.04,-0.97,0.95,1.08,1.14,5.99,5.99,6.00
27.50,5.04,-0.96,5.04,-0.96,0.96,1.07,1.16,6.00,6.00,6.00
27.77,5.04,-0.96,5.04,-0.96,0.96,1.07,1.18,6.00,6.00,6.00
28.05,5.04,-0.96,5.04,-0.96,0.96,1.06,1.20,6.00,6.00,6.00
28.33,5.04,-0.96,5.04,-0.95,0.96,1.05,1.21,6.00,6.00,6.00
28.62,5.04,-0.94,5.04,-0.95,0.96,1.05,1.23,6.00,6.00,5.99
28.90,5.04,-0.95,5.04,-0.95,0.96,1.04,1.24,6.00,6.00,6.00
29.19,5.04,-0.95,5.04,-0.95,0.96,1.03,1.26,6.00,6.00,5.99
29.48,5.04,-0.96,5.04,-0.96,0.96,1.02,1.26,6.00,6.00,6.00
29.78,5.04,-0.96,5.04,-0.96,0.96,1.01,1.27,6.00,6.00,6.00
30.08,5.04,-0.97,5.04,-0.96,0.96,1.00,1.28,6.00,6.00,6.01
30.38,5.04,-0.96,5.04,-0.96,0.96,0.99,1.28,6.00,6.00,6.00
30.68,5.04,-0.95,5.04,-0.95,0.95,0.98,1.28,6.00,6.00,6.00
30.99,5.04,-0.94,5.04,-0.95,0.95,0.97,1.28,5.99,5.99,5.98
31.30,5.04,-0.94,5.04,-0.94,0.94,0.96,1.28,5.98,5.98,5.98
31.61,5.04,-0.94,5.04,-0.94,0.93,0.94,1.27,5.97,5.97,5.98
31.93,5.04,-0.93,5.04,-0.93,0.92,0.93,1.26,5.96,5.96,5.97
32.24,5.04,-0.92,5.04,-0.92,0.90,0.92,1.25,5.94,5.94,5.97
32.57,5.04,-0.91,5.04,-0.91,0.90,0.90,1.24,5.94,5.94,5.95
32.89,5.04,-0.90,5.04,-0.90,0.92,0.89,1.22,5.96,5.96,5.94
33.22,5.04,-0.90,5.05,-0.89,0.95,0.87,1.21,6.00,6.01,5.94
33.55,5.04,-0.89,5.05,-0.88,0.99,0.86,1.19,6.03,6.04,5.94
33.89,5.04,-0.89,5.02,-0.91,1.00,0.84,1.16,6.04,6.02,5.93
34.23,4.95,-0.97,4.91,-1.01,0.98,0.83,1.14,5.93,5.89,5.92
34.57,4.81,-1.11,4.80,-1.12,0.94,0.81,1.12,5.75,5.73,5.92
34.92,4.67,-1.23,4.77,-1.14,0.89,0.79,1.09,5.56,5.66,5.91
35.27,4.88,-1.03,4.94,-0.96,0.84,0.78,1.06,5.72,5.78,5.91
35.62,5.20,-0.69,5.19,-0.71,0.80,0.76,1.03,6.00,5.99,5.89
35.97,5.52,-0.36,5.37,-0.50,0.76,0.74,1.00,6.28,6.13,5.88
36.33,5.37,-0.49,5.37,-0.49,0.71,0.72,0.97,6.08,6.08,5.86
36.70,5.19,-0.66,5.24,-0.61,0.67,0.70,0.94,5.87,5.91,5.85
37.06,5.04,-0.79,5.09,-0.75,0.65,0.69,0.91,5.69,5.74,5.84
37.43,5.04,-0.78,5.03,-0.79,0.66,0.67,0.87,5.70,5.69,5.82
37.81,5.04,-0.76,5.03,-0.77,0.69,0.65,0.84,5.73,5.71,5.80
38.19,5.04,-0.73,5.04,-0.73,0.72,0.63,0.80,5.76,5.76,5.77
38.57,5.04,-0.71,5.04,-0.71,0.73,0.61,0.77,5.77,5.77,5.75
38.95,5.04,-0.68,5.04,-0.68,0.71,0.59,0.73,5.75,5.75,5.73
39.34,5.04,-0.66,5.04,-0.66,0.67,0.57,0.70,5.72,5.72,5.70
39.74,5.04,-0.63,5.04,-0.63,0.64,0.54,0.66,5.68,5.68,5.68
40.14,5.04,-0.61,5.04,-0.61,0.61,0.52,0.63,5.65,5.65,5.65
40.54,5.04,-0.58,5.04,-0.58,0.58,0.50,0.59,5.63,5.63,5.63
40.94,5.04,-0.56,5.04,-0.56,0.56,0.48,0.56,5.61,5.61,5.60
41.35,5.04,-0.54,5.04,-0.54,0.54,0.46,0.53,5.58,5.58,5.58
41.76,5.04,-0.52,5.04,-0.52,0.52,0.43,0.49,5.56,5.56,5.56
42.18,5.04,-0.50,5.04,-0.50,0.50,0.41,0.46,5.54,5.54,5.54
42.60,5.04,-0.47,5.04,-0.47,0.47,0.39,0.42,5.52,5.52,5.52
43.03,5.04,-0.45,5.04,-0.45,0.46,0.37,0.39,5.50,5.50,5.49
43.46,5.04,-0.43,5.04,-0.43,0.44,0.34,0.36,5.48,5.48,5.47
43.90,5.04,-0.40,5.04,-0.40,0.41,0.32,0.32,5.45,5.45,5.45
44.33,5.04,-0.38,5.04,-0.38,0.38,0.30,0.29,5.42,5.42,5.42
44.78,5.04,-0.35,5.04,-0.36,0.33,0.27,0.26,5.37,5.37,5.39
45.23,5.04,-0.33,5.03,-0.33,0.28,0.25,0.22,5.32,5.32,5.37
45.68,5.04,-0.29,5.05,-0.28,0.24,0.22,0.19,5.28,5.29,5.34
46.13,5.07,-0.22,5.11,-0.19,0.20,0.20,0.16,5.28,5.31,5.30
46.60,5.17,-0.10,5.16,-0.11,0.17,0.17,0.13,5.34,5.34,5.27
47.06,5.23,-0.01,5.17,-0.07,0.15,0.15,0.10,5.38,5.31,5.24
47.53,5.11,-0.10,5.12,-0.08,0.12,0.13,0.07,5.24,5.24,5.21
48.01,4.99,-0.16,5.04,-0.12,0.10,0.10,0.04,5.10,5.14,5.15
48.49,4.97,-0.15,4.97,-0.15,0.09,0.07,0.00,5.06,5.06,5.12
48.97,4.95,-0.13,4.95,-0.12,0.08,0.05,-0.03,5.03,5.03,5.08
49.46,4.95,-0.08,4.95,-0.08,0.07,0.02,-0.06,5.02,5.02,5.04
49.96,4.95,-0.03,4.95,-0.05,0.05,-0.00,-0.09,5.01,5.00,4.99
50.46,4.95,-0.01,4.95,-0.01,0.02,-0.03,-0.12,4.98,4.98,4.96
50.96,4.95,0.02,4.95,0.02,-0.02,-0.05,-0.14,4.93,4.93,4.93
51.47,4.95,0.05,4.95,0.06,-0.07,-0.08,-0.17,4.88,4.88,4.90
51.99,4.95,0.10,4.95,0.09,-0.12,-0.11,-0.20,4.83,4.83,4.86
52.51,4.95,0.13,4.95,0.13,-0.16,-0.13,-0.23,4.80,4.80,4.82
53.03,4.95,0.16,4.96,0.18,-0.16,-0.16,-0.26,4.79,4.80,4.79
53.56,4.95,0.21,4.96,0.21,-0.14,-0.18,-0.29,4.81,4.81,4.74
54.10,4.94,0.24,4.93,0.23,-0.11,-0.21,-0.31,4.83,4.82,4.70
54.64,4.85,0.19,4.84,0.18,-0.08,-0.24,-0.34,4.78,4.76,4.66
55.18,4.72,0.10,4.69,0.07,-0.05,-0.26,-0.37,4.67,4.64,4.62
55.74,4.50,-0.08,4.52,-0.06,-0.04,-0.29,-0.39,4.46,4.48,4.58
56.29,4.39,-0.16,4.41,-0.13,-0.04,-0.32,-0.42,4.35,4.37,4.55
56.86,4.39,-0.13,4.44,-0.08,-0.05,-0.34,-0.45,4.34,4.38,4.53
57.42,4.54,0.08,4.55,0.07,-0.08,-0.37,-0.47,4.46,4.47,4.47
58.00,4.75,0.30,4.68,0.23,-0.13,-0.40,-0.49,4.62,4.54,4.45
58.58,4.75,0.32,4.76,0.33,-0.22,-0.43,-0.52,4.53,4.54,4.43
59.16,4.75,0.35,4.77,0.37,-0.32,-0.45,-0.54,4.43,4.45,4.40
59.76,4.75,0.38,4.74,0.37,-0.43,-0.48,-0.56,4.32,4.30,4.37
60.35,4.75,0.44,4.75,0.43,-0.52,-0.51,-0.59,4.23,4.23,4.32
60.96,4.75,0.47,4.83,0.55,-0.58,-0.54,-0.61,4.18,4.26,4.28
61.57,4.93,0.70,4.90,0.67,-0.61,-0.56,-0.63,4.32,4.29,4.23
62.18,5.01,0.83,4.92,0.74,-0.64,-0.59,-0.65,4.37,4.28,4.18
62.80,4.83,0.71,4.87,0.74,-0.66,-0.62,-0.67,4.17,4.20,4.12
63.43,4.72,0.64,4.75,0.68,-0.68,-0.65,-0.69,4.04,4.07,4.08
64.07,4.66,0.63,4.67,0.64,-0.70,-0.67,-0.71,3.96,3.97,4.03
64.71,4.66,0.67,4.65,0.66,-0.71,-0.70,-0.72,3.95,3.94,4.00
65.35,4.66,0.71,4.66,0.70,-0.73,-0.73,-0.74,3.93,3.92,3.95
66.01,4.66,0.75,4.66,0.75,-0.77,-0.76,-0.76,3.89,3.89,3.91
66.67,4.66,0.79,4.65,0.78,-0.83,-0.79,-0.78,3.84,3.82,3.87
67.33,4.66,0.85,4.66,0.85,-0.89,-0.81,-0.79,3.77,3.78,3.81
68.01,4.66,0.89,4.72,0.95,-0.95,-0.84,-0.81,3.71,3.77,3.77
68.69,4.81,1.08,4.80,1.07,-0.99,-0.87,-0.83,3.82,3.80,3.73
69.37,4.86,1.17,4.82,1.14,-1.02,-0.90,-0.84,3.84,3.80,3.69
70.07,4.82,1.19,4.78,1.14,-1.06,-0.93,-0.86,3.76,3.72,3.63
70.77,4.62,1.03,4.68,1.08,-1.09,-0.96,-0.87,3.53,3.58,3.59
71.48,4.56,1.02,4.59,1.04,-1.13,-0.98,-0.89,3.43,3.45,3.55
72.19,4.56,1.06,4.53,1.04,-1.17,-1.01,-0.91,3.39,3.36,3.50
72.91,4.56,1.12,4.55,1.10,-1.19,-1.04,-0.92,3.37,3.36,3.44
73.64,4.56,1.17,4.64,1.24,-1.21,-1.07,-0.94,3.36,3.43,3.40
74.38,4.69,1.33,4.69,1.33,-1.22,-1.10,-0.96,3.47,3.47,3.36
75.12,4.84,1.52,4.69,1.37,-1.25,-1.13,-0.98,3.59,3.44,3.32
75.87,4.55,1.26,4.63,1.35,-1.29,-1.15,-0.99,3.27,3.34,3.29
76.63,4.48,1.24,4.53,1.29,-1.33,-1.18,-1.01,3.16,3.20,3.24
77.40,4.47,1.26,4.45,1.24,-1.37,-1.21,-1.03,3.11,3.08,3.21
78.17,4.47,1.31,4.45,1.28,-1.40,-1.24,-1.05,3.08,3.06,3.17
78.95,4.47,1.33,4.49,1.35,-1.41,-1.27,-1.07,3.06,3.08,3.14
79.74,4.50,1.40,4.57,1.46,-1.41,-1.30,-1.10,3.10,3.16,3.11
80.54,4.65,1.58,4.59,1.52,-1.39,-1.32,-1.12,3.26,3.20,3.07
81.35,4.65,1.62,4.59,1.55,-1.39,-1.35,-1.14,3.27,3.20,3.04
82.16,4.41,1.40,4.49,1.49,-1.39,-1.38,-1.17,3.02,3.11,3.01
82.98,4.37,1.41,4.32,1.35,-1.40,-1.41,-1.19,2.97,2.91,2.96
83.81,4.17,1.25,4.16,1.23,-1.42,-1.44,-1.22,2.75,2.74,2.93
84.65,4.05,1.17,4.12,1.24,-1.43,-1.46,-1.25,2.63,2.70,2.89
85.50,4.14,1.29,4.19,1.34,-1.43,-1.49,-1.27,2.71,2.76,2.85
86.35,4.36,1.56,4.34,1.54,-1.44,-1.52,-1.30,2.92,2.90,2.81
87.22,4.51,1.75,4.43,1.66,-1.48,-1.55,-1.33,3.03,2.95,2.77
88.09,4.44,1.72,4.40,1.67,-1.54,-1.58,-1.37,2.91,2.86,2.72
88.97,4.19,1.51,4.29,1.61,-1.61,-1.60,-1.40,2.58,2.68,2.68
89.86,4.18,1.54,4.18,1.54,-1.67,-1.63,-1.43,2.52,2.51,2.64
90.76,4.18,1.59,4.16,1.57,-1.70,-1.66,-1.47,2.49,2.46,2.60
91.66,4.18,1.64,4.25,1.70,-1.71,-1.68,-1.50,2.47,2.54,2.54
92.58,4.33,1.83,4.31,1.81,-1.73,-1.71,-1.54,2.60,2.58,2.50
93.51,4.39,1.94,4.31,1.85,-1.76,-1.74,-1.58,2.63,2.54,2.45
94.44,4.23,1.82,4.25,1.84,-1.82,-1.77,-1.62,2.42,2.43,2.41
95.39,4.09,1.74,4.14,1.79,-1.87,-1.79,-1.66,2.22,2.27,2.35
96.34,4.09,1.80,4.11,1.81,-1.91,-1.82,-1.70,2.19,2.20,2.30
97.30,4.13,1.89,4.17,1.94,-1.93,-1.84,-1.74,2.21,2.25,2.24
98.28,4.27,2.09,4.19,2.01,-1.94,-1.87,-1.78,2.33,2.25,2.18
99.26,4.20,2.09,4.14,2.02,-1.95,-1.90,-1.82,2.25,2.18,2.11
100.25,3.94,1.88,4.04,1.98,-1.97,-1.92,-1.87,1.98,2.07,2.06
101.25,3.92,1.91,3.94,1.93,-1.97,-1.95,-1.91,1.95,1.96,2.01
102.27,3.91,1.96,3.89,1.94,-1.97,-1.97,-1.96,1.94,1.92,1.95
103.29,3.89,2.00,3.88,1.99,-1.97,-2.00,-2.00,1.93,1.92,1.89
104.32,3.84,2.00,3.83,1.99,-1.97,-2.02,-2.05,1.88,1.87,1.85
105.37,3.75,1.97,3.76,1.98,-1.98,-2.05,-2.09,1.77,1.78,1.78
106.42,3.68,1.95,3.67,1.94,-2.01,-2.07,-2.13,1.67,1.66,1.73
107.48,3.62,1.96,3.63,1.96,-2.03,-2.09,-2.18,1.59,1.60,1.66
108.56,3.59,1.98,3.67,2.06,-2.05,-2.12,-2.22,1.55,1.63,1.62
109.64,3.73,2.17,3.71,2.15,-2.06,-2.14,-2.26,1.67,1.64,1.56
110.74,3.80,2.30,3.68,2.18,-2.09,-2.16,-2.30,1.71,1.60,1.50
111.85,3.56,2.11,3.61,2.15,-2.13,-2.19,-2.34,1.44,1.48,1.45
112.97,3.43,2.03,3.48,2.08,-2.17,-2.21,-2.38,1.27,1.31,1.41
114.10,3.42,2.06,3.42,2.07,-2.20,-2.23,-2.42,1.22,1.22,1.36
115.24,3.45,2.16,3.49,2.19,-2.22,-2.25,-2.45,1.23,1.27,1.29
116.39,3.57,2.32,3.55,2.30,-2.23,-2.27,-2.48,1.34,1.31,1.25
117.55,3.62,2.42,3.54,2.34,-2.24,-2.29,-2.51,1.38,1.30,1.20
118.73,3.43,2.28,3.48,2.32,-2.24,-2.31,-2.54,1.19,1.24,1.16
119.92,3.34,2.23,3.39,2.27,-2.25,-2.33,-2.56,1.09,1.14,1.11
121.12,3.34,2.25,3.31,2.23,-2.27,-2.35,-2.59,1.08,1.05,1.09
122.33,3.29,2.25,3.28,2.23,-2.28,-2.37,-2.60,1.01,1.00,1.04
123.55,3.23,2.22,3.23,2.21,-2.29,-2.39,-2.62,0.94,0.94,1.01
124.79,3.18,2.20,3.20,2.22,-2.30,-2.41,-2.63,0.88,0.90,0.98
126.03,3.19,2.26,3.24,2.30,-2.33,-2.43,-2.64,0.86,0.91,0.94
127.29,3.33,2.44,3.34,2.44,-2.37,-2.44,-2.65,0.96,0.96,0.90
128.57,3.41,2.56,3.36,2.50,-2.42,-2.46,-2.65,0.99,0.94,0.86
129.85,3.41,2.59,3.31,2.49,-2.46,-2.48,-2.65,0.95,0.85,0.83
131.15,3.11,2.32,3.23,2.45,-2.48,-2.49,-2.65,0.63,0.76,0.79
132.46,3.14,2.39,3.22,2.47,-2.48,-2.51,-2.64,0.66,0.74,0.75
133.79,3.28,2.58,3.22,2.52,-2.48,-2.52,-2.63,0.80,0.75,0.70
135.12,3.30,2.64,3.18,2.51,-2.46,-2.53,-2.62,0.84,0.72,0.66
136.48,3.04,2.41,3.06,2.43,-2.44,-2.55,-2.61,0.61,0.62,0.63
137.84,2.79,2.20,2.97,2.38,-2.43,-2.56,-2.60,0.37,0.54,0.59
139.22,2.96,2.42,2.91,2.36,-2.43,-2.57,-2.58,0.53,0.48,0.54
140.61,3.05,2.54,2.92,2.41,-2.44,-2.58,-2.56,0.61,0.48,0.52
142.02,2.85,2.38,2.93,2.46,-2.45,-2.60,-2.54,0.40,0.48,0.47
143.44,2.85,2.42,2.91,2.48,-2.47,-2.61,-2.52,0.38,0.44,0.43
144.87,2.94,2.54,2.89,2.50,-2.51,-2.62,-2.50,0.44,0.39,0.40
146.32,2.96,2.60,2.90,2.54,-2.53,-2.62,-2.48,0.43,0.37,0.36
147.78,2.83,2.51,2.90,2.58,-2.55,-2.63,-2.46,0.28,0.35,0.32
149.26,2.83,2.55,2.87,2.59,-2.55,-2.64,-2.44,0.28,0.32,0.28
150.75,2.90,2.67,2.83,2.59,-2.54,-2.65,-2.42,0.36,0.29,0.24
152.26,2.76,2.55,2.76,2.56,-2.52,-2.65,-2.40,0.24,0.24,0.21
153.78,2.66,2.50,2.65,2.49,-2.50,-2.66,-2.38,0.16,0.15,0.16
155.32,2.51,2.37,2.57,2.44,-2.49,-2.67,-2.36,0.02,0.08,0.14
156.88,2.52,2.43,2.53,2.44,-2.49,-2.67,-2.34,0.03,0.04,0.09
158.44,2.58,2.53,2.51,2.46,-2.50,-2.67,-2.33,0.09,0.02,0.05
160.03,2.47,2.46,2.50,2.50,-2.51,-2.68,-2.31,-0.04,-0.01,0.01
161.63,2.47,2.51,2.48,2.51,-2.53,-2.68,-2.30,-0.06,-0.06,-0.03
163.24,2.46,2.55,2.49,2.57,-2.55,-2.68,-2.28,-0.09,-0.06,-0.08
164.88,2.50,2.63,2.51,2.64,-2.57,-2.68,-2.27,-0.06,-0.05,-0.12
166.53,2.57,2.75,2.47,2.64,-2.57,-2.68,-2.26,-0.00,-0.10,-0.17
168.19,2.36,2.57,2.40,2.61,-2.58,-2.68,-2.25,-0.21,-0.18,-0.21
169.87,2.24,2.50,2.30,2.56,-2.58,-2.68,-2.25,-0.34,-0.28,-0.26
171.57,2.25,2.56,2.21,2.51,-2.59,-2.68,-2.24,-0.34,-0.38,-0.31
173.29,2.18,2.52,2.17,2.52,-2.59,-2.68,-2.24,-0.41,-0.42,-0.34
175.02,2.14,2.53,2.16,2.55,-2.59,-2.67,-2.24,-0.45,-0.43,-0.39
176.77,2.13,2.56,2.17,2.60,-2.58,-2.67,-2.24,-0.45,-0.41,-0.43
178.54,2.21,2.68,2.19,2.66,-2.58,-2.67,-2.24,-0.37,-0.39,-0.47
180.32,2.21,2.72,2.16,2.67,-2.58,-2.66,-2.24,-0.37,-0.42,-0.51
182.13,2.07,2.62,2.09,2.64,-2.59,-2.66,-2.25,-0.52,-0.50,-0.55
183.95,1.96,2.55,1.99,2.57,-2.61,-2.65,-2.26,-0.65,-0.62,-0.58
185.79,1.91,2.54,1.91,2.54,-2.62,-2.64,-2.26,-0.71,-0.71,-0.62
187.65,1.89,2.55,1.89,2.55,-2.63,-2.63,-2.27,-0.74,-0.74,-0.65
189.52,1.91,2.61,1.92,2.60,-2.64,-2.63,-2.29,-0.72,-0.72,-0.69
191.42,1.93,2.65,1.96,2.68,-2.64,-2.62,-2.30,-0.71,-0.68,-0.71
193.33,2.01,2.76,1.98,2.73,-2.65,-2.61,-2.32,-0.63,-0.67,-0.75
195.27,1.98,2.77,1.95,2.74,-2.66,-2.60,-2.33,-0.68,-0.71,-0.79
197.22,1.85,2.68,1.87,2.70,-2.68,-2.59,-2.35,-0.82,-0.80,-0.83
199.19,1.76,2.62,1.78,2.63,-2.69,-2.57,-2.37,-0.93,-0.91,-0.85
201.18,1.71,2.60,1.72,2.60,-2.69,-2.56,-2.39,-0.98,-0.97,-0.89
203.19,1.70,2.62,1.72,2.63,-2.68,-2.55,-2.41,-0.98,-0.96,-0.92
205.23,1.73,2.67,1.74,2.68,-2.66,-2.54,-2.43,-0.93,-0.92,-0.94
207.28,1.77,2.74,1.73,2.70,-2.64,-2.52,-2.45,-0.87,-0.91,-0.97
209.35,1.68,2.69,1.68,2.69,-2.63,-2.51,-2.47,-0.95,-0.95,-1.01
211.44,1.59,2.63,1.61,2.65,-2.63,-2.49,-2.49,-1.03,-1.02,-1.03
213.56,1.52,2.59,1.52,2.59,-2.62,-2.48,-2.52,-1.10,-1.10,-1.07
215.69,1.47,2.56,1.46,2.55,-2.61,-2.46,-2.54,-1.14,-1.15,-1.09
217.85,1.40,2.51,1.42,2.54,-2.59,-2.44,-2.56,-1.18,-1.16,-1.11
220.03,1.40,2.56,1.42,2.57,-2.56,-2.43,-2.58,-1.16,-1.13,-1.15
222.23,1.42,2.60,1.41,2.59,-2.54,-2.41,-2.60,-1.12,-1.13,-1.18
224.45,1.43,2.63,1.36,2.56,-2.52,-2.39,-2.61,-1.09,-1.16,-1.20
226.70,1.26,2.48,1.30,2.52,-2.51,-2.37,-2.63,-1.25,-1.21,-1.22
228.96,1.17,2.40,1.24,2.47,-2.49,-2.35,-2.64,-1.32,-1.25,-1.23
231.25,1.25,2.50,1.19,2.44,-2.47,-2.33,-2.65,-1.22,-1.28,-1.25
233.57,1.19,2.45,1.19,2.45,-2.44,-2.31,-2.66,-1.25,-1.26,-1.26
235.90,1.14,2.42,1.17,2.44,-2.42,-2.29,-2.67,-1.28,-1.25,-1.28
238.26,1.14,2.43,1.12,2.40,-2.40,-2.27,-2.67,-1.25,-1.27,-1.29
240.64,1.09,2.37,1.09,2.37,-2.38,-2.25,-2.67,-1.29,-1.30,-1.27
243.05,1.05,2.33,1.06,2.34,-2.37,-2.23,-2.67,-1.31,-1.30,-1.28
245.48,1.03,2.31,1.06,2.34,-2.35,-2.21,-2.66,-1.32,-1.29,-1.28
247.93,1.07,2.36,1.06,2.34,-2.33,-2.18,-2.65,-1.26,-1.28,-1.29
250.41,1.08,2.36,1.05,2.33,-2.31,-2.16,-2.63,-1.23,-1.26,-1.28
252.92,1.00,2.28,1.03,2.31,-2.29,-2.14,-2.62,-1.29,-1.27,-1.27
255.45,0.99,2.28,0.98,2.27,-2.27,-2.11,-2.59,-1.28,-1.29,-1.29
258.00,0.92,2.22,0.94,2.23,-2.24,-2.09,-2.57,-1.32,-1.30,-1.30
260.58,0.91,2.22,0.91,2.21,-2.20,-2.06,-2.54,-1.29,-1.30,-1.30
263.19,0.87,2.18,0.86,2.17,-2.16,-2.04,-2.51,-1.29,-1.30,-1.31
265.82,0.81,2.13,0.81,2.13,-2.12,-2.01,-2.47,-1.31,-1.31,-1.31
268.48,0.74,2.07,0.74,2.07,-2.08,-1.99,-2.43,-1.34,-1.34,-1.33
271.16,0.68,2.03,0.68,2.02,-2.04,-1.96,-2.39,-1.35,-1.35,-1.35
273.87,0.61,1.96,0.63,1.99,-1.99,-1.93,-2.35,-1.38,-1.36,-1.35
276.61,0.61,1.98,0.60,1.96,-1.96,-1.91,-2.30,-1.34,-1.36,-1.37
279.38,0.56,1.94,0.55,1.93,-1.92,-1.88,-2.25,-1.36,-1.37,-1.38
282.17,0.51,1.89,0.51,1.89,-1.90,-1.85,-2.20,-1.38,-1.39,-1.38
284.99,0.45,1.83,0.47,1.85,-1.87,-1.83,-2.15,-1.42,-1.40,-1.38
287.84,0.44,1.82,0.46,1.84,-1.85,-1.80,-2.10,-1.41,-1.39,-1.37
290.72,0.47,1.86,0.46,1.84,-1.84,-1.77,-2.04,-1.36,-1.38,-1.39
293.63,0.48,1.88,0.45,1.83,-1.82,-1.74,-1.98,-1.34,-1.38,-1.39
296.57,0.39,1.78,0.43,1.81,-1.81,-1.71,-1.93,-1.41,-1.38,-1.39
299.53,0.39,1.77,0.40,1.79,-1.79,-1.68,-1.87,-1.40,-1.39,-1.38
302.53,0.40,1.79,0.38,1.77,-1.77,-1.66,-1.81,-1.37,-1.39,-1.38
305.55,0.38,1.77,0.38,1.76,-1.75,-1.63,-1.75,-1.37,-1.37,-1.39
308.61,0.33,1.71,0.35,1.73,-1.72,-1.60,-1.69,-1.39,-1.37,-1.38
311.69,0.32,1.71,0.31,1.70,-1.69,-1.57,-1.63,-1.37,-1.38,-1.38
314.81,0.26,1.65,0.27,1.65,-1.66,-1.54,-1.57,-1.40,-1.39,-1.39
317.96,0.23,1.62,0.22,1.61,-1.62,-1.51,-1.51,-1.39,-1.40,-1.39
321.14,0.16,1.56,0.18,1.57,-1.58,-1.48,-1.45,-1.42,-1.40,-1.39
324.35,0.14,1.54,0.16,1.55,-1.54,-1.45,-1.40,-1.39,-1.38,-1.40
327.59,0.14,1.53,0.12,1.51,-1.49,-1.41,-1.34,-1.35,-1.38,-1.39
330.87,0.08,1.47,0.07,1.46,-1.46,-1.38,-1.28,-1.37,-1.39,-1.39
334.18,-0.02,1.39,0.01,1.40,-1.42,-1.35,-1.22,-1.43,-1.41,-1.40
337.52,-0.06,1.34,-0.04,1.35,-1.38,-1.32,-1.17,-1.43,-1.42,-1.40
340.90,-0.06,1.33,-0.06,1.33,-1.34,-1.29,-1.11,-1.39,-1.40,-1.39
344.30,-0.06,1.32,-0.07,1.31,-1.30,-1.26,-1.06,-1.35,-1.37,-1.38
347.75,-0.11,1.27,-0.11,1.27,-1.26,-1.22,-1.00,-1.36,-1.36,-1.38
351.23,-0.15,1.24,-0.16,1.22,-1.22,-1.19,-0.95,-1.37,-1.37,-1.38
354.74,-0.22,1.15,-0.20,1.18,-1.18,-1.16,-0.90,-1.40,-1.38,-1.37
358.28,-0.24,1.13,-0.23,1.13,-1.14,-1.13,-0.84,-1.38,-1.37,-1.37
361.87,-0.24,1.12,-0.26,1.09,-1.10,-1.09,-0.79,-1.34,-1.36,-1.36
365.49,-0.31,1.04,-0.29,1.06,-1.06,-1.06,-0.74,-1.36,-1.34,-1.35
369.14,-0.32,1.03,-0.32,1.02,-1.02,-1.03,-0.69,-1.33,-1.34,-1.34
372.83,-0.36,0.98,-0.36,0.98,-0.98,-0.99,-0.64,-1.34,-1.35,-1.33
376.56,-0.40,0.95,-0.41,0.93,-0.95,-0.96,-0.59,-1.35,-1.36,-1.35
380.33,-0.46,0.88,-0.44,0.89,-0.92,-0.92,-0.55,-1.38,-1.37,-1.34
384.13,-0.48,0.86,-0.46,0.88,-0.89,-0.89,-0.50,-1.37,-1.35,-1.34
387.97,-0.47,0.86,-0.47,0.86,-0.85,-0.85,-0.45,-1.32,-1.32,-1.33
391.85,-0.48,0.85,-0.51,0.83,-0.81,-0.82,-0.41,-1.28,-1.31,-1.33
395.77,-0.58,0.76,-0.57,0.77,-0.75,-0.78,-0.36,-1.33,-1.32,-1.34
399.73,-0.68,0.68,-0.66,0.69,-0.67,-0.75,-0.32,-1.35,-1.33,-1.35
403.72,-0.75,0.60,-0.75,0.60,-0.58,-0.71,-0.27,-1.33,-1.34,-1.34
407.76,-0.85,0.51,-0.85,0.51,-0.48,-0.68,-0.23,-1.33,-1.33,-1.36
411.84,-0.96,0.41,-0.97,0.39,-0.36,-0.64,-0.19,-1.32,-1.34,-1.37
415.96,-1.12,0.25,-1.13,0.24,-0.24,-0.60,-0.15,-1.36,-1.37,-1.37
420.12,-1.29,0.09,-1.27,0.10,-0.12,-0.57,-0.11,-1.40,-1.39,-1.38
424.32,-1.42,-0.05,-1.39,-0.02,-0.00,-0.53,-0.07,-1.42,-1.39,-1.37
428.56,-1.45,-0.10,-1.46,-0.11,0.10,-0.49,-0.03,-1.35,-1.36,-1.35
432.85,-1.49,-0.16,-1.51,-0.18,0.17,-0.45,0.01,-1.32,-1.34,-1.33
437.18,-1.56,-0.25,-1.57,-0.26,0.22,-0.42,0.05,-1.34,-1.35,-1.31
441.55,-1.60,-0.31,-1.57,-0.29,0.24,-0.38,0.09,-1.36,-1.33,-1.28
445.96,-1.57,-0.32,-1.52,-0.27,0.24,-0.34,0.12,-1.33,-1.28,-1.24
450.42,-1.37,-0.17,-1.43,-0.23,0.22,-0.30,0.16,-1.15,-1.21,-1.19
454.93,-1.31,-0.16,-1.32,-0.17,0.20,-0.26,0.19,-1.11,-1.12,-1.15
459.48,-1.27,-0.17,-1.21,-0.12,0.17,-0.22,0.22,-1.09,-1.04,-1.10
464.07,-1.12,-0.09,-1.14,-0.11,0.15,-0.18,0.25,-0.97,-1.00,-1.03
468.71,-1.05,-0.08,-1.07,-0.10,0.12,-0.14,0.28,-0.93,-0.95,-0.97
473.40,-1.04,-0.12,-1.02,-0.10,0.11,-0.10,0.31,-0.93,-0.91,-0.92
478.13,-0.99,-0.13,-0.99,-0.13,0.10,-0.06,0.34,-0.89,-0.89,-0.86
482.91,-0.95,-0.14,-0.95,-0.14,0.11,-0.02,0.36,-0.84,-0.84,-0.81
487.74,-0.91,-0.15,-0.89,-0.13,0.14,0.03,0.39,-0.77,-0.76,-0.76
492.62,-0.86,-0.14,-0.86,-0.14,0.17,0.07,0.41,-0.69,-0.69,-0.72
497.55,-0.82,-0.13,-0.84,-0.16,0.20,0.11,0.43,-0.62,-0.64,-0.69
502.52,-0.87,-0.21,-0.86,-0.20,0.23,0.15,0.45,-0.64,-0.63,-0.66
507.55,-0.91,-0.28,-0.91,-0.27,0.25,0.20,0.47,-0.65,-0.66,-0.63
512.62,-0.97,-0.35,-0.95,-0.33,0.28,0.24,0.49,-0.69,-0.68,-0.62
