frequency,raw,error,smoothed,error_smoothed,equalization,parametric_eq,fixed_band_eq,equalized_raw,equalized_smoothed,target
20.00,-1.57,-7.53,-1.58,-7.54,6.00,5.97,2.42,4.43,4.42,5.96
20.20,-1.48,-7.45,-1.48,-7.45,6.00,5.97,2.49,4.52,4.52,5.97
20.40,-1.38,-7.36,-1.38,-7.36,6.00,5.97,2.56,4.62,4.62,5.98
20.61,-1.29,-7.27,-1.29,-7.27,6.00,5.96,2.63,4.71,4.71,5.98
20.81,-1.19,-7.18,-1.20,-7.18,6.00,5.96,2.71,4.81,4.80,5.99
21.02,-1.10,-7.09,-1.10,-7.10,6.00,5.96,2.79,4.90,4.90,5.99
21.23,-1.02,-7.02,-1.02,-7.01,6.00,5.95,2.87,4.98,4.98,6.00
21.44,-0.93,-6.93,-0.93,-6.93,6.00,5.95,2.95,5.07,5.07,6.00
21.66,-0.85,-6.85,-0.85,-6.85,6.00,5.94,3.04,5.15,5.15,6.00
21.87,-0.76,-6.76,-0.77,-6.77,6.00,5.93,3.12,5.24,5.23,6.00
22.09,-0.69,-6.70,-0.69,-6.70,6.00,5.92,3.21,5.31,5.31,6.01
22.31,-0.63,-6.64,-0.63,-6.64,6.00,5.91,3.30,5.37,5.37,6.01
22.54,-0.58,-6.58,-0.58,-6.58,6.00,5.90,3.40,5.42,5.42,6.00
22.76,-0.53,-6.52,-0.53,-6.52,6.00,5.89,3.50,5.47,5.47,5.99
22.99,-0.47,-6.46,-0.48,-6.46,6.00,5.87,3.59,5.53,5.53,5.99
23.22,-0.42,-6.41,-0.42,-6.40,6.01,5.86,3.70,5.59,5.59,5.99
23.45,-0.37,-6.35,-0.38,-6.35,6.01,5.84,3.80,5.64,5.64,5.98
23.69,-0.32,-6.30,-0.32,-6.30,6.01,5.83,3.90,5.69,5.69,5.98
23.92,-0.27,-6.25,-0.26,-6.23,6.00,5.81,4.01,5.73,5.74,5.97
24.16,-0.18,-6.16,-0.18,-6.16,5.98,5.79,4.12,5.80,5.80,5.97
24.40,-0.09,-6.06,-0.09,-6.06,5.96,5.77,4.23,5.87,5.87,5.97
24.65,0.01,-5.97,0.01,-5.96,5.92,5.75,4.34,5.93,5.93,5.97
24.89,0.11,-5.86,0.10,-5.88,5.88,5.72,4.46,5.99,5.98,5.97
25.14,0.17,-5.80,0.17,-5.80,5.83,5.70,4.57,6.00,6.00,5.97
25.39,0.22,-5.74,0.22,-5.75,5.78,5.67,4.69,5.99,5.99,5.96
25.65,0.26,-5.70,0.26,-5.70,5.72,5.65,4.80,5.98,5.98,5.96
25.91,0.30,-5.66,0.30,-5.66,5.66,5.62,4.92,5.96,5.96,5.96
26.16,0.35,-5.61,0.35,-5.61,5.60,5.59,5.03,5.95,5.95,5.96
26.43,0.41,-5.55,0.40,-5.56,5.55,5.56,5.15,5.96,5.95,5.96
26.69,0.46,-5.50,0.46,-5.50,5.50,5.54,5.26,5.96,5.96,5.96
26.96,0.51,-5.45,0.51,-5.45,5.44,5.50,5.37,5.95,5.96,5.96
27.23,0.57,-5.39,0.57,-5.39,5.39,5.47,5.48,5.95,5.95,5.96
27.50,0.63,-5.33,0.63,-5.33,5.33,5.44,5.58,5.95,5.95,5.96
27.77,0.69,-5.27,0.69,-5.27,5.27,5.41,5.68,5.96,5.96,5.96
28.05,0.75,-5.21,0.75,-5.21,5.21,5.37,5.78,5.96,5.96,5.96
28.33,0.81,-5.15,0.81,-5.15,5.16,5.34,5.87,5.96,5.96,5.95
28.62,0.86,-5.10,0.86,-5.10,5.11,5.30,5.95,5.96,5.97,5.95
28.90,0.92,-5.05,0.91,-5.05,5.06,5.26,6.03,5.98,5.97,5.96
29.19,0.96,-5.00,0.96,-5.00,5.01,5.23,6.10,5.97,5.97,5.96
29.48,1.00,-4.96,0.99,-4.97,4.96,5.19,6.16,5.96,5.96,5.96
29.78,1.03,-4.94,1.03,-4.94,4.92,5.15,6.21,5.94,5.95,5.97
30.08,1.07,-4.90,1.07,-4.90,4.88,5.11,6.25,5.94,5.95,5.97
30.38,1.13,-4.84,1.13,-4.84,4.84,5.07,6.29,5.97,5.97,5.97
30.68,1.19,-4.78,1.19,-4.78,4.81,5.02,6.31,5.99,5.99,5.97
30.99,1.25,-4.72,1.23,-4.74,4.77,4.98,6.32,6.02,6.00,5.97
31.30,1.25,-4.72,1.25,-4.72,4.73,4.94,6.32,5.98,5.98,5.96
31.61,1.25,-4.72,1.25,-4.71,4.69,4.90,6.31,5.94,5.94,5.96
31.93,1.25,-4.71,1.26,-4.70,4.65,4.85,6.29,5.90,5.92,5.96
32.24,1.30,-4.65,1.30,-4.65,4.62,4.81,6.26,5.92,5.92,5.95
32.57,1.36,-4.59,1.36,-4.59,4.59,4.76,6.22,5.94,5.95,5.95
32.89,1.43,-4.52,1.41,-4.53,4.56,4.71,6.17,5.98,5.97,5.95
33.22,1.45,-4.49,1.44,-4.50,4.53,4.67,6.11,5.97,5.97,5.94
33.55,1.45,-4.49,1.45,-4.48,4.50,4.62,6.04,5.95,5.95,5.93
33.89,1.45,-4.48,1.45,-4.48,4.48,4.57,5.96,5.93,5.93,5.92
34.23,1.45,-4.47,1.45,-4.47,4.47,4.52,5.88,5.91,5.91,5.92
34.57,1.45,-4.47,1.45,-4.47,4.46,4.47,5.79,5.91,5.91,5.92
34.92,1.45,-4.47,1.45,-4.47,4.47,4.42,5.69,5.91,5.91,5.92
35.27,1.45,-4.47,1.45,-4.47,4.47,4.37,5.59,5.92,5.92,5.92
35.62,1.45,-4.47,1.45,-4.47,4.47,4.32,5.49,5.92,5.92,5.91
35.97,1.45,-4.46,1.45,-4.46,4.47,4.27,5.38,5.92,5.91,5.91
36.33,1.45,-4.46,1.44,-4.47,4.46,4.22,5.27,5.91,5.90,5.91
36.70,1.45,-4.46,1.45,-4.46,4.45,4.17,5.15,5.89,5.89,5.91
37.06,1.46,-4.45,1.47,-4.44,4.43,4.11,5.04,5.88,5.89,5.90
37.43,1.50,-4.40,1.50,-4.41,4.40,4.06,4.92,5.90,5.90,5.90
37.81,1.54,-4.37,1.53,-4.37,4.37,4.01,4.80,5.91,5.91,5.91
38.19,1.58,-4.33,1.58,-4.33,4.34,3.95,4.69,5.92,5.92,5.91
38.57,1.62,-4.29,1.62,-4.29,4.30,3.90,4.57,5.92,5.92,5.90
38.95,1.67,-4.24,1.66,-4.25,4.26,3.85,4.45,5.93,5.92,5.91
39.34,1.70,-4.21,1.70,-4.21,4.22,3.79,4.34,5.91,5.91,5.91
39.74,1.74,-4.17,1.74,-4.17,4.16,3.74,4.22,5.90,5.90,5.91
40.14,1.78,-4.13,1.78,-4.12,4.10,3.68,4.11,5.88,5.88,5.90
40.54,1.85,-4.05,1.84,-4.06,4.03,3.63,4.00,5.88,5.87,5.90
40.94,1.92,-3.98,1.92,-3.97,3.95,3.57,3.89,5.87,5.87,5.90
41.35,2.01,-3.88,2.01,-3.88,3.87,3.51,3.78,5.87,5.88,5.89
41.76,2.11,-3.77,2.10,-3.78,3.78,3.46,3.67,5.89,5.89,5.88
42.18,2.20,-3.68,2.20,-3.67,3.70,3.40,3.57,5.90,5.90,5.87
42.60,2.29,-3.58,2.29,-3.58,3.62,3.34,3.47,5.91,5.91,5.87
43.03,2.37,-3.50,2.35,-3.52,3.55,3.28,3.37,5.92,5.90,5.87
43.46,2.39,-3.47,2.39,-3.47,3.49,3.23,3.27,5.87,5.88,5.86
43.90,2.41,-3.44,2.42,-3.43,3.42,3.17,3.18,5.83,5.84,5.85
44.33,2.46,-3.38,2.46,-3.39,3.36,3.11,3.09,5.82,5.82,5.84
44.78,2.51,-3.33,2.51,-3.33,3.30,3.05,3.00,5.80,5.81,5.84
45.23,2.58,-3.26,2.57,-3.26,3.23,2.99,2.91,5.80,5.80,5.83
45.68,2.65,-3.18,2.65,-3.18,3.16,2.93,2.82,5.80,5.81,5.83
46.13,2.74,-3.09,2.75,-3.08,3.08,2.88,2.74,5.82,5.83,5.83
46.60,2.86,-2.97,2.85,-2.97,3.00,2.82,2.66,5.86,5.86,5.83
47.06,2.97,-2.86,2.94,-2.89,2.92,2.76,2.58,5.89,5.87,5.83
47.53,3.01,-2.83,3.01,-2.82,2.85,2.70,2.50,5.85,5.86,5.83
48.01,3.06,-2.78,3.06,-2.78,2.77,2.64,2.43,5.83,5.83,5.84
48.49,3.11,-2.73,3.10,-2.74,2.70,2.58,2.36,5.81,5.81,5.84
48.97,3.16,-2.69,3.18,-2.66,2.64,2.52,2.28,5.80,5.82,5.84
49.46,3.27,-2.58,3.27,-2.58,2.58,2.46,2.22,5.85,5.85,5.85
49.96,3.39,-2.47,3.35,-2.50,2.51,2.40,2.15,5.90,5.87,5.86
50.46,3.43,-2.43,3.42,-2.44,2.45,2.34,2.08,5.88,5.87,5.86
50.96,3.46,-2.42,3.49,-2.38,2.39,2.28,2.02,5.84,5.88,5.87
51.47,3.55,-2.33,3.56,-2.32,2.32,2.22,1.96,5.87,5.88,5.88
51.99,3.66,-2.22,3.63,-2.25,2.25,2.15,1.90,5.91,5.88,5.88
52.51,3.70,-2.18,3.69,-2.18,2.19,2.09,1.84,5.89,5.88,5.88
53.03,3.73,-2.15,3.74,-2.14,2.13,2.03,1.78,5.85,5.87,5.88
53.56,3.80,-2.08,3.80,-2.08,2.06,1.97,1.72,5.86,5.86,5.88
54.10,3.88,-2.01,3.89,-2.00,2.00,1.91,1.67,5.87,5.89,5.89
54.64,3.99,-1.90,3.97,-1.92,1.93,1.85,1.61,5.92,5.90,5.89
55.18,4.06,-1.83,4.03,-1.86,1.87,1.79,1.56,5.92,5.90,5.89
55.74,4.06,-1.82,4.09,-1.80,1.80,1.72,1.51,5.86,5.89,5.88
56.29,4.12,-1.76,4.14,-1.74,1.74,1.66,1.46,5.86,5.88,5.88
56.86,4.23,-1.65,4.19,-1.68,1.68,1.60,1.40,5.91,5.87,5.88
57.42,4.26,-1.61,4.25,-1.62,1.62,1.54,1.35,5.87,5.86,5.86
58.00,4.26,-1.59,4.30,-1.56,1.55,1.48,1.30,5.81,5.85,5.85
58.58,4.35,-1.49,4.34,-1.50,1.49,1.41,1.25,5.84,5.83,5.84
59.16,4.42,-1.41,4.40,-1.43,1.42,1.35,1.20,5.84,5.82,5.83
59.76,4.45,-1.36,4.46,-1.35,1.36,1.29,1.16,5.80,5.81,5.81
60.35,4.50,-1.29,4.51,-1.28,1.29,1.22,1.11,5.78,5.79,5.79
60.96,4.56,-1.21,4.56,-1.21,1.21,1.16,1.06,5.77,5.77,5.76
61.57,4.62,-1.12,4.61,-1.13,1.13,1.10,1.01,5.75,5.74,5.74
62.18,4.66,-1.05,4.64,-1.06,1.05,1.04,0.96,5.71,5.70,5.70
62.80,4.66,-1.01,4.68,-0.99,0.97,0.97,0.91,5.63,5.65,5.67
63.43,4.71,-0.91,4.72,-0.91,0.89,0.91,0.86,5.60,5.61,5.62
64.07,4.78,-0.81,4.77,-0.81,0.81,0.85,0.81,5.59,5.58,5.58
64.71,4.84,-0.70,4.82,-0.72,0.73,0.78,0.76,5.57,5.55,5.54
65.35,4.87,-0.63,4.86,-0.64,0.65,0.72,0.71,5.52,5.52,5.50
66.01,4.87,-0.59,4.89,-0.57,0.58,0.66,0.66,5.44,5.47,5.46
66.67,4.93,-0.49,4.91,-0.51,0.50,0.59,0.61,5.43,5.42,5.42
67.33,4.96,-0.43,4.95,-0.44,0.43,0.53,0.56,5.39,5.38,5.39
68.01,4.97,-0.38,4.99,-0.36,0.36,0.46,0.51,5.33,5.35,5.35
68.69,5.04,-0.28,5.02,-0.30,0.29,0.40,0.46,5.33,5.32,5.32
69.37,5.07,-0.22,5.06,-0.23,0.23,0.34,0.41,5.30,5.29,5.29
70.07,5.08,-0.18,5.10,-0.16,0.16,0.27,0.36,5.24,5.26,5.26
70.77,5.15,-0.08,5.13,-0.10,0.10,0.21,0.30,5.24,5.22,5.22
71.48,5.17,-0.03,5.17,-0.03,0.03,0.14,0.25,5.20,5.20,5.20
72.19,5.19,0.02,5.21,0.04,-0.04,0.08,0.20,5.15,5.17,5.17
72.91,5.26,0.12,5.24,0.10,-0.10,0.02,0.14,5.16,5.14,5.13
73.64,5.27,0.17,5.26,0.16,-0.17,-0.05,0.09,5.10,5.10,5.10
74.38,5.28,0.21,5.29,0.23,-0.23,-0.11,0.03,5.05,5.06,5.06
75.12,5.31,0.28,5.32,0.29,-0.29,-0.18,-0.02,5.02,5.03,5.03
75.87,5.36,0.38,5.34,0.36,-0.35,-0.24,-0.08,5.00,4.99,4.98
76.63,5.37,0.42,5.36,0.42,-0.42,-0.30,-0.13,4.95,4.94,4.94
77.40,5.37,0.47,5.38,0.48,-0.48,-0.37,-0.19,4.89,4.90,4.90
78.17,5.38,0.52,5.40,0.54,-0.55,-0.43,-0.25,4.83,4.85,4.86
78.95,5.44,0.63,5.42,0.61,-0.62,-0.50,-0.30,4.82,4.80,4.81
79.74,5.46,0.69,5.45,0.68,-0.69,-0.56,-0.36,4.76,4.75,4.77
80.54,5.47,0.75,5.48,0.76,-0.76,-0.62,-0.42,4.71,4.72,4.72
81.35,5.50,0.82,5.51,0.83,-0.82,-0.69,-0.48,4.67,4.69,4.68
82.16,5.57,0.93,5.54,0.91,-0.88,-0.75,-0.54,4.68,4.66,4.64
82.98,5.57,0.97,5.57,0.97,-0.94,-0.82,-0.60,4.63,4.63,4.60
83.81,5.57,1.01,5.57,1.02,-1.00,-0.88,-0.67,4.57,4.58,4.55
84.65,5.57,1.05,5.57,1.05,-1.06,-0.94,-0.73,4.51,4.51,4.52
85.50,5.57,1.09,5.56,1.08,-1.12,-1.00,-0.79,4.45,4.44,4.48
86.35,5.57,1.13,5.57,1.14,-1.19,-1.07,-0.86,4.38,4.39,4.43
87.22,5.59,1.20,5.61,1.22,-1.25,-1.13,-0.92,4.33,4.36,4.39
88.09,5.68,1.33,5.67,1.32,-1.32,-1.19,-0.99,4.35,4.34,4.34
88.97,5.74,1.43,5.73,1.42,-1.39,-1.25,-1.06,4.34,4.33,4.31
89.86,5.77,1.50,5.77,1.50,-1.47,-1.32,-1.12,4.30,4.30,4.26
90.76,5.78,1.56,5.78,1.56,-1.53,-1.38,-1.19,4.24,4.24,4.22
91.66,5.78,1.60,5.78,1.60,-1.60,-1.44,-1.26,4.18,4.18,4.18
92.58,5.78,1.63,5.78,1.64,-1.65,-1.50,-1.33,4.13,4.13,4.14
93.51,5.78,1.68,5.78,1.68,-1.69,-1.56,-1.40,4.09,4.09,4.10
94.44,5.78,1.72,5.78,1.72,-1.72,-1.62,-1.48,4.06,4.06,4.06
95.39,5.78,1.76,5.78,1.76,-1.75,-1.68,-1.55,4.03,4.03,4.02
96.34,5.77,1.79,5.77,1.79,-1.78,-1.73,-1.62,3.98,3.99,3.98
97.30,5.77,1.82,5.76,1.82,-1.83,-1.79,-1.70,3.94,3.93,3.94
98.28,5.76,1.86,5.75,1.86,-1.88,-1.85,-1.77,3.88,3.87,3.89
99.26,5.75,1.89,5.76,1.90,-1.93,-1.91,-1.85,3.81,3.83,3.86
100.25,5.78,1.96,5.78,1.97,-1.99,-1.96,-1.92,3.79,3.79,3.82
101.25,5.83,2.05,5.82,2.05,-2.05,-2.02,-2.00,3.78,3.77,3.78
102.27,5.87,2.14,5.86,2.13,-2.11,-2.07,-2.07,3.76,3.75,3.73
103.29,5.88,2.20,5.87,2.19,-2.16,-2.12,-2.15,3.72,3.71,3.68
104.32,5.87,2.24,5.87,2.23,-2.21,-2.18,-2.22,3.66,3.66,3.63
105.37,5.84,2.25,5.84,2.26,-2.25,-2.23,-2.30,3.59,3.59,3.59
106.42,5.82,2.28,5.82,2.28,-2.28,-2.28,-2.37,3.53,3.53,3.54
107.48,5.79,2.30,5.79,2.30,-2.31,-2.33,-2.44,3.48,3.48,3.49
108.56,5.77,2.33,5.77,2.33,-2.33,-2.38,-2.51,3.44,3.44,3.44
109.64,5.75,2.35,5.75,2.35,-2.35,-2.42,-2.58,3.40,3.39,3.39
110.74,5.73,2.37,5.73,2.37,-2.37,-2.47,-2.65,3.35,3.35,3.35
111.85,5.71,2.39,5.71,2.40,-2.40,-2.51,-2.71,3.31,3.31,3.32
112.97,5.70,2.42,5.70,2.42,-2.43,-2.56,-2.77,3.27,3.27,3.28
114.10,5.70,2.46,5.69,2.45,-2.46,-2.60,-2.83,3.24,3.24,3.24
115.24,5.69,2.48,5.69,2.49,-2.49,-2.64,-2.89,3.20,3.21,3.21
116.39,5.70,2.53,5.69,2.52,-2.51,-2.68,-2.94,3.18,3.18,3.17
117.55,5.70,2.54,5.70,2.55,-2.54,-2.72,-2.99,3.15,3.15,3.15
118.73,5.70,2.57,5.70,2.57,-2.57,-2.76,-3.03,3.13,3.13,3.13
119.92,5.71,2.60,5.71,2.60,-2.60,-2.79,-3.07,3.11,3.11,3.11
121.12,5.72,2.62,5.72,2.62,-2.62,-2.82,-3.10,3.09,3.09,3.09
122.33,5.73,2.65,5.72,2.65,-2.65,-2.86,-3.13,3.08,3.07,3.08
123.55,5.73,2.67,5.73,2.67,-2.68,-2.89,-3.16,3.05,3.05,3.06
124.79,5.74,2.69,5.74,2.69,-2.70,-2.92,-3.18,3.03,3.03,3.05
126.03,5.75,2.72,5.75,2.72,-2.73,-2.94,-3.19,3.02,3.02,3.03
127.29,5.76,2.74,5.76,2.74,-2.74,-2.97,-3.20,3.01,3.01,3.02
128.57,5.76,2.76,5.77,2.76,-2.75,-2.99,-3.21,3.01,3.02,3.00
129.85,5.77,2.78,5.77,2.79,-2.75,-3.01,-3.21,3.02,3.03,2.99
131.15,5.77,2.79,5.75,2.78,-2.74,-3.03,-3.20,3.03,3.01,2.97
132.46,5.73,2.78,5.70,2.75,-2.73,-3.05,-3.19,2.99,2.97,2.95
133.79,5.62,2.68,5.64,2.70,-2.72,-3.07,-3.18,2.90,2.92,2.94
135.12,5.58,2.66,5.60,2.67,-2.71,-3.08,-3.16,2.86,2.88,2.92
136.48,5.59,2.68,5.58,2.67,-2.71,-3.10,-3.14,2.88,2.87,2.91
137.84,5.59,2.70,5.58,2.70,-2.70,-3.11,-3.12,2.88,2.88,2.89
139.22,5.59,2.72,5.59,2.72,-2.71,-3.12,-3.09,2.88,2.88,2.87
140.61,5.59,2.74,5.59,2.74,-2.73,-3.13,-3.07,2.86,2.86,2.85
142.02,5.59,2.76,5.59,2.76,-2.75,-3.13,-3.03,2.84,2.84,2.83
143.44,5.59,2.79,5.59,2.78,-2.78,-3.14,-3.00,2.81,2.81,2.80
144.87,5.59,2.81,5.59,2.81,-2.81,-3.14,-2.97,2.77,2.77,2.78
146.32,5.59,2.84,5.59,2.84,-2.85,-3.14,-2.93,2.74,2.74,2.75
147.78,5.59,2.88,5.59,2.87,-2.89,-3.14,-2.90,2.70,2.70,2.71
149.26,5.59,2.91,5.59,2.91,-2.93,-3.14,-2.86,2.66,2.66,2.68
150.75,5.59,2.96,5.59,2.96,-2.97,-3.13,-2.82,2.62,2.62,2.63
152.26,5.59,3.01,5.59,3.01,-3.00,-3.13,-2.79,2.58,2.59,2.58
153.78,5.59,3.06,5.58,3.05,-3.03,-3.12,-2.75,2.56,2.54,2.52
155.32,5.54,3.08,5.54,3.08,-3.05,-3.11,-2.72,2.49,2.49,2.46
156.88,5.49,3.08,5.49,3.08,-3.06,-3.10,-2.68,2.43,2.42,2.41
158.44,5.42,3.07,5.43,3.08,-3.07,-3.09,-2.65,2.35,2.36,2.35
160.03,5.37,3.07,5.36,3.06,-3.06,-3.07,-2.61,2.30,2.30,2.29
161.63,5.30,3.04,5.29,3.04,-3.06,-3.06,-2.58,2.24,2.23,2.25
163.24,5.23,3.02,5.24,3.03,-3.05,-3.04,-2.55,2.18,2.18,2.20
164.88,5.19,3.01,5.20,3.02,-3.05,-3.03,-2.52,2.14,2.15,2.17
166.53,5.18,3.03,5.18,3.03,-3.04,-3.01,-2.50,2.14,2.13,2.14
168.19,5.18,3.05,5.17,3.04,-3.04,-2.99,-2.47,2.14,2.13,2.13
169.87,5.17,3.05,5.17,3.05,-3.04,-2.97,-2.45,2.13,2.13,2.12
171.57,5.16,3.05,5.16,3.05,-3.03,-2.95,-2.43,2.12,2.13,2.11
173.29,5.16,3.05,5.15,3.04,-3.03,-2.92,-2.41,2.13,2.12,2.11
175.02,5.15,3.02,5.15,3.03,-3.02,-2.90,-2.39,2.12,2.13,2.13
176.77,5.15,3.01,5.15,3.01,-3.02,-2.87,-2.37,2.13,2.13,2.14
178.54,5.15,2.99,5.15,2.99,-3.00,-2.85,-2.36,2.14,2.14,2.15
180.32,5.15,2.97,5.15,2.97,-2.99,-2.82,-2.35,2.16,2.16,2.18
182.13,5.16,2.96,5.16,2.96,-2.96,-2.80,-2.34,2.19,2.20,2.19
183.95,5.17,2.95,5.18,2.96,-2.94,-2.77,-2.33,2.23,2.24,2.22
185.79,5.18,2.95,5.17,2.94,-2.91,-2.74,-2.32,2.27,2.26,2.23
187.65,5.17,2.93,5.14,2.90,-2.89,-2.71,-2.32,2.28,2.25,2.23
189.52,5.07,2.83,5.09,2.85,-2.87,-2.68,-2.31,2.20,2.22,2.24
191.42,5.03,2.79,5.05,2.80,-2.84,-2.65,-2.31,2.19,2.21,2.24
193.33,5.03,2.78,5.03,2.79,-2.81,-2.62,-2.31,2.21,2.22,2.25
195.27,5.05,2.80,5.03,2.79,-2.79,-2.59,-2.31,2.26,2.25,2.24
197.22,5.04,2.81,5.03,2.79,-2.77,-2.56,-2.32,2.27,2.26,2.23
199.19,4.99,2.76,5.00,2.77,-2.75,-2.53,-2.32,2.23,2.25,2.23
201.18,4.97,2.75,4.96,2.74,-2.74,-2.49,-2.33,2.22,2.21,2.22
203.19,4.92,2.71,4.92,2.71,-2.73,-2.46,-2.33,2.19,2.19,2.21
205.23,4.89,2.69,4.90,2.70,-2.71,-2.43,-2.34,2.17,2.19,2.20
207.28,4.89,2.70,4.89,2.70,-2.69,-2.40,-2.35,2.20,2.20,2.19
209.35,4.89,2.71,4.88,2.70,-2.67,-2.36,-2.36,2.22,2.21,2.18
211.44,4.87,2.70,4.83,2.67,-2.64,-2.33,-2.37,2.22,2.19,2.16
213.56,4.75,2.59,4.76,2.61,-2.62,-2.30,-2.38,2.13,2.15,2.15
215.69,4.68,2.54,4.71,2.57,-2.59,-2.26,-2.39,2.09,2.11,2.14
217.85,4.67,2.54,4.67,2.54,-2.56,-2.23,-2.40,2.11,2.10,2.13
220.03,4.67,2.56,4.65,2.54,-2.53,-2.20,-2.40,2.14,2.12,2.11
222.23,4.63,2.52,4.62,2.52,-2.50,-2.16,-2.41,2.13,2.12,2.10
224.45,4.57,2.47,4.56,2.47,-2.47,-2.13,-2.42,2.10,2.10,2.10
226.70,4.50,2.41,4.51,2.42,-2.43,-2.10,-2.43,2.06,2.08,2.09
228.96,4.47,2.38,4.48,2.40,-2.40,-2.06,-2.43,2.07,2.08,2.08
231.25,4.47,2.38,4.46,2.38,-2.37,-2.03,-2.43,2.10,2.09,2.09
233.57,4.47,2.39,4.43,2.35,-2.33,-2.00,-2.43,2.13,2.09,2.08
235.90,4.37,2.28,4.38,2.30,-2.30,-1.96,-2.43,2.07,2.08,2.08
238.26,4.32,2.23,4.35,2.26,-2.27,-1.93,-2.43,2.05,2.08,2.09
240.64,4.33,2.22,4.32,2.22,-2.24,-1.90,-2.42,2.09,2.08,2.10
243.05,4.34,2.23,4.32,2.21,-2.21,-1.86,-2.42,2.13,2.11,2.11
245.48,4.30,2.19,4.31,2.20,-2.18,-1.83,-2.41,2.12,2.13,2.11
247.93,4.29,2.17,4.29,2.17,-2.15,-1.80,-2.39,2.14,2.14,2.12
250.41,4.27,2.14,4.25,2.13,-2.13,-1.77,-2.38,2.14,2.13,2.12
252.92,4.22,2.09,4.22,2.09,-2.10,-1.73,-2.36,2.11,2.11,2.13
255.45,4.17,2.04,4.18,2.05,-2.08,-1.70,-2.34,2.09,2.10,2.12
258.00,4.15,2.03,4.16,2.04,-2.05,-1.67,-2.31,2.09,2.11,2.12
260.58,4.15,2.03,4.14,2.03,-2.02,-1.64,-2.28,2.13,2.12,2.12
263.19,4.14,2.03,4.12,2.01,-1.99,-1.61,-2.25,2.15,2.13,2.11
265.82,4.07,1.96,4.07,1.96,-1.95,-1.58,-2.22,2.12,2.13,2.11
268.48,4.01,1.90,4.02,1.92,-1.90,-1.55,-2.19,2.10,2.12,2.10
271.16,3.96,1.86,3.97,1.87,-1.86,-1.52,-2.15,2.10,2.11,2.10
273.87,3.94,1.84,3.91,1.81,-1.81,-1.49,-2.11,2.13,2.09,2.10
276.61,3.84,1.74,3.84,1.75,-1.76,-1.46,-2.07,2.08,2.08,2.09
279.38,3.76,1.67,3.78,1.69,-1.71,-1.43,-2.03,2.05,2.07,2.09
282.17,3.74,1.64,3.74,1.64,-1.66,-1.40,-1.98,2.08,2.08,2.10
284.99,3.74,1.63,3.72,1.62,-1.62,-1.37,-1.94,2.12,2.11,2.10
287.84,3.70,1.60,3.69,1.59,-1.57,-1.34,-1.89,2.13,2.12,2.10
290.72,3.66,1.55,3.65,1.54,-1.53,-1.31,-1.84,2.13,2.13,2.11
293.63,3.58,1.46,3.61,1.49,-1.49,-1.28,-1.79,2.09,2.12,2.12
296.57,3.59,1.46,3.56,1.44,-1.45,-1.25,-1.74,2.14,2.12,2.12
299.53,3.52,1.40,3.52,1.39,-1.41,-1.23,-1.69,2.11,2.11,2.12
302.53,3.48,1.35,3.48,1.36,-1.36,-1.20,-1.64,2.11,2.12,2.13
305.55,3.43,1.30,3.44,1.32,-1.32,-1.17,-1.59,2.11,2.12,2.13
308.61,3.43,1.30,3.41,1.29,-1.27,-1.14,-1.55,2.15,2.14,2.13
311.69,3.38,1.25,3.37,1.25,-1.23,-1.12,-1.50,2.15,2.14,2.12
314.81,3.32,1.21,3.32,1.21,-1.19,-1.09,-1.45,2.12,2.13,2.11
317.96,3.26,1.15,3.25,1.14,-1.16,-1.06,-1.40,2.10,2.09,2.11
321.14,3.19,1.09,3.20,1.09,-1.12,-1.04,-1.35,2.07,2.07,2.10
324.35,3.15,1.05,3.16,1.07,-1.09,-1.01,-1.30,2.06,2.08,2.10
327.59,3.14,1.05,3.13,1.05,-1.05,-0.99,-1.25,2.09,2.08,2.08
330.87,3.13,1.06,3.11,1.04,-1.02,-0.96,-1.20,2.11,2.09,2.07
334.18,3.06,1.00,3.06,1.00,-0.99,-0.93,-1.16,2.07,2.08,2.06
337.52,3.01,0.96,3.01,0.96,-0.95,-0.91,-1.11,2.05,2.06,2.05
340.90,2.95,0.90,2.96,0.91,-0.92,-0.88,-1.07,2.03,2.04,2.05
344.30,2.93,0.89,2.92,0.88,-0.88,-0.86,-1.02,2.05,2.04,2.04
347.75,2.87,0.85,2.87,0.85,-0.84,-0.83,-0.98,2.03,2.03,2.02
351.23,2.82,0.81,2.82,0.81,-0.81,-0.81,-0.94,2.01,2.01,2.00
354.74,2.76,0.76,2.75,0.76,-0.77,-0.78,-0.89,1.98,1.97,1.99
358.28,2.69,0.71,2.69,0.71,-0.75,-0.76,-0.85,1.94,1.95,1.98
361.87,2.65,0.68,2.66,0.70,-0.72,-0.73,-0.81,1.93,1.94,1.97
365.49,2.65,0.70,2.65,0.70,-0.69,-0.71,-0.77,1.96,1.96,1.95
369.14,2.66,0.72,2.63,0.70,-0.66,-0.69,-0.73,1.99,1.97,1.94
372.83,2.62,0.69,2.59,0.67,-0.64,-0.66,-0.69,1.98,1.96,1.93
376.56,2.51,0.59,2.54,0.62,-0.62,-0.64,-0.66,1.89,1.92,1.92
380.33,2.48,0.57,2.48,0.58,-0.60,-0.61,-0.62,1.88,1.88,1.91
384.13,2.46,0.56,2.44,0.54,-0.57,-0.59,-0.58,1.88,1.86,1.89
387.97,2.41,0.52,2.42,0.54,-0.55,-0.56,-0.55,1.86,1.87,1.88
391.85,2.39,0.51,2.40,0.52,-0.52,-0.54,-0.51,1.87,1.88,1.87
395.77,2.39,0.53,2.38,0.51,-0.50,-0.51,-0.48,1.89,1.88,1.86
399.73,2.35,0.50,2.34,0.49,-0.47,-0.49,-0.44,1.87,1.87,1.85
403.72,2.30,0.46,2.29,0.45,-0.45,-0.46,-0.41,1.85,1.84,1.84
407.76,2.22,0.40,2.23,0.41,-0.42,-0.44,-0.37,1.79,1.81,1.82
411.84,2.18,0.37,2.20,0.39,-0.39,-0.41,-0.34,1.79,1.81,1.81
415.96,2.18,0.38,2.15,0.35,-0.34,-0.39,-0.31,1.83,1.81,1.80
420.12,2.13,0.33,2.11,0.31,-0.30,-0.36,-0.28,1.83,1.81,1.80
424.32,2.03,0.24,2.06,0.27,-0.25,-0.33,-0.25,1.78,1.81,1.79
428.56,2.00,0.21,2.00,0.21,-0.21,-0.31,-0.22,1.79,1.79,1.79
432.85,1.99,0.19,1.95,0.15,-0.17,-0.28,-0.19,1.82,1.78,1.80
437.18,1.90,0.09,1.92,0.11,-0.14,-0.25,-0.16,1.76,1.78,1.81
441.55,1.88,0.05,1.90,0.08,-0.11,-0.22,-0.13,1.77,1.80,1.83
445.96,1.92,0.07,1.91,0.07,-0.08,-0.20,-0.10,1.84,1.84,1.85
450.42,1.97,0.09,1.96,0.08,-0.06,-0.17,-0.07,1.91,1.90,1.87
454.93,1.99,0.07,1.98,0.07,-0.05,-0.14,-0.04,1.94,1.93,1.91
459.48,2.00,0.04,1.99,0.04,-0.04,-0.11,-0.01,1.96,1.95,1.95
464.07,1.98,-0.01,2.00,0.01,-0.03,-0.08,0.02,1.95,1.97,1.98
468.71,2.01,-0.02,2.02,-0.00,-0.01,-0.04,0.04,2.00,2.01,2.02
473.40,2.07,0.01,2.06,-0.01,0.02,-0.01,0.07,2.08,2.07,2.06
478.13,2.10,-0.00,2.09,-0.01,0.05,0.02,0.10,2.15,2.14,2.10
482.91,2.08,-0.05,2.08,-0.06,0.09,0.06,0.12,2.16,2.16,2.13
487.74,2.05,-0.11,2.03,-0.13,0.13,0.09,0.15,2.17,2.16,2.16
492.62,1.97,-0.21,2.00,-0.18,0.17,0.13,0.17,2.13,2.17,2.18
497.55,1.96,-0.24,1.97,-0.23,0.21,0.17,0.20,2.17,2.18,2.20
502.52,1.99,-0.22,1.94,-0.27,0.25,0.21,0.22,2.24,2.19,2.21
507.55,1.91,-0.30,1.91,-0.30,0.29,0.25,0.25,2.20,2.20,2.21
512.62,1.84,-0.36,1.87,-0.33,0.32,0.29,0.27,2.16,2.19,2.20
517.75,1.84,-0.34,1.82,-0.37,0.35,0.33,0.30,2.19,2.17,2.18
522.93,1.78,-0.38,1.77,-0.38,0.39,0.38,0.32,2.17,2.16,2.16
528.16,1.71,-0.41,1.71,-0.40,0.43,0.42,0.35,2.14,2.14,2.12
533.44,1.63,-0.44,1.63,-0.45,0.48,0.47,0.37,2.10,2.10,2.07
538.77,1.52,-0.50,1.51,-0.50,0.53,0.51,0.39,2.04,2.04,2.02
544.16,1.40,-0.56,1.38,-0.58,0.58,0.56,0.42,1.98,1.97,1.96
549.60,1.23,-0.67,1.24,-0.65,0.64,0.60,0.44,1.87,1.88,1.90
555.10,1.11,-0.72,1.11,-0.71,0.70,0.65,0.47,1.80,1.81,1.83
