frequency,raw,error,smoothed,error_smoothed,equalization,parametric_eq,fixed_band_eq,equalized_raw,equalized_smoothed,target
20.00,-15.30,-20.26,-15.31,-20.27,6.00,6.35,2.79,-9.30,-9.31,4.95
20.20,-15.09,-20.06,-15.08,-20.05,6.00,6.34,2.87,-9.09,-9.08,4.96
20.40,-14.87,-19.84,-14.86,-19.83,6.00,6.34,2.95,-8.87,-8.86,4.97
20.61,-14.67,-19.64,-14.65,-19.63,6.00,6.34,3.04,-8.67,-8.65,4.97
20.81,-14.44,-19.42,-14.44,-19.42,6.00,6.34,3.12,-8.44,-8.44,4.98
21.02,-14.24,-19.23,-14.26,-19.25,6.00,6.34,3.21,-8.24,-8.26,4.98
21.23,-14.11,-19.10,-14.11,-19.10,6.00,6.33,3.30,-8.11,-8.11,4.99
21.44,-13.99,-18.98,-13.98,-18.97,6.00,6.33,3.40,-7.99,-7.98,4.99
21.66,-13.86,-18.86,-13.86,-18.85,6.00,6.33,3.50,-7.86,-7.86,4.99
21.87,-13.73,-18.72,-13.74,-18.73,6.00,6.33,3.60,-7.73,-7.74,4.99
22.09,-13.61,-18.61,-13.62,-18.62,6.00,6.32,3.70,-7.61,-7.62,5.00
22.31,-13.51,-18.51,-13.51,-18.50,6.00,6.32,3.80,-7.51,-7.51,5.00
22.54,-13.40,-18.39,-13.41,-18.40,6.00,6.32,3.91,-7.40,-7.41,4.99
22.76,-13.29,-18.27,-13.30,-18.28,6.00,6.32,4.02,-7.29,-7.30,4.98
22.99,-13.18,-18.16,-13.16,-18.14,6.00,6.31,4.13,-7.18,-7.16,4.98
23.22,-12.99,-17.97,-13.00,-17.97,6.00,6.31,4.25,-6.99,-7.00,4.98
23.45,-12.80,-17.77,-12.80,-17.77,6.00,6.31,4.37,-6.80,-6.80,4.97
23.69,-12.61,-17.57,-12.60,-17.57,6.00,6.31,4.49,-6.61,-6.60,4.97
23.92,-12.40,-17.37,-12.42,-17.38,6.00,6.30,4.61,-6.40,-6.42,4.97
24.16,-12.25,-17.22,-12.26,-17.23,6.00,6.30,4.74,-6.25,-6.26,4.97
24.40,-12.13,-17.10,-12.13,-17.09,6.00,6.30,4.87,-6.13,-6.13,4.97
24.65,-12.00,-16.97,-12.01,-16.97,6.00,6.29,5.00,-6.00,-6.01,4.97
24.89,-11.87,-16.83,-11.86,-16.82,6.00,6.29,5.13,-5.87,-5.86,4.97
25.14,-11.68,-16.64,-11.67,-16.63,6.00,6.29,5.26,-5.68,-5.67,4.96
25.39,-11.44,-16.39,-11.44,-16.40,6.00,6.28,5.40,-5.44,-5.44,4.95
25.65,-11.21,-16.17,-11.20,-16.16,6.00,6.28,5.53,-5.21,-5.20,4.95
25.91,-10.98,-15.93,-11.00,-15.95,6.00,6.28,5.67,-4.98,-5.00,4.95
26.16,-10.83,-15.78,-10.85,-15.80,6.00,6.27,5.81,-4.83,-4.85,4.95
26.43,-10.75,-15.70,-10.74,-15.69,6.00,6.27,5.94,-4.75,-4.74,4.95
26.69,-10.66,-15.61,-10.66,-15.61,6.00,6.27,6.08,-4.66,-4.66,4.95
26.96,-10.58,-15.53,-10.58,-15.53,6.00,6.26,6.21,-4.58,-4.58,4.95
27.23,-10.49,-15.44,-10.50,-15.44,6.00,6.26,6.34,-4.49,-4.50,4.95
27.50,-10.40,-15.35,-10.42,-15.37,6.00,6.25,6.47,-4.40,-4.42,4.95
27.77,-10.31,-15.26,-10.31,-15.25,6.00,6.25,6.59,-4.31,-4.31,4.95
28.05,-10.18,-15.13,-10.14,-15.09,6.00,6.24,6.71,-4.18,-4.14,4.95
28.33,-9.90,-14.85,-9.90,-14.85,6.00,6.24,6.82,-3.90,-3.90,4.94
28.62,-9.63,-14.57,-9.62,-14.57,6.00,6.24,6.93,-3.63,-3.62,4.94
28.90,-9.34,-14.29,-9.37,-14.32,6.00,6.23,7.03,-3.34,-3.37,4.95
29.19,-9.18,-14.13,-9.20,-14.15,6.00,6.23,7.12,-3.18,-3.20,4.95
29.48,-9.09,-14.04,-9.08,-14.03,6.00,6.22,7.20,-3.09,-3.08,4.95
29.78,-9.01,-13.97,-9.00,-13.96,6.00,6.21,7.28,-3.01,-3.00,4.96
30.08,-8.92,-13.88,-8.93,-13.88,6.00,6.21,7.34,-2.92,-2.93,4.96
30.38,-8.84,-13.80,-8.85,-13.81,6.00,6.20,7.40,-2.84,-2.85,4.96
30.68,-8.76,-13.72,-8.77,-13.72,6.00,6.20,7.44,-2.76,-2.77,4.96
30.99,-8.67,-13.63,-8.64,-13.60,6.00,6.19,7.47,-2.67,-2.64,4.95
31.30,-8.47,-13.43,-8.47,-13.43,6.00,6.19,7.49,-2.47,-2.47,4.95
31.61,-8.26,-13.21,-8.27,-13.22,6.00,6.18,7.50,-2.26,-2.27,4.95
31.93,-8.06,-13.01,-8.07,-13.02,6.00,6.17,7.49,-2.06,-2.07,4.95
32.24,-7.90,-12.84,-7.91,-12.85,6.00,6.17,7.48,-1.90,-1.91,4.94
32.57,-7.78,-12.72,-7.77,-12.71,6.00,6.16,7.45,-1.78,-1.77,4.94
32.89,-7.65,-12.59,-7.64,-12.58,6.00,6.15,7.41,-1.65,-1.64,4.94
33.22,-7.50,-12.43,-7.50,-12.43,6.00,6.15,7.36,-1.50,-1.50,4.92
33.55,-7.35,-12.27,-7.35,-12.27,6.00,6.14,7.31,-1.35,-1.35,4.92
33.89,-7.19,-12.10,-7.20,-12.11,6.00,6.13,7.25,-1.19,-1.20,4.91
34.23,-7.05,-11.96,-7.06,-11.97,6.00,6.13,7.18,-1.05,-1.06,4.91
34.57,-6.93,-11.84,-6.93,-11.84,6.00,6.12,7.10,-0.93,-0.93,4.91
34.92,-6.80,-11.71,-6.79,-11.69,6.00,6.11,7.01,-0.80,-0.79,4.90
35.27,-6.62,-11.53,-6.61,-11.52,6.00,6.10,6.92,-0.62,-0.61,4.90
35.62,-6.42,-11.32,-6.42,-11.32,6.00,6.09,6.83,-0.42,-0.42,4.90
35.97,-6.21,-11.11,-6.24,-11.14,6.00,6.09,6.74,-0.21,-0.24,4.90
36.33,-6.09,-10.99,-6.09,-10.98,6.00,6.08,6.64,-0.09,-0.09,4.89
36.70,-5.96,-10.86,-5.96,-10.85,6.00,6.07,6.54,0.04,0.04,4.89
37.06,-5.84,-10.73,-5.84,-10.73,6.00,6.06,6.44,0.16,0.16,4.89
37.43,-5.71,-10.60,-5.71,-10.60,6.00,6.05,6.34,0.29,0.29,4.89
37.81,-5.58,-10.48,-5.59,-10.48,6.00,6.04,6.24,0.42,0.41,4.89
38.19,-5.46,-10.35,-5.46,-10.35,6.00,6.03,6.14,0.54,0.54,4.89
38.57,-5.34,-10.23,-5.34,-10.23,6.00,6.03,6.04,0.66,0.66,4.89
38.95,-5.21,-10.11,-5.22,-10.11,6.00,6.02,5.94,0.79,0.78,4.90
39.34,-5.09,-9.98,-5.09,-9.99,6.00,6.01,5.85,0.91,0.91,4.89
39.74,-4.96,-9.85,-4.96,-9.85,6.00,6.00,5.76,1.04,1.04,4.89
40.14,-4.81,-9.70,-4.80,-9.69,6.00,5.99,5.67,1.19,1.20,4.89
40.54,-4.62,-9.51,-4.62,-9.50,6.00,5.98,5.58,1.38,1.38,4.88
40.94,-4.42,-9.30,-4.44,-9.31,6.00,5.97,5.50,1.58,1.56,4.88
41.35,-4.26,-9.14,-4.26,-9.13,6.00,5.96,5.42,1.74,1.74,4.87
41.76,-4.11,-8.97,-4.11,-8.97,6.00,5.96,5.34,1.89,1.89,4.86
42.18,-3.96,-8.82,-3.96,-8.82,6.00,5.95,5.27,2.04,2.04,4.86
42.60,-3.84,-8.69,-3.83,-8.69,6.00,5.94,5.20,2.16,2.17,4.85
43.03,-3.72,-8.57,-3.76,-8.61,6.00,5.94,5.13,2.28,2.24,4.85
43.46,-3.69,-8.53,-3.70,-8.54,6.00,5.93,5.07,2.31,2.30,4.84
43.90,-3.67,-8.50,-3.62,-8.45,6.00,5.93,5.01,2.33,2.38,4.83
44.33,-3.50,-8.32,-3.49,-8.31,6.00,5.92,4.96,2.50,2.51,4.82
44.78,-3.29,-8.11,-3.32,-8.14,6.00,5.92,4.91,2.71,2.68,4.82
45.23,-3.13,-7.95,-3.15,-7.96,6.00,5.92,4.86,2.87,2.85,4.81
45.68,-3.01,-7.82,-3.01,-7.82,6.00,5.92,4.81,2.99,2.99,4.81
46.13,-2.89,-7.70,-2.89,-7.70,6.00,5.93,4.77,3.11,3.11,4.81
46.60,-2.77,-7.58,-2.77,-7.58,6.00,5.93,4.74,3.23,3.23,4.80
47.06,-2.65,-7.46,-2.64,-7.45,6.00,5.94,4.71,3.35,3.36,4.81
47.53,-2.50,-7.31,-2.51,-7.32,6.00,5.95,4.68,3.50,3.49,4.81
48.01,-2.36,-7.18,-2.38,-7.19,6.00,5.96,4.65,3.64,3.62,4.82
48.49,-2.24,-7.06,-2.25,-7.06,6.00,5.98,4.63,3.76,3.75,4.82
48.97,-2.13,-6.95,-2.10,-6.92,6.00,5.99,4.61,3.87,3.90,4.82
49.46,-1.96,-6.79,-1.96,-6.78,6.00,6.00,4.59,4.04,4.04,4.82
49.96,-1.79,-6.63,-1.87,-6.71,6.00,6.01,4.58,4.21,4.13,4.84
50.46,-1.79,-6.63,-1.80,-6.65,6.00,6.01,4.56,4.21,4.20,4.84
50.96,-1.80,-6.65,-1.66,-6.51,6.00,6.01,4.55,4.20,4.34,4.85
51.47,-1.51,-6.36,-1.49,-6.35,6.01,5.99,4.55,4.50,4.52,4.85
51.99,-1.20,-6.05,-1.38,-6.23,6.02,5.97,4.54,4.83,4.65,4.85
52.51,-1.33,-6.18,-1.33,-6.18,6.02,5.92,4.53,4.69,4.69,4.85
53.03,-1.48,-6.34,-1.38,-6.23,6.01,5.87,4.53,4.53,4.63,4.85
53.56,-1.40,-6.26,-1.41,-6.27,5.99,5.80,4.53,4.59,4.58,4.85
54.10,-1.30,-6.17,-1.31,-6.17,5.96,5.72,4.52,4.66,4.65,4.86
54.64,-1.14,-6.01,-1.14,-6.00,5.92,5.64,4.52,4.78,4.78,4.86
55.18,-0.98,-5.84,-0.98,-5.84,5.86,5.55,4.52,4.88,4.88,4.86
55.74,-0.82,-5.68,-0.86,-5.72,5.77,5.45,4.51,4.95,4.91,4.85
56.29,-0.75,-5.60,-0.79,-5.64,5.66,5.36,4.51,4.91,4.87,4.85
56.86,-0.77,-5.62,-0.72,-5.56,5.52,5.26,4.50,4.75,4.81,4.85
57.42,-0.63,-5.47,-0.61,-5.45,5.38,5.17,4.49,4.75,4.77,4.84
58.00,-0.43,-5.26,-0.44,-5.27,5.23,5.07,4.48,4.80,4.79,4.82
58.58,-0.23,-5.04,-0.24,-5.05,5.08,4.98,4.47,4.85,4.85,4.81
59.16,-0.05,-4.85,-0.06,-4.86,4.94,4.89,4.45,4.89,4.88,4.80
59.76,0.07,-4.72,0.06,-4.72,4.80,4.80,4.43,4.86,4.86,4.78
60.35,0.15,-4.61,0.14,-4.62,4.64,4.70,4.41,4.79,4.79,4.76
60.96,0.20,-4.54,0.21,-4.53,4.49,4.61,4.39,4.69,4.70,4.74
61.57,0.30,-4.41,0.30,-4.40,4.33,4.53,4.36,4.63,4.64,4.71
62.18,0.42,-4.26,0.43,-4.24,4.18,4.43,4.32,4.60,4.61,4.67
62.80,0.60,-4.04,0.58,-4.05,4.03,4.34,4.28,4.62,4.61,4.64
63.43,0.74,-3.85,0.73,-3.87,3.88,4.25,4.24,4.61,4.60,4.59
64.07,0.86,-3.70,0.85,-3.70,3.74,4.16,4.20,4.59,4.59,4.55
64.71,0.96,-3.55,0.99,-3.52,3.60,4.07,4.15,4.56,4.59,4.51
65.35,1.07,-3.40,1.08,-3.39,3.47,3.97,4.09,4.54,4.55,4.47
66.01,1.21,-3.22,1.11,-3.32,3.34,3.88,4.04,4.55,4.45,4.43
66.67,1.08,-3.31,1.12,-3.27,3.23,3.78,3.98,4.31,4.35,4.39
67.33,1.09,-3.27,1.15,-3.21,3.12,3.68,3.91,4.21,4.26,4.36
68.01,1.24,-3.08,1.22,-3.10,3.01,3.58,3.84,4.25,4.23,4.32
68.69,1.40,-2.89,1.40,-2.89,2.90,3.47,3.77,4.29,4.30,4.29
69.37,1.55,-2.71,1.53,-2.73,2.78,3.37,3.70,4.33,4.31,4.26
70.07,1.68,-2.55,1.60,-2.63,2.67,3.26,3.63,4.34,4.26,4.23
70.77,1.57,-2.63,1.67,-2.53,2.56,3.15,3.55,4.12,4.23,4.20
71.48,1.71,-2.47,1.74,-2.43,2.45,3.04,3.47,4.16,4.19,4.17
72.19,1.89,-2.25,1.80,-2.34,2.36,2.93,3.39,4.24,4.15,4.14
72.91,1.86,-2.25,1.85,-2.25,2.27,2.81,3.31,4.13,4.12,4.11
73.64,1.83,-2.24,1.88,-2.19,2.18,2.70,3.23,4.01,4.06,4.07
74.38,1.87,-2.17,1.86,-2.17,2.09,2.58,3.14,3.96,3.95,4.04
75.12,1.98,-2.02,1.93,-2.06,2.00,2.46,3.06,3.98,3.93,4.00
75.87,1.95,-2.00,2.06,-1.90,1.91,2.33,2.98,3.86,3.97,3.95
76.63,2.21,-1.71,2.14,-1.78,1.83,2.21,2.89,4.04,3.97,3.92
77.40,2.27,-1.60,2.20,-1.68,1.74,2.09,2.81,4.01,3.94,3.87
78.17,2.15,-1.68,2.24,-1.59,1.65,1.96,2.73,3.80,3.89,3.83
78.95,2.24,-1.55,2.22,-1.57,1.55,1.84,2.65,3.78,3.76,3.78
79.74,2.25,-1.50,2.22,-1.52,1.44,1.72,2.56,3.69,3.66,3.74
80.54,2.25,-1.45,2.28,-1.42,1.36,1.59,2.48,3.60,3.63,3.69
81.35,2.32,-1.34,2.34,-1.31,1.28,1.47,2.40,3.59,3.62,3.65
82.16,2.47,-1.15,2.45,-1.16,1.20,1.35,2.33,3.66,3.65,3.61
82.98,2.55,-1.02,2.54,-1.03,1.11,1.23,2.25,3.66,3.66,3.57
83.81,2.62,-0.91,2.57,-0.97,1.03,1.12,2.17,3.64,3.59,3.53
84.65,2.53,-0.97,2.54,-0.95,0.94,1.01,2.10,3.47,3.49,3.50
85.50,2.49,-0.97,2.54,-0.91,0.86,0.90,2.02,3.35,3.41,3.46
86.35,2.57,-0.84,2.56,-0.85,0.80,0.80,1.95,3.37,3.36,3.41
87.22,2.65,-0.72,2.61,-0.76,0.75,0.70,1.88,3.39,3.36,3.37
88.09,2.65,-0.68,2.65,-0.68,0.70,0.60,1.81,3.35,3.35,3.33
88.97,2.65,-0.64,2.66,-0.63,0.66,0.52,1.74,3.31,3.31,3.29
89.86,2.65,-0.60,2.66,-0.58,0.61,0.44,1.67,3.26,3.27,3.25
90.76,2.67,-0.53,2.66,-0.55,0.56,0.36,1.60,3.23,3.22,3.20
91.66,2.67,-0.50,2.63,-0.53,0.52,0.30,1.54,3.19,3.15,3.16
92.58,2.58,-0.55,2.62,-0.51,0.48,0.24,1.47,3.06,3.10,3.13
93.51,2.59,-0.49,2.61,-0.47,0.45,0.18,1.41,3.03,3.06,3.08
94.44,2.66,-0.39,2.62,-0.42,0.41,0.14,1.35,3.07,3.03,3.05
95.39,2.66,-0.35,2.65,-0.36,0.37,0.10,1.29,3.02,3.02,3.01
96.34,2.65,-0.32,2.66,-0.31,0.32,0.08,1.23,2.97,2.98,2.97
97.30,2.65,-0.29,2.64,-0.29,0.28,0.05,1.17,2.93,2.93,2.93
98.28,2.64,-0.25,2.63,-0.26,0.25,0.04,1.12,2.89,2.88,2.89
99.26,2.62,-0.23,2.62,-0.23,0.23,0.03,1.06,2.85,2.85,2.85
100.25,2.61,-0.20,2.62,-0.19,0.22,0.03,1.01,2.83,2.84,2.81
101.25,2.60,-0.17,2.59,-0.18,0.22,0.03,0.95,2.82,2.81,2.77
102.27,2.56,-0.17,2.52,-0.20,0.22,0.04,0.90,2.78,2.74,2.72
103.29,2.42,-0.26,2.44,-0.24,0.22,0.05,0.85,2.64,2.66,2.68
104.32,2.33,-0.30,2.36,-0.27,0.22,0.07,0.80,2.55,2.58,2.63
105.37,2.32,-0.27,2.30,-0.28,0.23,0.09,0.76,2.54,2.53,2.59
106.42,2.29,-0.25,2.30,-0.24,0.23,0.11,0.71,2.52,2.52,2.54
107.48,2.28,-0.21,2.28,-0.21,0.24,0.14,0.67,2.51,2.52,2.49
108.56,2.28,-0.17,2.24,-0.20,0.24,0.17,0.62,2.52,2.49,2.44
109.64,2.18,-0.22,2.19,-0.21,0.25,0.20,0.58,2.43,2.44,2.40
110.74,2.11,-0.25,2.12,-0.23,0.25,0.23,0.55,2.36,2.37,2.36
111.85,2.07,-0.25,2.05,-0.27,0.26,0.26,0.51,2.32,2.30,2.32
112.97,1.98,-0.30,1.98,-0.30,0.27,0.30,0.47,2.24,2.25,2.28
114.10,1.93,-0.32,1.92,-0.32,0.29,0.33,0.44,2.21,2.21,2.25
115.24,1.87,-0.35,1.89,-0.33,0.31,0.36,0.41,2.17,2.19,2.22
116.39,1.88,-0.30,1.89,-0.30,0.32,0.40,0.38,2.20,2.21,2.18
117.55,1.89,-0.28,1.86,-0.30,0.33,0.43,0.35,2.22,2.20,2.16
118.73,1.86,-0.28,1.81,-0.32,0.35,0.46,0.33,2.20,2.16,2.14
119.92,1.71,-0.41,1.74,-0.38,0.36,0.49,0.31,2.07,2.11,2.12
121.12,1.67,-0.44,1.70,-0.41,0.38,0.53,0.29,2.05,2.08,2.11
122.33,1.69,-0.40,1.69,-0.40,0.40,0.56,0.27,2.09,2.09,2.09
123.55,1.72,-0.36,1.67,-0.40,0.42,0.59,0.26,2.14,2.09,2.08
124.79,1.66,-0.40,1.63,-0.43,0.44,0.62,0.25,2.10,2.07,2.06
126.03,1.51,-0.54,1.57,-0.48,0.46,0.64,0.24,1.97,2.02,2.05
127.29,1.52,-0.52,1.53,-0.50,0.47,0.67,0.23,1.99,2.01,2.03
128.57,1.54,-0.48,1.53,-0.49,0.49,0.70,0.23,2.03,2.02,2.02
129.85,1.56,-0.45,1.51,-0.49,0.52,0.72,0.23,2.08,2.03,2.01
131.15,1.46,-0.54,1.47,-0.52,0.55,0.75,0.23,2.01,2.02,1.99
132.46,1.38,-0.59,1.41,-0.56,0.58,0.77,0.23,1.96,1.99,1.97
133.79,1.37,-0.59,1.35,-0.61,0.61,0.79,0.23,1.97,1.96,1.96
135.12,1.31,-0.63,1.29,-0.65,0.64,0.81,0.24,1.94,1.93,1.94
136.48,1.24,-0.69,1.23,-0.70,0.67,0.83,0.25,1.91,1.90,1.93
137.84,1.15,-0.76,1.19,-0.72,0.71,0.85,0.26,1.85,1.90,1.91
139.22,1.16,-0.73,1.16,-0.73,0.74,0.87,0.28,1.90,1.90,1.89
140.61,1.18,-0.69,1.12,-0.75,0.77,0.89,0.29,1.95,1.89,1.87
142.02,1.06,-0.80,1.07,-0.78,0.80,0.91,0.31,1.85,1.86,1.85
143.44,0.97,-0.86,1.01,-0.82,0.82,0.92,0.33,1.79,1.83,1.83
144.87,0.96,-0.84,0.96,-0.84,0.84,0.94,0.35,1.79,1.79,1.80
146.32,0.96,-0.82,0.92,-0.85,0.85,0.96,0.37,1.81,1.77,1.77
147.78,0.87,-0.87,0.87,-0.87,0.86,0.97,0.39,1.73,1.73,1.74
149.26,0.79,-0.91,0.81,-0.89,0.87,0.99,0.42,1.65,1.68,1.70
150.75,0.76,-0.90,0.78,-0.88,0.87,1.00,0.44,1.63,1.65,1.66
152.26,0.77,-0.84,0.76,-0.84,0.86,1.02,0.47,1.63,1.62,1.60
153.78,0.77,-0.78,0.71,-0.84,0.85,1.03,0.50,1.62,1.57,1.55
155.32,0.63,-0.86,0.65,-0.84,0.84,1.05,0.53,1.47,1.49,1.49
156.88,0.54,-0.90,0.58,-0.85,0.83,1.06,0.56,1.37,1.42,1.43
158.44,0.55,-0.82,0.54,-0.84,0.82,1.07,0.59,1.37,1.36,1.37
160.03,0.54,-0.78,0.51,-0.81,0.81,1.09,0.62,1.35,1.32,1.32
161.63,0.47,-0.81,0.47,-0.81,0.82,1.10,0.65,1.28,1.28,1.28
163.24,0.40,-0.83,0.42,-0.82,0.83,1.12,0.68,1.22,1.24,1.23
164.88,0.36,-0.84,0.36,-0.83,0.84,1.13,0.72,1.20,1.21,1.20
166.53,0.35,-0.82,0.33,-0.84,0.86,1.14,0.75,1.21,1.19,1.17
168.19,0.28,-0.87,0.28,-0.87,0.89,1.16,0.79,1.16,1.17,1.15
169.87,0.24,-0.91,0.22,-0.92,0.92,1.17,0.82,1.15,1.14,1.14
171.57,0.15,-0.99,0.16,-0.97,0.95,1.19,0.86,1.10,1.11,1.14
173.29,0.12,-1.02,0.13,-1.01,0.98,1.20,0.89,1.10,1.11,1.14
175.02,0.12,-1.03,0.11,-1.03,1.02,1.21,0.93,1.14,1.13,1.15
176.77,0.12,-1.05,0.12,-1.04,1.06,1.23,0.97,1.17,1.18,1.17
178.54,0.13,-1.05,0.11,-1.07,1.10,1.24,1.01,1.23,1.21,1.18
180.32,0.09,-1.12,0.09,-1.12,1.14,1.26,1.05,1.23,1.23,1.20
182.13,0.04,-1.18,0.06,-1.17,1.18,1.27,1.09,1.22,1.24,1.22
183.95,0.03,-1.22,0.02,-1.22,1.22,1.29,1.13,1.25,1.24,1.25
185.79,-0.01,-1.26,-0.02,-1.27,1.26,1.30,1.17,1.25,1.24,1.25
187.65,-0.05,-1.31,-0.06,-1.32,1.29,1.32,1.21,1.24,1.23,1.26
189.52,-0.11,-1.38,-0.10,-1.36,1.33,1.33,1.26,1.21,1.23,1.26
191.42,-0.12,-1.38,-0.11,-1.38,1.35,1.35,1.30,1.23,1.24,1.26
193.33,-0.10,-1.37,-0.10,-1.37,1.38,1.37,1.34,1.27,1.28,1.27
195.27,-0.08,-1.35,-0.10,-1.36,1.39,1.38,1.39,1.31,1.30,1.27
197.22,-0.10,-1.36,-0.13,-1.39,1.42,1.40,1.43,1.31,1.28,1.26
199.19,-0.20,-1.46,-0.18,-1.43,1.44,1.42,1.48,1.24,1.26,1.26
201.18,-0.25,-1.50,-0.22,-1.46,1.47,1.43,1.52,1.22,1.25,1.24
203.19,-0.24,-1.48,-0.26,-1.50,1.50,1.45,1.57,1.26,1.24,1.23
205.23,-0.27,-1.50,-0.31,-1.53,1.53,1.47,1.61,1.26,1.22,1.22
207.28,-0.38,-1.60,-0.36,-1.58,1.56,1.49,1.66,1.18,1.20,1.21
209.35,-0.44,-1.65,-0.42,-1.62,1.59,1.50,1.70,1.15,1.17,1.20
211.44,-0.45,-1.64,-0.45,-1.64,1.62,1.52,1.75,1.17,1.17,1.19
213.56,-0.45,-1.63,-0.46,-1.63,1.64,1.54,1.79,1.19,1.18,1.18
215.69,-0.46,-1.62,-0.48,-1.64,1.67,1.56,1.83,1.20,1.18,1.16
217.85,-0.54,-1.69,-0.54,-1.68,1.69,1.58,1.87,1.15,1.16,1.15
220.03,-0.60,-1.73,-0.59,-1.73,1.73,1.59,1.91,1.13,1.14,1.13
222.23,-0.65,-1.78,-0.64,-1.77,1.77,1.61,1.95,1.12,1.13,1.12
224.45,-0.67,-1.79,-0.68,-1.80,1.82,1.63,1.99,1.15,1.14,1.12
226.70,-0.73,-1.84,-0.75,-1.86,1.87,1.65,2.03,1.14,1.13,1.11
228.96,-0.82,-1.92,-0.83,-1.94,1.94,1.67,2.06,1.11,1.10,1.10
231.25,-0.94,-2.05,-0.91,-2.01,2.00,1.69,2.10,1.06,1.09,1.11
233.57,-0.97,-2.07,-0.97,-2.07,2.06,1.71,2.13,1.09,1.10,1.10
235.90,-0.98,-2.09,-1.01,-2.11,2.11,1.73,2.15,1.13,1.10,1.10
238.26,-1.03,-2.14,-1.04,-2.15,2.16,1.74,2.18,1.12,1.12,1.11
240.64,-1.09,-2.21,-1.07,-2.19,2.18,1.76,2.20,1.09,1.11,1.12
243.05,-1.09,-2.22,-1.10,-2.22,2.19,1.78,2.22,1.10,1.09,1.13
245.48,-1.08,-2.21,-1.08,-2.22,2.18,1.80,2.24,1.09,1.09,1.13
247.93,-1.06,-2.20,-1.03,-2.17,2.15,1.82,2.26,1.09,1.11,1.13
250.41,-0.96,-2.10,-0.99,-2.13,2.11,1.84,2.27,1.15,1.13,1.14
252.92,-0.91,-2.06,-0.93,-2.07,2.08,1.86,2.28,1.16,1.15,1.14
255.45,-0.90,-2.04,-0.87,-2.01,2.04,1.88,2.28,1.14,1.17,1.14
258.00,-0.83,-1.97,-0.83,-1.97,2.01,1.90,2.29,1.18,1.18,1.14
260.58,-0.78,-1.91,-0.82,-1.95,1.99,1.91,2.29,1.21,1.17,1.13
263.19,-0.83,-1.96,-0.83,-1.96,1.98,1.93,2.29,1.14,1.15,1.13
265.82,-0.88,-2.01,-0.86,-1.98,1.97,1.95,2.29,1.09,1.11,1.12
268.48,-0.89,-2.01,-0.89,-2.01,1.97,1.97,2.28,1.08,1.08,1.12
271.16,-0.89,-2.01,-0.90,-2.01,1.98,1.99,2.27,1.09,1.08,1.11
273.87,-0.89,-2.00,-0.90,-2.01,2.00,2.00,2.26,1.10,1.10,1.11
276.61,-0.90,-2.01,-0.89,-2.00,2.01,2.02,2.25,1.11,1.11,1.11
279.38,-0.89,-2.00,-0.89,-2.00,2.02,2.04,2.24,1.13,1.13,1.10
282.17,-0.89,-2.00,-0.90,-2.01,2.03,2.06,2.22,1.14,1.13,1.11
284.99,-0.91,-2.03,-0.93,-2.04,2.05,2.07,2.21,1.14,1.12,1.12
287.84,-0.98,-2.10,-0.95,-2.07,2.07,2.09,2.19,1.08,1.12,1.11
290.72,-0.97,-2.09,-0.97,-2.09,2.09,2.11,2.18,1.12,1.12,1.12
293.63,-0.96,-2.09,-0.98,-2.11,2.11,2.12,2.16,1.15,1.13,1.13
296.57,-0.99,-2.13,-0.99,-2.13,2.12,2.14,2.14,1.13,1.13,1.14
299.53,-1.02,-2.16,-1.01,-2.15,2.13,2.15,2.13,1.11,1.12,1.13
302.53,-1.02,-2.16,-1.02,-2.16,2.13,2.17,2.11,1.11,1.11,1.14
305.55,-1.01,-2.15,-1.01,-2.15,2.13,2.18,2.10,1.12,1.12,1.14
308.61,-1.00,-2.14,-1.00,-2.14,2.14,2.19,2.08,1.13,1.13,1.14
311.69,-0.99,-2.13,-0.99,-2.12,2.15,2.21,2.06,1.15,1.16,1.13
314.81,-0.99,-2.11,-0.98,-2.11,2.16,2.22,2.05,1.17,1.18,1.12
317.96,-0.99,-2.11,-1.01,-2.13,2.18,2.23,2.04,1.18,1.16,1.12
321.14,-1.05,-2.16,-1.07,-2.18,2.19,2.25,2.02,1.14,1.12,1.11
324.35,-1.16,-2.27,-1.13,-2.24,2.21,2.26,2.01,1.05,1.08,1.11
327.59,-1.19,-2.29,-1.18,-2.28,2.23,2.27,2.00,1.03,1.05,1.09
330.87,-1.19,-2.27,-1.20,-2.28,2.25,2.28,1.99,1.05,1.04,1.08
334.18,-1.19,-2.26,-1.20,-2.27,2.27,2.29,1.99,1.07,1.07,1.07
337.52,-1.20,-2.26,-1.19,-2.26,2.28,2.30,1.98,1.08,1.09,1.06
340.90,-1.20,-2.26,-1.20,-2.25,2.29,2.31,1.98,1.08,1.09,1.06
344.30,-1.20,-2.25,-1.23,-2.27,2.29,2.32,1.97,1.08,1.06,1.05
347.75,-1.26,-2.29,-1.26,-2.28,2.28,2.32,1.97,1.02,1.03,1.02
351.23,-1.30,-2.31,-1.28,-2.30,2.28,2.33,1.97,0.98,1.00,1.01
354.74,-1.29,-2.29,-1.30,-2.30,2.27,2.34,1.97,0.98,0.97,1.00
358.28,-1.29,-2.28,-1.29,-2.28,2.27,2.34,1.98,0.97,0.97,0.99
361.87,-1.28,-2.26,-1.29,-2.26,2.25,2.35,1.98,0.97,0.97,0.98
365.49,-1.28,-2.24,-1.28,-2.24,2.24,2.35,1.99,0.96,0.96,0.96
369.14,-1.27,-2.22,-1.27,-2.22,2.23,2.36,1.99,0.95,0.96,0.95
372.83,-1.26,-2.20,-1.26,-2.20,2.22,2.36,2.00,0.95,0.95,0.93
376.56,-1.26,-2.19,-1.27,-2.19,2.21,2.36,2.01,0.95,0.94,0.92
380.33,-1.28,-2.20,-1.29,-2.20,2.22,2.37,2.03,0.94,0.93,0.91
384.13,-1.33,-2.23,-1.32,-2.22,2.23,2.37,2.04,0.89,0.91,0.90
387.97,-1.34,-2.23,-1.36,-2.25,2.24,2.37,2.05,0.89,0.88,0.89
391.85,-1.39,-2.27,-1.39,-2.27,2.25,2.37,2.07,0.86,0.86,0.88
395.77,-1.42,-2.29,-1.41,-2.28,2.26,2.37,2.09,0.84,0.85,0.87
399.73,-1.43,-2.29,-1.44,-2.29,2.28,2.37,2.10,0.84,0.84,0.86
403.72,-1.44,-2.29,-1.43,-2.28,2.29,2.37,2.12,0.85,0.85,0.85
407.76,-1.44,-2.27,-1.44,-2.27,2.30,2.36,2.14,0.86,0.86,0.83
411.84,-1.44,-2.26,-1.47,-2.29,2.31,2.36,2.16,0.87,0.84,0.82
415.96,-1.51,-2.32,-1.50,-2.31,2.32,2.36,2.18,0.80,0.81,0.80
420.12,-1.55,-2.36,-1.53,-2.33,2.32,2.35,2.20,0.77,0.78,0.80
424.32,-1.54,-2.34,-1.55,-2.34,2.32,2.35,2.22,0.77,0.77,0.79
428.56,-1.53,-2.32,-1.54,-2.33,2.31,2.34,2.24,0.78,0.77,0.79
432.85,-1.52,-2.32,-1.52,-2.32,2.31,2.34,2.27,0.79,0.79,0.80
437.18,-1.49,-2.30,-1.49,-2.30,2.30,2.33,2.29,0.81,0.81,0.81
441.55,-1.45,-2.28,-1.45,-2.28,2.30,2.32,2.30,0.84,0.85,0.83
445.96,-1.41,-2.26,-1.40,-2.25,2.29,2.31,2.32,0.87,0.88,0.85
450.42,-1.35,-2.23,-1.37,-2.26,2.28,2.30,2.34,0.92,0.90,0.88
454.93,-1.34,-2.26,-1.35,-2.27,2.26,2.29,2.36,0.92,0.91,0.92
459.48,-1.35,-2.31,-1.32,-2.28,2.25,2.29,2.37,0.90,0.93,0.96
464.07,-1.28,-2.27,-1.29,-2.28,2.24,2.27,2.38,0.96,0.96,0.99
468.71,-1.22,-2.25,-1.23,-2.26,2.24,2.26,2.39,1.02,1.01,1.03
473.40,-1.16,-2.23,-1.16,-2.22,2.24,2.25,2.40,1.08,1.08,1.07
478.13,-1.10,-2.21,-1.10,-2.20,2.24,2.24,2.41,1.14,1.14,1.11
482.91,-1.06,-2.20,-1.07,-2.21,2.24,2.23,2.41,1.18,1.17,1.14
487.74,-1.04,-2.21,-1.07,-2.23,2.24,2.21,2.42,1.20,1.17,1.17
492.62,-1.09,-2.28,-1.07,-2.26,2.24,2.20,2.41,1.15,1.17,1.18
497.55,-1.08,-2.29,-1.07,-2.27,2.23,2.19,2.41,1.15,1.17,1.20
502.52,-1.03,-2.25,-1.05,-2.26,2.23,2.17,2.40,1.20,1.18,1.21
507.55,-1.01,-2.23,-1.01,-2.23,2.22,2.16,2.40,1.21,1.21,1.21
