frequency,raw,error,smoothed,error_smoothed,equalization,parametric_eq,fixed_band_eq,equalized_raw,equalized_smoothed,target
20.00,-6.67,-4.27,-6.68,-4.28,4.30,3.96,1.32,-2.38,-2.39,-2.40
20.20,-6.65,-4.25,-6.65,-4.24,4.25,3.94,1.37,-2.41,-2.40,-2.40
20.40,-6.61,-4.21,-6.61,-4.20,4.20,3.92,1.41,-2.42,-2.41,-2.40
20.61,-6.56,-4.15,-6.56,-4.16,4.15,3.90,1.45,-2.40,-2.41,-2.40
20.81,-6.51,-4.11,-6.51,-4.11,4.10,3.88,1.49,-2.41,-2.41,-2.40
21.02,-6.46,-4.06,-6.47,-4.07,4.06,3.86,1.54,-2.41,-2.41,-2.40
21.23,-6.42,-4.02,-6.42,-4.02,4.01,3.84,1.58,-2.42,-2.41,-2.40
21.44,-6.36,-3.96,-6.36,-3.96,3.96,3.82,1.63,-2.40,-2.40,-2.40
21.66,-6.31,-3.90,-6.31,-3.91,3.91,3.79,1.68,-2.39,-2.40,-2.40
21.87,-6.25,-3.85,-6.26,-3.85,3.86,3.77,1.73,-2.39,-2.39,-2.40
22.09,-6.21,-3.81,-6.21,-3.81,3.81,3.75,1.78,-2.40,-2.40,-2.40
22.31,-6.16,-3.76,-6.17,-3.77,3.77,3.73,1.84,-2.39,-2.40,-2.40
22.54,-6.14,-3.73,-6.13,-3.73,3.73,3.70,1.89,-2.41,-2.40,-2.40
22.76,-6.08,-3.68,-6.09,-3.69,3.69,3.68,1.95,-2.40,-2.40,-2.40
22.99,-6.05,-3.65,-6.05,-3.65,3.65,3.66,2.00,-2.40,-2.40,-2.40
23.22,-6.01,-3.61,-6.01,-3.61,3.61,3.63,2.06,-2.40,-2.40,-2.40
23.45,-5.97,-3.57,-5.98,-3.58,3.58,3.61,2.12,-2.40,-2.40,-2.40
23.69,-5.95,-3.54,-5.94,-3.54,3.54,3.59,2.18,-2.40,-2.40,-2.40
23.92,-5.91,-3.51,-5.91,-3.51,3.50,3.56,2.25,-2.41,-2.41,-2.40
24.16,-5.86,-3.46,-5.87,-3.47,3.46,3.54,2.31,-2.40,-2.41,-2.40
24.40,-5.83,-3.43,-5.83,-3.43,3.42,3.51,2.37,-2.41,-2.40,-2.40
24.65,-5.78,-3.37,-5.78,-3.38,3.38,3.48,2.44,-2.39,-2.40,-2.40
24.89,-5.74,-3.34,-5.74,-3.34,3.34,3.46,2.50,-2.40,-2.40,-2.40
25.14,-5.69,-3.29,-5.70,-3.30,3.30,3.43,2.57,-2.40,-2.40,-2.40
25.39,-5.66,-3.26,-5.66,-3.26,3.26,3.40,2.64,-2.41,-2.40,-2.40
25.65,-5.61,-3.21,-5.62,-3.22,3.21,3.38,2.70,-2.40,-2.40,-2.40
25.91,-5.58,-3.17,-5.57,-3.17,3.17,3.35,2.77,-2.40,-2.40,-2.40
26.16,-5.53,-3.13,-5.53,-3.13,3.13,3.32,2.83,-2.40,-2.40,-2.40
26.43,-5.49,-3.08,-5.49,-3.09,3.09,3.29,2.90,-2.40,-2.40,-2.40
26.69,-5.45,-3.05,-5.45,-3.05,3.05,3.27,2.96,-2.41,-2.40,-2.40
26.96,-5.41,-3.00,-5.41,-3.01,3.01,3.24,3.03,-2.40,-2.40,-2.40
27.23,-5.38,-2.97,-5.37,-2.97,2.97,3.21,3.09,-2.41,-2.40,-2.40
27.50,-5.32,-2.92,-5.33,-2.93,2.93,3.18,3.15,-2.39,-2.40,-2.40
27.77,-5.29,-2.89,-5.30,-2.89,2.90,3.15,3.20,-2.40,-2.40,-2.40
28.05,-5.27,-2.87,-5.27,-2.87,2.87,3.12,3.26,-2.41,-2.40,-2.40
28.33,-5.23,-2.83,-5.24,-2.84,2.84,3.09,3.31,-2.39,-2.40,-2.40
28.62,-5.23,-2.83,-5.22,-2.82,2.82,3.06,3.35,-2.42,-2.40,-2.40
28.90,-5.18,-2.78,-5.20,-2.80,2.80,3.03,3.40,-2.38,-2.40,-2.40
29.19,-5.18,-2.78,-5.19,-2.79,2.79,3.00,3.44,-2.39,-2.40,-2.40
29.48,-5.18,-2.78,-5.18,-2.78,2.78,2.96,3.47,-2.40,-2.39,-2.40
29.78,-5.18,-2.78,-5.18,-2.78,2.78,2.93,3.50,-2.40,-2.40,-2.40
30.08,-5.18,-2.78,-5.18,-2.78,2.79,2.90,3.52,-2.40,-2.40,-2.40
30.38,-5.18,-2.78,-5.19,-2.79,2.79,2.87,3.54,-2.40,-2.40,-2.40
30.68,-5.18,-2.78,-5.19,-2.79,2.79,2.84,3.55,-2.39,-2.40,-2.40
30.99,-5.21,-2.81,-5.20,-2.80,2.79,2.80,3.56,-2.42,-2.40,-2.40
31.30,-5.19,-2.79,-5.20,-2.80,2.79,2.77,3.56,-2.40,-2.41,-2.40
31.61,-5.18,-2.78,-5.19,-2.79,2.78,2.74,3.56,-2.40,-2.41,-2.40
31.93,-5.18,-2.78,-5.17,-2.77,2.77,2.70,3.55,-2.42,-2.40,-2.40
32.24,-5.14,-2.74,-5.15,-2.75,2.74,2.67,3.53,-2.40,-2.41,-2.40
32.57,-5.12,-2.72,-5.12,-2.72,2.71,2.63,3.51,-2.41,-2.41,-2.40
32.89,-5.08,-2.68,-5.08,-2.68,2.67,2.60,3.48,-2.41,-2.41,-2.40
33.22,-5.03,-2.63,-5.03,-2.63,2.63,2.57,3.45,-2.41,-2.40,-2.40
33.55,-4.97,-2.57,-4.97,-2.57,2.58,2.53,3.41,-2.39,-2.39,-2.40
33.89,-4.91,-2.51,-4.92,-2.52,2.53,2.50,3.37,-2.39,-2.39,-2.40
34.23,-4.86,-2.46,-4.87,-2.47,2.47,2.46,3.32,-2.39,-2.40,-2.40
34.57,-4.82,-2.42,-4.82,-2.42,2.42,2.43,3.27,-2.41,-2.41,-2.40
34.92,-4.78,-2.37,-4.77,-2.37,2.36,2.39,3.22,-2.41,-2.41,-2.40
35.27,-4.72,-2.31,-4.71,-2.31,2.31,2.35,3.16,-2.41,-2.41,-2.40
35.62,-4.65,-2.25,-4.66,-2.26,2.26,2.32,3.10,-2.40,-2.40,-2.40
35.97,-4.60,-2.20,-4.61,-2.21,2.22,2.28,3.04,-2.39,-2.39,-2.40
36.33,-4.57,-2.17,-4.57,-2.16,2.18,2.25,2.98,-2.40,-2.39,-2.40
36.70,-4.53,-2.13,-4.53,-2.13,2.14,2.21,2.91,-2.40,-2.40,-2.40
37.06,-4.49,-2.09,-4.51,-2.10,2.11,2.17,2.85,-2.39,-2.40,-2.40
37.43,-4.49,-2.09,-4.48,-2.08,2.08,2.14,2.78,-2.41,-2.40,-2.40
37.81,-4.45,-2.05,-4.47,-2.06,2.06,2.10,2.71,-2.40,-2.41,-2.40
38.19,-4.45,-2.05,-4.45,-2.05,2.04,2.06,2.64,-2.42,-2.41,-2.40
38.57,-4.43,-2.03,-4.43,-2.03,2.02,2.03,2.57,-2.41,-2.41,-2.40
38.95,-4.40,-2.00,-4.41,-2.01,2.01,1.99,2.51,-2.40,-2.40,-2.40
39.34,-4.39,-1.99,-4.39,-1.99,2.00,1.95,2.44,-2.40,-2.39,-2.40
39.74,-4.36,-1.96,-4.37,-1.97,1.99,1.92,2.37,-2.38,-2.38,-2.40
40.14,-4.36,-1.96,-4.37,-1.96,1.98,1.88,2.30,-2.39,-2.39,-2.40
40.54,-4.36,-1.96,-4.37,-1.96,1.96,1.84,2.24,-2.40,-2.41,-2.40
40.94,-4.36,-1.96,-4.36,-1.96,1.94,1.81,2.17,-2.42,-2.42,-2.40
41.35,-4.35,-1.95,-4.34,-1.94,1.92,1.77,2.11,-2.44,-2.42,-2.40
41.76,-4.30,-1.90,-4.31,-1.91,1.89,1.73,2.04,-2.41,-2.42,-2.40
42.18,-4.25,-1.85,-4.26,-1.86,1.86,1.70,1.98,-2.40,-2.40,-2.40
42.60,-4.21,-1.81,-4.21,-1.81,1.82,1.66,1.92,-2.39,-2.39,-2.40
43.03,-4.17,-1.77,-4.17,-1.77,1.78,1.63,1.86,-2.40,-2.39,-2.40
43.46,-4.11,-1.71,-4.12,-1.72,1.73,1.59,1.80,-2.38,-2.39,-2.40
43.90,-4.08,-1.68,-4.08,-1.68,1.69,1.55,1.75,-2.40,-2.40,-2.40
44.33,-4.04,-1.64,-4.04,-1.64,1.64,1.52,1.69,-2.40,-2.40,-2.40
44.78,-4.00,-1.60,-4.00,-1.60,1.60,1.48,1.64,-2.41,-2.41,-2.40
45.23,-3.96,-1.55,-3.96,-1.56,1.55,1.45,1.58,-2.40,-2.40,-2.40
45.68,-3.91,-1.51,-3.91,-1.51,1.51,1.41,1.53,-2.41,-2.40,-2.40
46.13,-3.86,-1.46,-3.87,-1.47,1.46,1.38,1.48,-2.40,-2.41,-2.40
46.60,-3.83,-1.42,-3.82,-1.42,1.41,1.34,1.43,-2.41,-2.41,-2.40
47.06,-3.77,-1.37,-3.77,-1.37,1.37,1.31,1.38,-2.41,-2.40,-2.40
47.53,-3.71,-1.31,-3.72,-1.32,1.32,1.27,1.34,-2.40,-2.40,-2.40
48.01,-3.66,-1.26,-3.67,-1.27,1.27,1.24,1.29,-2.39,-2.40,-2.40
48.49,-3.62,-1.22,-3.62,-1.22,1.23,1.21,1.25,-2.40,-2.40,-2.40
48.97,-3.58,-1.18,-3.58,-1.18,1.18,1.17,1.21,-2.40,-2.40,-2.40
49.46,-3.54,-1.14,-3.54,-1.14,1.14,1.14,1.16,-2.40,-2.40,-2.40
49.96,-3.50,-1.10,-3.51,-1.11,1.11,1.11,1.12,-2.40,-2.40,-2.40
50.46,-3.47,-1.07,-3.48,-1.07,1.07,1.08,1.08,-2.40,-2.40,-2.40
50.96,-3.44,-1.04,-3.44,-1.04,1.04,1.05,1.05,-2.41,-2.40,-2.40
51.47,-3.41,-1.01,-3.41,-1.01,1.01,1.02,1.01,-2.41,-2.40,-2.40
51.99,-3.37,-0.96,-3.38,-0.98,0.98,0.98,0.97,-2.39,-2.40,-2.40
52.51,-3.35,-0.95,-3.35,-0.94,0.95,0.95,0.94,-2.41,-2.40,-2.40
53.03,-3.32,-0.92,-3.32,-0.92,0.92,0.92,0.90,-2.40,-2.40,-2.40
53.56,-3.28,-0.88,-3.30,-0.90,0.89,0.90,0.87,-2.39,-2.41,-2.40
54.10,-3.28,-0.88,-3.27,-0.87,0.86,0.87,0.84,-2.42,-2.40,-2.40
54.64,-3.23,-0.83,-3.24,-0.84,0.84,0.84,0.80,-2.40,-2.40,-2.40
55.18,-3.20,-0.80,-3.21,-0.81,0.81,0.81,0.77,-2.39,-2.40,-2.40
55.74,-3.19,-0.79,-3.18,-0.78,0.78,0.78,0.74,-2.41,-2.40,-2.40
56.29,-3.15,-0.75,-3.16,-0.76,0.76,0.76,0.71,-2.40,-2.40,-2.40
56.86,-3.13,-0.73,-3.13,-0.73,0.73,0.73,0.69,-2.40,-2.40,-2.40
57.42,-3.10,-0.70,-3.10,-0.70,0.71,0.70,0.66,-2.40,-2.40,-2.40
58.00,-3.07,-0.67,-3.08,-0.68,0.68,0.68,0.63,-2.39,-2.40,-2.40
58.58,-3.06,-0.66,-3.06,-0.66,0.66,0.65,0.61,-2.41,-2.40,-2.40
59.16,-3.04,-0.64,-3.04,-0.64,0.64,0.63,0.58,-2.41,-2.41,-2.40
59.76,-3.02,-0.62,-3.02,-0.62,0.61,0.61,0.55,-2.41,-2.41,-2.40
60.35,-2.98,-0.58,-2.99,-0.59,0.59,0.58,0.53,-2.39,-2.40,-2.40
60.96,-2.97,-0.57,-2.97,-0.57,0.57,0.56,0.51,-2.41,-2.40,-2.40
61.57,-2.93,-0.53,-2.94,-0.54,0.55,0.54,0.48,-2.39,-2.40,-2.40
62.18,-2.93,-0.53,-2.93,-0.53,0.52,0.51,0.46,-2.41,-2.40,-2.40
62.80,-2.89,-0.49,-2.90,-0.50,0.50,0.49,0.44,-2.39,-2.40,-2.40
63.43,-2.89,-0.49,-2.88,-0.48,0.48,0.47,0.42,-2.42,-2.41,-2.40
64.07,-2.84,-0.44,-2.86,-0.45,0.46,0.45,0.40,-2.39,-2.40,-2.40
64.71,-2.84,-0.44,-2.84,-0.44,0.44,0.43,0.37,-2.41,-2.40,-2.40
65.35,-2.80,-0.40,-2.81,-0.41,0.41,0.41,0.35,-2.39,-2.40,-2.40
66.01,-2.80,-0.40,-2.80,-0.40,0.39,0.39,0.33,-2.41,-2.41,-2.40
66.67,-2.76,-0.36,-2.77,-0.37,0.37,0.37,0.32,-2.40,-2.40,-2.40
67.33,-2.76,-0.36,-2.75,-0.35,0.35,0.35,0.30,-2.42,-2.41,-2.40
68.01,-2.71,-0.31,-2.73,-0.32,0.33,0.34,0.28,-2.39,-2.40,-2.40
68.69,-2.71,-0.31,-2.71,-0.30,0.31,0.32,0.26,-2.41,-2.40,-2.40
69.37,-2.67,-0.27,-2.68,-0.28,0.29,0.30,0.24,-2.39,-2.40,-2.40
70.07,-2.67,-0.27,-2.67,-0.27,0.27,0.28,0.22,-2.40,-2.40,-2.40
70.77,-2.65,-0.25,-2.66,-0.25,0.25,0.27,0.20,-2.40,-2.41,-2.40
71.48,-2.63,-0.23,-2.64,-0.24,0.23,0.25,0.19,-2.40,-2.41,-2.40
72.19,-2.63,-0.23,-2.62,-0.22,0.21,0.23,0.17,-2.42,-2.41,-2.40
72.91,-2.58,-0.18,-2.60,-0.20,0.20,0.22,0.15,-2.39,-2.40,-2.40
73.64,-2.58,-0.18,-2.57,-0.17,0.18,0.20,0.13,-2.41,-2.40,-2.40
74.38,-2.54,-0.14,-2.56,-0.15,0.16,0.18,0.12,-2.38,-2.40,-2.40
75.12,-2.54,-0.14,-2.54,-0.14,0.14,0.17,0.10,-2.40,-2.40,-2.40
75.87,-2.53,-0.13,-2.53,-0.13,0.12,0.15,0.08,-2.41,-2.41,-2.40
76.63,-2.50,-0.10,-2.51,-0.11,0.11,0.14,0.07,-2.40,-2.41,-2.40
77.40,-2.50,-0.10,-2.49,-0.09,0.09,0.12,0.05,-2.42,-2.40,-2.40
78.17,-2.45,-0.05,-2.47,-0.07,0.07,0.10,0.03,-2.38,-2.40,-2.40
78.95,-2.45,-0.05,-2.46,-0.05,0.06,0.09,0.02,-2.40,-2.40,-2.40
79.74,-2.45,-0.05,-2.44,-0.04,0.04,0.07,-0.00,-2.42,-2.40,-2.40
80.54,-2.41,-0.01,-2.43,-0.03,0.02,0.06,-0.02,-2.39,-2.41,-2.40
81.35,-2.41,-0.01,-2.41,-0.00,0.00,0.04,-0.04,-2.41,-2.40,-2.40
82.16,-2.38,0.02,-2.39,0.01,-0.01,0.03,-0.05,-2.40,-2.40,-2.40
82.98,-2.37,0.03,-2.38,0.02,-0.03,0.01,-0.07,-2.40,-2.40,-2.40
83.81,-2.37,0.03,-2.36,0.04,-0.04,-0.00,-0.09,-2.42,-2.40,-2.40
84.65,-2.33,0.07,-2.34,0.06,-0.05,-0.02,-0.11,-2.39,-2.40,-2.40
85.50,-2.32,0.08,-2.33,0.07,-0.07,-0.04,-0.12,-2.39,-2.40,-2.40
86.35,-2.32,0.08,-2.32,0.08,-0.08,-0.05,-0.14,-2.40,-2.40,-2.40
87.22,-2.32,0.08,-2.31,0.09,-0.09,-0.07,-0.16,-2.41,-2.40,-2.40
88.09,-2.28,0.12,-2.30,0.10,-0.10,-0.08,-0.18,-2.39,-2.40,-2.40
88.97,-2.28,0.12,-2.29,0.11,-0.11,-0.10,-0.20,-2.40,-2.40,-2.40
89.86,-2.28,0.12,-2.28,0.12,-0.12,-0.11,-0.21,-2.41,-2.40,-2.40
90.76,-2.28,0.12,-2.27,0.13,-0.13,-0.13,-0.23,-2.42,-2.41,-2.40
91.66,-2.24,0.16,-2.26,0.14,-0.15,-0.15,-0.25,-2.39,-2.41,-2.40
92.58,-2.24,0.16,-2.24,0.16,-0.16,-0.16,-0.27,-2.40,-2.40,-2.40
93.51,-2.24,0.16,-2.22,0.18,-0.17,-0.18,-0.29,-2.42,-2.40,-2.40
94.44,-2.19,0.21,-2.21,0.19,-0.18,-0.20,-0.31,-2.38,-2.40,-2.40
95.39,-2.19,0.21,-2.20,0.20,-0.20,-0.21,-0.33,-2.39,-2.40,-2.40
96.34,-2.19,0.21,-2.19,0.21,-0.21,-0.23,-0.35,-2.40,-2.40,-2.40
97.30,-2.19,0.21,-2.18,0.22,-0.22,-0.25,-0.37,-2.42,-2.40,-2.40
98.28,-2.15,0.25,-2.17,0.23,-0.24,-0.26,-0.39,-2.39,-2.41,-2.40
99.26,-2.15,0.25,-2.15,0.25,-0.25,-0.28,-0.41,-2.40,-2.40,-2.40
100.25,-2.15,0.25,-2.14,0.26,-0.26,-0.30,-0.43,-2.41,-2.40,-2.40
101.25,-2.11,0.29,-2.13,0.27,-0.27,-0.31,-0.45,-2.39,-2.40,-2.40
102.27,-2.11,0.29,-2.12,0.29,-0.29,-0.33,-0.47,-2.40,-2.40,-2.40
103.29,-2.11,0.29,-2.10,0.30,-0.30,-0.35,-0.49,-2.41,-2.40,-2.40
104.32,-2.07,0.33,-2.09,0.31,-0.32,-0.36,-0.51,-2.39,-2.40,-2.40
105.37,-2.06,0.34,-2.07,0.33,-0.33,-0.38,-0.53,-2.40,-2.40,-2.40
106.42,-2.06,0.34,-2.05,0.35,-0.35,-0.40,-0.55,-2.42,-2.40,-2.40
107.48,-2.02,0.38,-2.04,0.36,-0.37,-0.42,-0.57,-2.40,-2.41,-2.40
108.56,-2.02,0.38,-2.01,0.39,-0.39,-0.43,-0.58,-2.42,-2.41,-2.40
109.64,-1.98,0.42,-1.99,0.42,-0.42,-0.45,-0.60,-2.40,-2.40,-2.40
110.74,-1.95,0.45,-1.96,0.44,-0.44,-0.46,-0.62,-2.39,-2.40,-2.40
111.85,-1.93,0.47,-1.93,0.47,-0.46,-0.48,-0.64,-2.40,-2.40,-2.40
112.97,-1.90,0.50,-1.91,0.49,-0.49,-0.50,-0.65,-2.39,-2.40,-2.40
114.10,-1.89,0.51,-1.89,0.51,-0.51,-0.51,-0.67,-2.41,-2.40,-2.40
115.24,-1.86,0.54,-1.87,0.53,-0.53,-0.53,-0.68,-2.40,-2.40,-2.40
116.39,-1.85,0.55,-1.85,0.55,-0.55,-0.55,-0.70,-2.41,-2.40,-2.40
117.55,-1.82,0.58,-1.83,0.57,-0.57,-0.56,-0.71,-2.40,-2.40,-2.40
118.73,-1.81,0.59,-1.81,0.59,-0.59,-0.58,-0.72,-2.40,-2.40,-2.40
119.92,-1.80,0.60,-1.80,0.61,-0.60,-0.59,-0.73,-2.41,-2.40,-2.40
121.12,-1.77,0.63,-1.78,0.62,-0.61,-0.61,-0.74,-2.39,-2.40,-2.40
122.33,-1.76,0.64,-1.77,0.63,-0.63,-0.62,-0.75,-2.39,-2.39,-2.40
123.55,-1.76,0.64,-1.77,0.64,-0.63,-0.64,-0.76,-2.40,-2.40,-2.40
124.79,-1.76,0.64,-1.76,0.64,-0.64,-0.65,-0.77,-2.41,-2.41,-2.40
126.03,-1.76,0.64,-1.75,0.65,-0.65,-0.66,-0.77,-2.41,-2.40,-2.40
127.29,-1.73,0.67,-1.74,0.66,-0.66,-0.68,-0.78,-2.39,-2.40,-2.40
128.57,-1.72,0.68,-1.73,0.67,-0.67,-0.69,-0.78,-2.39,-2.40,-2.40
129.85,-1.72,0.68,-1.72,0.68,-0.68,-0.70,-0.78,-2.41,-2.41,-2.40
131.15,-1.72,0.68,-1.71,0.69,-0.70,-0.72,-0.78,-2.43,-2.42,-2.40
132.46,-1.68,0.72,-1.69,0.71,-0.73,-0.73,-0.78,-2.41,-2.41,-2.40
133.79,-1.65,0.75,-1.66,0.74,-0.75,-0.74,-0.78,-2.40,-2.41,-2.40
135.12,-1.62,0.78,-1.62,0.78,-0.77,-0.75,-0.78,-2.39,-2.39,-2.40
136.48,-1.59,0.81,-1.59,0.81,-0.79,-0.76,-0.78,-2.39,-2.39,-2.40
137.84,-1.56,0.84,-1.57,0.83,-0.82,-0.77,-0.77,-2.38,-2.39,-2.40
139.22,-1.55,0.85,-1.56,0.84,-0.84,-0.78,-0.77,-2.39,-2.40,-2.40
140.61,-1.55,0.85,-1.55,0.85,-0.86,-0.79,-0.76,-2.41,-2.41,-2.40
142.02,-1.55,0.85,-1.54,0.86,-0.88,-0.80,-0.76,-2.43,-2.42,-2.40
143.44,-1.50,0.90,-1.52,0.88,-0.90,-0.81,-0.75,-2.40,-2.41,-2.40
144.87,-1.49,0.91,-1.49,0.91,-0.91,-0.82,-0.75,-2.40,-2.40,-2.40
146.32,-1.46,0.94,-1.47,0.93,-0.92,-0.83,-0.74,-2.38,-2.39,-2.40
147.78,-1.46,0.94,-1.46,0.94,-0.93,-0.84,-0.73,-2.39,-2.39,-2.40
149.26,-1.45,0.95,-1.45,0.95,-0.94,-0.84,-0.73,-2.39,-2.39,-2.40
150.75,-1.44,0.96,-1.46,0.95,-0.95,-0.85,-0.72,-2.39,-2.40,-2.40
152.26,-1.46,0.94,-1.46,0.94,-0.95,-0.86,-0.71,-2.42,-2.41,-2.40
153.78,-1.46,0.94,-1.46,0.94,-0.95,-0.86,-0.71,-2.42,-2.42,-2.40
155.32,-1.46,0.94,-1.46,0.94,-0.95,-0.87,-0.70,-2.42,-2.41,-2.40
156.88,-1.44,0.96,-1.44,0.96,-0.95,-0.87,-0.70,-2.40,-2.40,-2.40
158.44,-1.42,0.98,-1.43,0.97,-0.95,-0.88,-0.69,-2.38,-2.39,-2.40
160.03,-1.42,0.98,-1.44,0.96,-0.96,-0.88,-0.68,-2.38,-2.39,-2.40
161.63,-1.46,0.94,-1.45,0.95,-0.95,-0.89,-0.68,-2.42,-2.40,-2.40
163.24,-1.46,0.94,-1.46,0.94,-0.95,-0.89,-0.67,-2.42,-2.41,-2.40
164.88,-1.46,0.94,-1.46,0.94,-0.94,-0.90,-0.67,-2.41,-2.41,-2.40
166.53,-1.46,0.94,-1.46,0.94,-0.93,-0.90,-0.66,-2.39,-2.39,-2.40
168.19,-1.46,0.94,-1.48,0.93,-0.91,-0.90,-0.66,-2.38,-2.39,-2.40
169.87,-1.50,0.90,-1.50,0.90,-0.89,-0.91,-0.66,-2.40,-2.39,-2.40
171.57,-1.52,0.88,-1.53,0.88,-0.88,-0.91,-0.65,-2.40,-2.40,-2.40
173.29,-1.55,0.85,-1.56,0.85,-0.86,-0.91,-0.65,-2.41,-2.41,-2.40
175.02,-1.57,0.83,-1.57,0.83,-0.84,-0.91,-0.65,-2.41,-2.41,-2.40
176.77,-1.59,0.81,-1.59,0.81,-0.82,-0.91,-0.65,-2.41,-2.41,-2.40
178.54,-1.59,0.81,-1.61,0.80,-0.80,-0.92,-0.65,-2.39,-2.40,-2.40
180.32,-1.62,0.78,-1.62,0.78,-0.78,-0.92,-0.65,-2.40,-2.40,-2.40
182.13,-1.63,0.77,-1.63,0.77,-0.77,-0.92,-0.65,-2.40,-2.39,-2.40
183.95,-1.63,0.77,-1.65,0.76,-0.75,-0.92,-0.65,-2.39,-2.40,-2.40
185.79,-1.65,0.75,-1.66,0.74,-0.74,-0.92,-0.65,-2.40,-2.40,-2.40
187.65,-1.68,0.72,-1.67,0.73,-0.73,-0.92,-0.65,-2.42,-2.41,-2.40
189.52,-1.68,0.72,-1.69,0.72,-0.73,-0.92,-0.65,-2.41,-2.41,-2.40
191.42,-1.68,0.72,-1.69,0.71,-0.72,-0.92,-0.66,-2.40,-2.41,-2.40
193.33,-1.68,0.72,-1.68,0.72,-0.72,-0.92,-0.66,-2.40,-2.40,-2.40
195.27,-1.68,0.72,-1.68,0.72,-0.71,-0.92,-0.66,-2.40,-2.40,-2.40
197.22,-1.68,0.72,-1.68,0.72,-0.71,-0.92,-0.67,-2.40,-2.40,-2.40
199.19,-1.68,0.72,-1.68,0.72,-0.71,-0.91,-0.67,-2.40,-2.40,-2.40
201.18,-1.68,0.72,-1.68,0.72,-0.71,-0.91,-0.67,-2.40,-2.40,-2.40
203.19,-1.68,0.72,-1.69,0.71,-0.72,-0.91,-0.68,-2.40,-2.40,-2.40
205.23,-1.68,0.72,-1.69,0.71,-0.72,-0.91,-0.68,-2.41,-2.41,-2.40
207.28,-1.68,0.72,-1.68,0.72,-0.73,-0.91,-0.69,-2.41,-2.41,-2.40
209.35,-1.66,0.74,-1.67,0.74,-0.74,-0.91,-0.70,-2.41,-2.41,-2.40
211.44,-1.63,0.77,-1.65,0.76,-0.76,-0.90,-0.70,-2.39,-2.40,-2.40
213.56,-1.63,0.77,-1.62,0.78,-0.78,-0.90,-0.71,-2.41,-2.40,-2.40
215.69,-1.59,0.81,-1.60,0.80,-0.80,-0.90,-0.71,-2.39,-2.40,-2.40
217.85,-1.57,0.83,-1.58,0.83,-0.82,-0.90,-0.72,-2.40,-2.40,-2.40
220.03,-1.55,0.85,-1.55,0.85,-0.85,-0.89,-0.73,-2.40,-2.40,-2.40
222.23,-1.51,0.89,-1.52,0.88,-0.87,-0.89,-0.73,-2.39,-2.40,-2.40
224.45,-1.50,0.90,-1.50,0.90,-0.90,-0.89,-0.74,-2.40,-2.40,-2.40
226.70,-1.47,0.93,-1.48,0.92,-0.93,-0.89,-0.75,-2.40,-2.40,-2.40
228.96,-1.46,0.94,-1.46,0.94,-0.95,-0.88,-0.75,-2.41,-2.41,-2.40
231.25,-1.42,0.98,-1.43,0.97,-0.97,-0.88,-0.76,-2.40,-2.40,-2.40
233.57,-1.40,1.00,-1.40,1.00,-1.00,-0.88,-0.76,-2.40,-2.40,-2.40
235.90,-1.37,1.03,-1.38,1.02,-1.02,-0.87,-0.77,-2.40,-2.40,-2.40
238.26,-1.36,1.04,-1.36,1.04,-1.04,-0.87,-0.77,-2.41,-2.40,-2.40
240.64,-1.33,1.07,-1.34,1.06,-1.06,-0.86,-0.78,-2.40,-2.40,-2.40
243.05,-1.33,1.07,-1.32,1.08,-1.08,-0.86,-0.78,-2.41,-2.40,-2.40
245.48,-1.29,1.11,-1.31,1.10,-1.09,-0.86,-0.79,-2.39,-2.40,-2.40
247.93,-1.29,1.11,-1.30,1.10,-1.10,-0.85,-0.79,-2.39,-2.40,-2.40
250.41,-1.29,1.11,-1.29,1.11,-1.11,-0.85,-0.79,-2.40,-2.40,-2.40
252.92,-1.29,1.11,-1.29,1.11,-1.11,-0.84,-0.80,-2.40,-2.40,-2.40
255.45,-1.29,1.11,-1.29,1.11,-1.11,-0.84,-0.80,-2.41,-2.41,-2.40
258.00,-1.29,1.11,-1.29,1.11,-1.11,-0.83,-0.80,-2.40,-2.40,-2.40
260.58,-1.29,1.11,-1.29,1.11,-1.11,-0.83,-0.80,-2.40,-2.40,-2.40
263.19,-1.29,1.11,-1.30,1.11,-1.10,-0.82,-0.80,-2.40,-2.40,-2.40
265.82,-1.29,1.11,-1.30,1.10,-1.10,-0.82,-0.80,-2.39,-2.40,-2.40
268.48,-1.31,1.09,-1.31,1.09,-1.10,-0.81,-0.80,-2.41,-2.40,-2.40
271.16,-1.31,1.09,-1.31,1.09,-1.09,-0.80,-0.80,-2.41,-2.41,-2.40
273.87,-1.31,1.09,-1.31,1.09,-1.09,-0.80,-0.80,-2.40,-2.40,-2.40
276.61,-1.31,1.09,-1.32,1.09,-1.08,-0.79,-0.80,-2.40,-2.40,-2.40
279.38,-1.31,1.09,-1.32,1.08,-1.08,-0.78,-0.80,-2.40,-2.40,-2.40
282.17,-1.33,1.07,-1.33,1.07,-1.08,-0.78,-0.80,-2.41,-2.41,-2.40
284.99,-1.33,1.07,-1.33,1.07,-1.07,-0.77,-0.80,-2.41,-2.41,-2.40
287.84,-1.33,1.07,-1.33,1.07,-1.07,-0.76,-0.80,-2.40,-2.40,-2.40
290.72,-1.33,1.07,-1.34,1.06,-1.06,-0.76,-0.80,-2.39,-2.40,-2.40
293.63,-1.34,1.06,-1.35,1.05,-1.05,-0.75,-0.80,-2.39,-2.39,-2.40
296.57,-1.37,1.03,-1.37,1.03,-1.03,-0.74,-0.80,-2.40,-2.40,-2.40
299.53,-1.38,1.02,-1.39,1.01,-1.01,-0.73,-0.81,-2.40,-2.40,-2.40
302.53,-1.42,0.98,-1.41,0.99,-0.99,-0.72,-0.81,-2.42,-2.41,-2.40
305.55,-1.43,0.97,-1.44,0.96,-0.96,-0.71,-0.81,-2.40,-2.41,-2.40
308.61,-1.46,0.94,-1.47,0.93,-0.94,-0.70,-0.81,-2.40,-2.40,-2.40
311.69,-1.50,0.90,-1.50,0.90,-0.90,-0.69,-0.81,-2.41,-2.40,-2.40
314.81,-1.52,0.88,-1.54,0.87,-0.87,-0.68,-0.81,-2.39,-2.40,-2.40
317.96,-1.58,0.82,-1.57,0.83,-0.82,-0.67,-0.82,-2.41,-2.40,-2.40
321.14,-1.61,0.79,-1.62,0.78,-0.78,-0.66,-0.82,-2.39,-2.40,-2.40
324.35,-1.66,0.74,-1.67,0.73,-0.73,-0.65,-0.82,-2.39,-2.40,-2.40
327.59,-1.72,0.68,-1.72,0.68,-0.67,-0.64,-0.83,-2.40,-2.40,-2.40
330.87,-1.78,0.62,-1.79,0.62,-0.62,-0.63,-0.83,-2.40,-2.40,-2.40
334.18,-1.84,0.56,-1.85,0.55,-0.55,-0.62,-0.84,-2.40,-2.40,-2.40
337.52,-1.91,0.49,-1.91,0.49,-0.49,-0.61,-0.85,-2.41,-2.40,-2.40
340.90,-1.96,0.44,-1.97,0.43,-0.43,-0.60,-0.85,-2.39,-2.40,-2.40
344.30,-2.03,0.37,-2.03,0.37,-0.37,-0.59,-0.86,-2.40,-2.40,-2.40
347.75,-2.09,0.31,-2.09,0.31,-0.31,-0.58,-0.87,-2.41,-2.40,-2.40
351.23,-2.13,0.27,-2.14,0.26,-0.26,-0.57,-0.88,-2.40,-2.41,-2.40
354.74,-2.19,0.21,-2.19,0.21,-0.22,-0.56,-0.89,-2.42,-2.41,-2.40
358.28,-2.22,0.18,-2.22,0.18,-0.19,-0.56,-0.90,-2.41,-2.41,-2.40
361.87,-2.24,0.16,-2.24,0.16,-0.16,-0.55,-0.91,-2.41,-2.40,-2.40
365.49,-2.24,0.16,-2.25,0.15,-0.15,-0.55,-0.92,-2.39,-2.40,-2.40
369.14,-2.24,0.16,-2.25,0.15,-0.14,-0.54,-0.93,-2.39,-2.39,-2.40
372.83,-2.26,0.14,-2.26,0.15,-0.14,-0.54,-0.94,-2.41,-2.40,-2.40
376.56,-2.24,0.16,-2.25,0.15,-0.16,-0.54,-0.96,-2.40,-2.41,-2.40
380.33,-2.24,0.16,-2.24,0.16,-0.17,-0.54,-0.97,-2.42,-2.41,-2.40
384.13,-2.20,0.20,-2.21,0.19,-0.20,-0.55,-0.99,-2.40,-2.41,-2.40
387.97,-2.17,0.23,-2.17,0.23,-0.23,-0.55,-1.00,-2.40,-2.40,-2.40
391.85,-2.13,0.27,-2.14,0.27,-0.26,-0.56,-1.02,-2.39,-2.40,-2.40
395.77,-2.09,0.31,-2.10,0.30,-0.30,-0.57,-1.03,-2.39,-2.40,-2.40
399.73,-2.06,0.34,-2.06,0.34,-0.34,-0.58,-1.05,-2.41,-2.40,-2.40
403.72,-2.01,0.39,-2.01,0.39,-0.39,-0.60,-1.07,-2.40,-2.40,-2.40
407.76,-1.96,0.44,-1.97,0.43,-0.44,-0.62,-1.09,-2.40,-2.40,-2.40
411.84,-1.91,0.49,-1.92,0.48,-0.48,-0.64,-1.10,-2.40,-2.40,-2.40
415.96,-1.87,0.53,-1.87,0.53,-0.53,-0.66,-1.12,-2.41,-2.41,-2.40
420.12,-1.82,0.58,-1.82,0.58,-0.59,-0.68,-1.14,-2.41,-2.40,-2.40
424.32,-1.75,0.65,-1.76,0.64,-0.64,-0.71,-1.16,-2.39,-2.40,-2.40
428.56,-1.70,0.70,-1.71,0.70,-0.69,-0.74,-1.18,-2.39,-2.39,-2.40
432.85,-1.65,0.75,-1.66,0.74,-0.74,-0.77,-1.20,-2.39,-2.40,-2.40
