frequency,raw,error,smoothed,error_smoothed,equalization,parametric_eq,fixed_band_eq,equalized_raw,equalized_smoothed,target
20.00,3.48,-0.79,3.48,-0.79,0.78,0.70,-0.59,4.26,4.26,4.26
20.20,3.54,-0.72,3.54,-0.73,0.73,0.67,-0.61,4.26,4.26,4.26
20.40,3.60,-0.67,3.60,-0.67,0.67,0.63,-0.62,4.27,4.27,4.27
20.61,3.66,-0.62,3.66,-0.61,0.61,0.59,-0.64,4.27,4.27,4.27
20.81,3.73,-0.54,3.72,-0.55,0.55,0.55,-0.66,4.28,4.28,4.27
21.02,3.79,-0.48,3.79,-0.49,0.50,0.51,-0.67,4.29,4.28,4.27
21.23,3.84,-0.44,3.85,-0.43,0.44,0.46,-0.69,4.28,4.28,4.28
21.44,3.91,-0.38,3.90,-0.38,0.38,0.42,-0.71,4.29,4.28,4.29
21.66,3.97,-0.32,3.97,-0.33,0.32,0.37,-0.73,4.29,4.29,4.29
21.87,4.03,-0.27,4.03,-0.26,0.26,0.33,-0.75,4.29,4.29,4.30
22.09,4.10,-0.19,4.09,-0.20,0.20,0.28,-0.77,4.30,4.29,4.29
22.31,4.16,-0.14,4.16,-0.14,0.14,0.23,-0.79,4.30,4.30,4.30
22.54,4.22,-0.07,4.22,-0.07,0.07,0.18,-0.81,4.29,4.30,4.29
22.76,4.29,-0.01,4.28,-0.01,0.01,0.13,-0.83,4.30,4.29,4.30
22.99,4.35,0.05,4.35,0.06,-0.06,0.08,-0.85,4.29,4.29,4.30
23.22,4.41,0.12,4.41,0.12,-0.12,0.02,-0.88,4.29,4.29,4.29
23.45,4.48,0.19,4.48,0.19,-0.18,-0.03,-0.90,4.29,4.29,4.29
23.69,4.54,0.25,4.54,0.25,-0.24,-0.08,-0.92,4.29,4.30,4.29
23.92,4.60,0.31,4.60,0.31,-0.30,-0.14,-0.95,4.30,4.30,4.29
24.16,4.65,0.36,4.65,0.36,-0.36,-0.19,-0.97,4.29,4.29,4.28
24.40,4.70,0.40,4.70,0.41,-0.41,-0.25,-1.00,4.29,4.29,4.29
24.65,4.75,0.45,4.75,0.46,-0.47,-0.30,-1.02,4.28,4.28,4.29
24.89,4.80,0.51,4.80,0.51,-0.52,-0.35,-1.05,4.28,4.28,4.29
25.14,4.86,0.58,4.86,0.57,-0.57,-0.41,-1.08,4.29,4.29,4.28
25.39,4.91,0.63,4.91,0.63,-0.62,-0.46,-1.10,4.29,4.29,4.28
25.65,4.96,0.68,4.96,0.68,-0.67,-0.52,-1.13,4.28,4.28,4.28
25.91,5.01,0.73,5.01,0.72,-0.73,-0.58,-1.16,4.28,4.28,4.28
26.16,5.06,0.77,5.06,0.78,-0.78,-0.63,-1.18,4.28,4.28,4.29
26.43,5.12,0.83,5.11,0.83,-0.83,-0.69,-1.21,4.28,4.28,4.29
26.69,5.17,0.89,5.17,0.89,-0.89,-0.74,-1.24,4.28,4.28,4.28
26.96,5.22,0.94,5.22,0.94,-0.94,-0.80,-1.27,4.28,4.28,4.28
27.23,5.27,0.99,5.26,0.99,-0.99,-0.85,-1.30,4.28,4.28,4.27
27.50,5.31,1.03,5.31,1.03,-1.04,-0.91,-1.32,4.27,4.28,4.27
27.77,5.36,1.08,5.36,1.08,-1.09,-0.96,-1.35,4.27,4.27,4.28
28.05,5.41,1.13,5.41,1.13,-1.13,-1.02,-1.38,4.27,4.27,4.28
28.33,5.46,1.19,5.46,1.18,-1.18,-1.07,-1.40,4.28,4.28,4.27
28.62,5.51,1.24,5.50,1.23,-1.23,-1.13,-1.43,4.28,4.27,4.27
28.90,5.55,1.27,5.55,1.28,-1.28,-1.18,-1.46,4.27,4.27,4.28
29.19,5.60,1.32,5.60,1.33,-1.33,-1.24,-1.48,4.27,4.27,4.28
29.48,5.65,1.38,5.65,1.38,-1.38,-1.29,-1.51,4.27,4.27,4.26
29.78,5.70,1.44,5.70,1.43,-1.43,-1.35,-1.53,4.27,4.27,4.26
30.08,5.75,1.48,5.75,1.48,-1.48,-1.40,-1.56,4.27,4.27,4.27
30.38,5.80,1.54,5.79,1.53,-1.53,-1.46,-1.58,4.27,4.27,4.26
30.68,5.84,1.57,5.84,1.58,-1.58,-1.51,-1.60,4.26,4.27,4.27
30.99,5.89,1.62,5.89,1.62,-1.63,-1.57,-1.62,4.26,4.26,4.27
31.30,5.94,1.67,5.94,1.67,-1.67,-1.62,-1.64,4.26,4.26,4.26
31.61,5.99,1.72,5.99,1.72,-1.72,-1.68,-1.67,4.26,4.26,4.27
31.93,6.04,1.78,6.04,1.77,-1.77,-1.73,-1.69,4.27,4.27,4.26
32.24,6.09,1.82,6.09,1.82,-1.82,-1.79,-1.70,4.27,4.27,4.27
32.57,6.14,1.87,6.14,1.88,-1.87,-1.84,-1.72,4.27,4.27,4.27
32.89,6.19,1.93,6.19,1.92,-1.92,-1.90,-1.74,4.27,4.27,4.26
33.22,6.24,1.98,6.24,1.97,-1.97,-1.95,-1.76,4.26,4.26,4.26
33.55,6.28,2.02,6.28,2.02,-2.02,-2.01,-1.78,4.25,4.26,4.26
33.89,6.33,2.07,6.33,2.07,-2.08,-2.06,-1.80,4.25,4.25,4.26
34.23,6.37,2.12,6.37,2.13,-2.13,-2.12,-1.81,4.24,4.24,4.24
34.57,6.42,2.19,6.41,2.18,-2.18,-2.17,-1.83,4.24,4.23,4.23
34.92,6.45,2.23,6.45,2.23,-2.23,-2.23,-1.85,4.22,4.22,4.22
35.27,6.49,2.27,6.49,2.28,-2.28,-2.28,-1.87,4.20,4.21,4.21
35.62,6.53,2.35,6.52,2.34,-2.34,-2.33,-1.88,4.19,4.19,4.18
35.97,6.56,2.39,6.56,2.39,-2.39,-2.39,-1.90,4.17,4.16,4.17
36.33,6.59,2.44,6.59,2.45,-2.45,-2.44,-1.92,4.14,4.14,4.14
36.70,6.62,2.50,6.62,2.50,-2.50,-2.49,-1.94,4.12,4.12,4.12
37.06,6.66,2.56,6.66,2.56,-2.56,-2.55,-1.96,4.10,4.10,4.10
37.43,6.69,2.62,6.69,2.61,-2.61,-2.60,-1.98,4.08,4.08,4.07
37.81,6.72,2.67,6.72,2.66,-2.66,-2.65,-2.01,4.05,4.05,4.05
38.19,6.74,2.70,6.74,2.71,-2.72,-2.70,-2.03,4.02,4.03,4.04
38.57,6.78,2.77,6.78,2.77,-2.77,-2.76,-2.06,4.01,4.01,4.01
38.95,6.81,2.82,6.81,2.82,-2.82,-2.81,-2.08,3.99,3.99,3.99
39.34,6.84,2.88,6.84,2.88,-2.87,-2.86,-2.11,3.97,3.97,3.96
39.74,6.86,2.92,6.86,2.92,-2.91,-2.91,-2.14,3.94,3.95,3.94
40.14,6.89,2.97,6.88,2.96,-2.96,-2.96,-2.17,3.93,3.92,3.92
40.54,6.90,2.99,6.90,3.00,-3.00,-3.01,-2.20,3.89,3.90,3.91
40.94,6.93,3.05,6.93,3.04,-3.05,-3.06,-2.24,3.88,3.88,3.88
41.35,6.95,3.08,6.95,3.08,-3.09,-3.10,-2.27,3.86,3.86,3.87
41.76,6.97,3.13,6.97,3.13,-3.13,-3.15,-2.31,3.84,3.84,3.84
42.18,6.99,3.16,6.99,3.16,-3.16,-3.20,-2.35,3.82,3.82,3.82
42.60,7.00,3.20,7.00,3.20,-3.20,-3.24,-2.39,3.80,3.80,3.80
43.03,7.02,3.24,7.02,3.24,-3.24,-3.29,-2.43,3.78,3.78,3.78
43.46,7.03,3.27,7.03,3.27,-3.27,-3.33,-2.48,3.76,3.76,3.75
43.90,7.05,3.31,7.05,3.31,-3.31,-3.37,-2.52,3.74,3.74,3.74
44.33,7.06,3.35,7.06,3.34,-3.34,-3.42,-2.57,3.72,3.72,3.71
44.78,7.07,3.38,7.07,3.37,-3.38,-3.46,-2.62,3.69,3.69,3.69
45.23,7.08,3.39,7.08,3.41,-3.41,-3.50,-2.68,3.67,3.67,3.68
45.68,7.09,3.44,7.09,3.44,-3.45,-3.53,-2.73,3.64,3.64,3.65
46.13,7.11,3.49,7.10,3.48,-3.48,-3.57,-2.79,3.63,3.62,3.62
46.60,7.11,3.52,7.11,3.52,-3.52,-3.61,-2.85,3.59,3.60,3.59
47.06,7.13,3.56,7.12,3.56,-3.56,-3.64,-2.91,3.57,3.57,3.57
47.53,7.13,3.59,7.13,3.59,-3.60,-3.67,-2.97,3.53,3.53,3.54
48.01,7.13,3.64,7.13,3.63,-3.64,-3.71,-3.03,3.49,3.49,3.49
48.49,7.13,3.67,7.13,3.67,-3.67,-3.74,-3.10,3.46,3.46,3.46
48.97,7.13,3.71,7.13,3.71,-3.71,-3.77,-3.16,3.42,3.42,3.42
49.46,7.13,3.74,7.12,3.75,-3.74,-3.79,-3.23,3.39,3.38,3.39
49.96,7.12,3.79,7.12,3.78,-3.77,-3.82,-3.30,3.35,3.34,3.33
50.46,7.10,3.80,7.10,3.80,-3.80,-3.84,-3.37,3.30,3.30,3.30
50.96,7.09,3.83,7.09,3.83,-3.83,-3.87,-3.44,3.26,3.26,3.26
51.47,7.08,3.85,7.08,3.85,-3.85,-3.89,-3.51,3.23,3.23,3.23
51.99,7.07,3.88,7.07,3.87,-3.88,-3.91,-3.58,3.19,3.19,3.19
52.51,7.05,3.89,7.05,3.89,-3.90,-3.93,-3.66,3.15,3.15,3.15
53.03,7.03,3.91,7.03,3.91,-3.91,-3.94,-3.73,3.11,3.11,3.12
53.56,7.00,3.92,7.00,3.93,-3.93,-3.96,-3.80,3.07,3.07,3.08
54.10,6.99,3.96,6.98,3.95,-3.95,-3.97,-3.87,3.04,3.04,3.03
54.64,6.96,3.96,6.96,3.97,-3.96,-3.98,-3.93,3.00,3.00,2.99
55.18,6.94,3.98,6.94,3.98,-3.97,-3.99,-4.00,2.96,2.96,2.96
55.74,6.91,3.99,6.91,3.98,-3.99,-4.00,-4.06,2.92,2.92,2.92
56.29,6.89,3.99,6.89,3.99,-4.00,-4.01,-4.13,2.89,2.89,2.89
56.86,6.86,3.98,6.87,4.00,-4.00,-4.01,-4.18,2.86,2.86,2.88
57.42,6.85,4.02,6.85,4.01,-4.01,-4.02,-4.24,2.84,2.84,2.83
58.00,6.83,4.03,6.82,4.02,-4.01,-4.02,-4.29,2.81,2.81,2.80
58.58,6.80,4.02,6.80,4.02,-4.02,-4.02,-4.34,2.78,2.78,2.78
59.16,6.77,4.02,6.77,4.02,-4.02,-4.02,-4.38,2.75,2.75,2.75
59.76,6.74,4.02,6.73,4.02,-4.03,-4.02,-4.42,2.71,2.71,2.72
60.35,6.69,4.02,6.69,4.02,-4.03,-4.02,-4.45,2.66,2.66,2.67
60.96,6.65,4.02,6.65,4.03,-4.03,-4.01,-4.48,2.62,2.62,2.63
61.57,6.60,4.04,6.60,4.03,-4.03,-4.01,-4.50,2.57,2.57,2.56
62.18,6.54,4.03,6.55,4.03,-4.03,-4.00,-4.51,2.51,2.52,2.51
62.80,6.50,4.03,6.49,4.03,-4.02,-3.99,-4.52,2.47,2.47,2.46
63.43,6.44,4.02,6.44,4.02,-4.02,-3.98,-4.53,2.42,2.42,2.42
64.07,6.39,4.01,6.39,4.01,-4.01,-3.97,-4.53,2.38,2.38,2.38
64.71,6.34,3.99,6.34,4.00,-4.00,-3.96,-4.52,2.34,2.34,2.35
65.35,6.29,3.99,6.29,3.98,-3.98,-3.95,-4.51,2.30,2.30,2.30
66.01,6.24,3.98,6.24,3.97,-3.97,-3.94,-4.49,2.27,2.27,2.26
66.67,6.18,3.95,6.18,3.95,-3.95,-3.93,-4.47,2.23,2.23,2.23
67.33,6.12,3.94,6.12,3.94,-3.93,-3.91,-4.44,2.18,2.19,2.18
68.01,6.06,3.92,6.06,3.92,-3.92,-3.90,-4.41,2.14,2.14,2.14
68.69,6.01,3.91,6.00,3.90,-3.90,-3.89,-4.38,2.11,2.11,2.10
69.37,5.95,3.88,5.95,3.88,-3.88,-3.87,-4.34,2.07,2.07,2.07
70.07,5.89,3.85,5.89,3.86,-3.87,-3.86,-4.30,2.02,2.03,2.04
70.77,5.84,3.85,5.84,3.84,-3.85,-3.84,-4.26,1.99,1.99,1.99
71.48,5.79,3.84,5.78,3.83,-3.84,-3.82,-4.22,1.95,1.94,1.95
72.19,5.72,3.82,5.73,3.83,-3.83,-3.81,-4.17,1.89,1.90,1.90
72.91,5.67,3.81,5.67,3.81,-3.81,-3.79,-4.12,1.86,1.86,1.86
73.64,5.62,3.81,5.61,3.80,-3.80,-3.77,-4.08,1.82,1.81,1.81
74.38,5.56,3.79,5.56,3.79,-3.79,-3.76,-4.03,1.77,1.77,1.77
75.12,5.51,3.78,5.51,3.77,-3.77,-3.74,-3.98,1.74,1.73,1.73
75.87,5.45,3.75,5.45,3.75,-3.75,-3.72,-3.94,1.70,1.70,1.70
76.63,5.40,3.74,5.40,3.73,-3.73,-3.71,-3.89,1.67,1.67,1.66
77.40,5.35,3.71,5.34,3.71,-3.71,-3.69,-3.84,1.64,1.63,1.64
78.17,5.29,3.69,5.29,3.69,-3.69,-3.67,-3.80,1.60,1.60,1.60
78.95,5.23,3.65,5.23,3.66,-3.66,-3.66,-3.76,1.56,1.57,1.57
79.74,5.19,3.64,5.18,3.64,-3.64,-3.64,-3.72,1.55,1.54,1.55
80.54,5.13,3.61,5.13,3.62,-3.61,-3.63,-3.68,1.51,1.52,1.51
81.35,5.08,3.60,5.07,3.59,-3.59,-3.61,-3.64,1.49,1.49,1.48
82.16,5.02,3.56,5.02,3.56,-3.57,-3.59,-3.60,1.45,1.45,1.46
82.98,4.96,3.53,4.97,3.54,-3.54,-3.58,-3.57,1.42,1.42,1.42
83.81,4.92,3.52,4.91,3.51,-3.52,-3.56,-3.54,1.40,1.39,1.40
84.65,4.86,3.50,4.86,3.50,-3.49,-3.55,-3.51,1.36,1.36,1.36
85.50,4.80,3.47,4.81,3.48,-3.47,-3.54,-3.49,1.33,1.33,1.33
86.35,4.76,3.46,4.75,3.45,-3.45,-3.52,-3.46,1.31,1.30,1.30
87.22,4.70,3.42,4.70,3.43,-3.43,-3.51,-3.44,1.27,1.27,1.28
88.09,4.65,3.41,4.65,3.41,-3.41,-3.50,-3.43,1.24,1.24,1.24
88.97,4.60,3.38,4.60,3.39,-3.39,-3.49,-3.41,1.20,1.20,1.21
89.86,4.55,3.38,4.55,3.38,-3.38,-3.48,-3.40,1.17,1.18,1.17
90.76,4.51,3.36,4.50,3.36,-3.36,-3.46,-3.39,1.15,1.15,1.15
91.66,4.46,3.35,4.46,3.35,-3.34,-3.45,-3.38,1.11,1.11,1.10
92.58,4.41,3.33,4.41,3.33,-3.33,-3.44,-3.38,1.08,1.08,1.08
93.51,4.36,3.31,4.36,3.32,-3.32,-3.44,-3.38,1.04,1.04,1.04
94.44,4.32,3.30,4.32,3.30,-3.31,-3.43,-3.38,1.01,1.01,1.02
95.39,4.27,3.30,4.27,3.29,-3.30,-3.42,-3.38,0.97,0.97,0.97
96.34,4.22,3.29,4.22,3.29,-3.29,-3.41,-3.39,0.93,0.93,0.93
97.30,4.17,3.28,4.17,3.28,-3.28,-3.40,-3.39,0.89,0.89,0.89
98.28,4.13,3.29,4.12,3.28,-3.27,-3.40,-3.40,0.85,0.85,0.84
99.26,4.07,3.27,4.07,3.27,-3.27,-3.39,-3.41,0.80,0.80,0.80
100.25,4.03,3.27,4.03,3.26,-3.26,-3.39,-3.43,0.76,0.76,0.76
101.25,3.98,3.25,3.98,3.26,-3.26,-3.38,-3.44,0.72,0.72,0.73
102.27,3.95,3.25,3.94,3.25,-3.26,-3.38,-3.46,0.69,0.69,0.69
103.29,3.91,3.25,3.91,3.25,-3.25,-3.38,-3.48,0.65,0.65,0.66
104.32,3.87,3.25,3.87,3.25,-3.25,-3.37,-3.49,0.62,0.62,0.62
105.37,3.84,3.26,3.83,3.25,-3.25,-3.37,-3.51,0.59,0.58,0.58
106.42,3.80,3.25,3.80,3.26,-3.25,-3.37,-3.53,0.54,0.55,0.55
107.48,3.77,3.26,3.77,3.26,-3.26,-3.37,-3.55,0.51,0.51,0.50
108.56,3.74,3.26,3.73,3.26,-3.26,-3.36,-3.57,0.48,0.47,0.48
109.64,3.70,3.26,3.70,3.26,-3.26,-3.36,-3.59,0.44,0.44,0.44
110.74,3.67,3.27,3.67,3.27,-3.27,-3.36,-3.61,0.40,0.40,0.40
111.85,3.64,3.27,3.64,3.27,-3.27,-3.36,-3.63,0.37,0.37,0.36
112.97,3.60,3.28,3.60,3.28,-3.28,-3.36,-3.65,0.32,0.32,0.32
114.10,3.56,3.28,3.56,3.28,-3.28,-3.37,-3.67,0.28,0.28,0.28
115.24,3.51,3.28,3.51,3.29,-3.29,-3.37,-3.68,0.22,0.22,0.22
116.39,3.47,3.30,3.47,3.29,-3.30,-3.37,-3.69,0.17,0.17,0.17
117.55,3.42,3.30,3.42,3.31,-3.31,-3.37,-3.70,0.11,0.11,0.11
118.73,3.38,3.32,3.38,3.32,-3.32,-3.37,-3.71,0.06,0.06,0.06
119.92,3.34,3.33,3.34,3.33,-3.34,-3.38,-3.72,0.00,0.00,0.00
121.12,3.31,3.35,3.31,3.36,-3.36,-3.38,-3.72,-0.05,-0.05,-0.04
122.33,3.28,3.38,3.28,3.38,-3.38,-3.38,-3.72,-0.10,-0.10,-0.10
123.55,3.25,3.41,3.24,3.40,-3.40,-3.39,-3.71,-0.16,-0.16,-0.16
124.79,3.21,3.43,3.21,3.43,-3.43,-3.39,-3.71,-0.22,-0.22,-0.22
126.03,3.17,3.45,3.17,3.45,-3.46,-3.39,-3.70,-0.29,-0.28,-0.28
127.29,3.14,3.48,3.14,3.48,-3.48,-3.40,-3.68,-0.34,-0.34,-0.34
128.57,3.11,3.51,3.10,3.51,-3.50,-3.40,-3.67,-0.39,-0.40,-0.40
129.85,3.06,3.52,3.06,3.52,-3.52,-3.40,-3.65,-0.46,-0.46,-0.46
131.15,3.02,3.54,3.02,3.54,-3.53,-3.41,-3.62,-0.51,-0.51,-0.52
132.46,2.97,3.54,2.97,3.54,-3.54,-3.41,-3.60,-0.57,-0.57,-0.57
133.79,2.93,3.55,2.92,3.54,-3.54,-3.41,-3.57,-0.61,-0.62,-0.62
135.12,2.88,3.54,2.88,3.54,-3.54,-3.42,-3.54,-0.66,-0.66,-0.66
136.48,2.83,3.52,2.83,3.53,-3.53,-3.42,-3.50,-0.70,-0.70,-0.69
137.84,2.79,3.52,2.78,3.52,-3.52,-3.42,-3.47,-0.73,-0.74,-0.73
139.22,2.74,3.52,2.74,3.51,-3.51,-3.43,-3.43,-0.77,-0.77,-0.78
140.61,2.68,3.48,2.69,3.49,-3.49,-3.43,-3.39,-0.81,-0.80,-0.80
142.02,2.64,3.47,2.64,3.47,-3.47,-3.43,-3.35,-0.83,-0.84,-0.84
143.44,2.59,3.46,2.59,3.45,-3.45,-3.43,-3.31,-0.86,-0.87,-0.87
144.87,2.54,3.43,2.54,3.43,-3.43,-3.44,-3.27,-0.89,-0.89,-0.89
146.32,2.49,3.41,2.49,3.41,-3.41,-3.44,-3.23,-0.92,-0.92,-0.92
147.78,2.45,3.40,2.44,3.39,-3.39,-3.44,-3.19,-0.94,-0.95,-0.95
149.26,2.40,3.37,2.40,3.38,-3.37,-3.44,-3.15,-0.98,-0.98,-0.98
150.75,2.35,3.36,2.35,3.36,-3.36,-3.44,-3.11,-1.01,-1.01,-1.01
152.26,2.31,3.34,2.31,3.34,-3.35,-3.44,-3.07,-1.04,-1.04,-1.03
153.78,2.27,3.33,2.27,3.33,-3.34,-3.44,-3.03,-1.07,-1.07,-1.07
155.32,2.24,3.33,2.23,3.32,-3.33,-3.43,-2.99,-1.09,-1.10,-1.09
156.88,2.19,3.31,2.20,3.32,-3.32,-3.43,-2.95,-1.13,-1.13,-1.12
158.44,2.16,3.33,2.16,3.32,-3.32,-3.43,-2.91,-1.16,-1.16,-1.17
160.03,2.12,3.32,2.11,3.31,-3.31,-3.42,-2.88,-1.19,-1.20,-1.20
161.63,2.07,3.30,2.07,3.31,-3.31,-3.42,-2.85,-1.24,-1.23,-1.23
163.24,2.03,3.30,2.03,3.30,-3.30,-3.41,-2.81,-1.27,-1.27,-1.27
164.88,1.99,3.30,1.98,3.30,-3.29,-3.41,-2.79,-1.30,-1.31,-1.31
166.53,1.94,3.29,1.94,3.29,-3.28,-3.40,-2.76,-1.34,-1.34,-1.35
168.19,1.89,3.27,1.89,3.27,-3.27,-3.39,-2.73,-1.38,-1.38,-1.38
169.87,1.84,3.26,1.84,3.25,-3.26,-3.38,-2.71,-1.42,-1.42,-1.42
171.57,1.79,3.23,1.79,3.24,-3.25,-3.37,-2.68,-1.46,-1.46,-1.44
173.29,1.76,3.24,1.75,3.23,-3.24,-3.36,-2.66,-1.48,-1.49,-1.48
175.02,1.71,3.22,1.71,3.23,-3.23,-3.35,-2.65,-1.52,-1.52,-1.52
176.77,1.68,3.23,1.68,3.22,-3.22,-3.34,-2.63,-1.55,-1.55,-1.55
178.54,1.64,3.21,1.64,3.22,-3.22,-3.33,-2.61,-1.58,-1.58,-1.57
180.32,1.60,3.22,1.60,3.21,-3.21,-3.31,-2.60,-1.62,-1.61,-1.62
182.13,1.56,3.21,1.56,3.21,-3.21,-3.30,-2.59,-1.65,-1.65,-1.65
183.95,1.52,3.20,1.52,3.21,-3.20,-3.28,-2.58,-1.68,-1.68,-1.68
185.79,1.49,3.20,1.48,3.20,-3.19,-3.26,-2.58,-1.71,-1.71,-1.71
187.65,1.45,3.19,1.44,3.19,-3.18,-3.24,-2.57,-1.74,-1.74,-1.74
189.52,1.39,3.17,1.40,3.17,-3.17,-3.23,-2.57,-1.79,-1.78,-1.78
191.42,1.35,3.15,1.35,3.16,-3.16,-3.21,-2.57,-1.81,-1.81,-1.80
193.33,1.31,3.15,1.30,3.15,-3.15,-3.18,-2.57,-1.84,-1.84,-1.84
195.27,1.26,3.14,1.26,3.13,-3.13,-3.16,-2.57,-1.87,-1.88,-1.88
197.22,1.21,3.12,1.21,3.12,-3.12,-3.14,-2.58,-1.91,-1.91,-1.92
199.19,1.15,3.09,1.16,3.10,-3.10,-3.11,-2.58,-1.95,-1.94,-1.94
201.18,1.11,3.08,1.11,3.08,-3.08,-3.09,-2.59,-1.97,-1.97,-1.97
203.19,1.07,3.06,1.06,3.06,-3.06,-3.06,-2.60,-1.99,-2.00,-2.00
205.23,1.02,3.04,1.02,3.04,-3.04,-3.04,-2.60,-2.02,-2.02,-2.02
207.28,0.97,3.01,0.97,3.02,-3.02,-3.01,-2.61,-2.05,-2.05,-2.04
209.35,0.92,3.00,0.92,2.99,-3.00,-2.98,-2.62,-2.08,-2.08,-2.08
211.44,0.87,2.97,0.87,2.97,-2.97,-2.95,-2.63,-2.11,-2.10,-2.10
213.56,0.83,2.95,0.82,2.95,-2.95,-2.92,-2.64,-2.12,-2.13,-2.13
215.69,0.78,2.93,0.78,2.92,-2.92,-2.89,-2.65,-2.15,-2.15,-2.15
217.85,0.72,2.89,0.72,2.90,-2.89,-2.86,-2.66,-2.18,-2.17,-2.17
220.03,0.67,2.87,0.67,2.87,-2.86,-2.82,-2.67,-2.20,-2.20,-2.20
222.23,0.61,2.83,0.61,2.83,-2.83,-2.79,-2.68,-2.22,-2.22,-2.22
224.45,0.55,2.79,0.55,2.80,-2.79,-2.75,-2.68,-2.25,-2.24,-2.25
226.70,0.49,2.75,0.49,2.76,-2.76,-2.72,-2.69,-2.27,-2.26,-2.27
228.96,0.44,2.71,0.43,2.71,-2.72,-2.68,-2.69,-2.28,-2.28,-2.28
231.25,0.38,2.67,0.37,2.67,-2.67,-2.64,-2.70,-2.30,-2.30,-2.30
233.57,0.31,2.62,0.31,2.63,-2.63,-2.61,-2.70,-2.32,-2.32,-2.32
235.90,0.25,2.59,0.25,2.59,-2.59,-2.57,-2.69,-2.34,-2.34,-2.35
238.26,0.19,2.55,0.19,2.55,-2.55,-2.53,-2.69,-2.36,-2.36,-2.36
240.64,0.13,2.49,0.13,2.50,-2.50,-2.49,-2.68,-2.37,-2.37,-2.36
243.05,0.08,2.46,0.07,2.45,-2.46,-2.45,-2.67,-2.38,-2.38,-2.38
245.48,0.01,2.41,0.01,2.41,-2.41,-2.41,-2.66,-2.40,-2.40,-2.40
247.93,-0.05,2.37,-0.05,2.37,-2.36,-2.36,-2.65,-2.42,-2.41,-2.42
250.41,-0.10,2.32,-0.11,2.32,-2.32,-2.32,-2.63,-2.42,-2.43,-2.42
252.92,-0.16,2.27,-0.16,2.27,-2.27,-2.28,-2.60,-2.44,-2.44,-2.43
255.45,-0.22,2.23,-0.22,2.23,-2.23,-2.23,-2.58,-2.45,-2.45,-2.45
258.00,-0.27,2.18,-0.27,2.18,-2.19,-2.19,-2.55,-2.46,-2.46,-2.46
260.58,-0.32,2.14,-0.32,2.14,-2.14,-2.15,-2.52,-2.46,-2.46,-2.46
263.19,-0.37,2.11,-0.37,2.10,-2.10,-2.10,-2.49,-2.47,-2.47,-2.48
265.82,-0.43,2.05,-0.43,2.06,-2.06,-2.05,-2.45,-2.49,-2.48,-2.48
268.48,-0.48,2.02,-0.49,2.01,-2.01,-2.01,-2.41,-2.49,-2.50,-2.50
271.16,-0.54,1.96,-0.54,1.97,-1.97,-1.96,-2.37,-2.51,-2.51,-2.50
273.87,-0.60,1.92,-0.60,1.92,-1.92,-1.91,-2.32,-2.53,-2.52,-2.52
276.61,-0.65,1.88,-0.65,1.88,-1.88,-1.87,-2.28,-2.53,-2.53,-2.54
279.38,-0.71,1.84,-0.71,1.84,-1.83,-1.82,-2.23,-2.55,-2.54,-2.55
282.17,-0.76,1.79,-0.76,1.79,-1.79,-1.77,-2.18,-2.55,-2.55,-2.55
284.99,-0.82,1.74,-0.82,1.74,-1.74,-1.72,-2.13,-2.56,-2.56,-2.56
287.84,-0.87,1.68,-0.87,1.69,-1.69,-1.67,-2.08,-2.57,-2.57,-2.55
290.72,-0.92,1.66,-0.93,1.65,-1.65,-1.62,-2.02,-2.57,-2.57,-2.58
293.63,-0.98,1.60,-0.98,1.60,-1.60,-1.58,-1.97,-2.58,-2.58,-2.58
296.57,-1.03,1.55,-1.03,1.55,-1.55,-1.53,-1.91,-2.58,-2.58,-2.59
299.53,-1.09,1.50,-1.09,1.50,-1.50,-1.48,-1.86,-2.59,-2.59,-2.59
302.53,-1.14,1.45,-1.14,1.45,-1.45,-1.43,-1.80,-2.59,-2.59,-2.59
305.55,-1.19,1.40,-1.19,1.40,-1.40,-1.39,-1.74,-2.59,-2.60,-2.60
308.61,-1.24,1.35,-1.24,1.35,-1.35,-1.34,-1.69,-2.60,-2.60,-2.59
311.69,-1.29,1.30,-1.29,1.30,-1.31,-1.29,-1.63,-2.60,-2.60,-2.59
314.81,-1.33,1.26,-1.34,1.26,-1.26,-1.25,-1.57,-2.59,-2.60,-2.60
317.96,-1.38,1.22,-1.38,1.22,-1.21,-1.21,-1.52,-2.60,-2.59,-2.60
321.14,-1.42,1.17,-1.42,1.17,-1.17,-1.16,-1.46,-2.59,-2.59,-2.59
324.35,-1.46,1.13,-1.46,1.13,-1.13,-1.12,-1.41,-2.59,-2.59,-2.59
327.59,-1.50,1.08,-1.50,1.09,-1.09,-1.08,-1.35,-2.59,-2.59,-2.58
330.87,-1.54,1.05,-1.54,1.05,-1.04,-1.05,-1.30,-2.59,-2.59,-2.59
334.18,-1.58,1.01,-1.58,1.00,-1.00,-1.01,-1.24,-2.58,-2.58,-2.59
337.52,-1.62,0.96,-1.62,0.97,-0.96,-0.97,-1.19,-2.59,-2.58,-2.58
340.90,-1.65,0.92,-1.66,0.92,-0.93,-0.94,-1.14,-2.58,-2.58,-2.58
344.30,-1.69,0.89,-1.69,0.89,-0.89,-0.91,-1.08,-2.58,-2.58,-2.58
347.75,-1.72,0.85,-1.72,0.85,-0.86,-0.87,-1.03,-2.58,-2.58,-2.57
351.23,-1.75,0.83,-1.75,0.82,-0.82,-0.84,-0.98,-2.58,-2.58,-2.58
354.74,-1.78,0.78,-1.78,0.79,-0.79,-0.81,-0.93,-2.57,-2.57,-2.56
358.28,-1.81,0.76,-1.81,0.77,-0.76,-0.79,-0.88,-2.58,-2.57,-2.58
361.87,-1.83,0.75,-1.84,0.74,-0.74,-0.76,-0.84,-2.57,-2.57,-2.58
365.49,-1.86,0.71,-1.86,0.71,-0.71,-0.73,-0.79,-2.57,-2.57,-2.57
369.14,-1.89,0.68,-1.89,0.69,-0.69,-0.70,-0.74,-2.58,-2.57,-2.57
372.83,-1.91,0.66,-1.92,0.66,-0.66,-0.68,-0.69,-2.57,-2.58,-2.57
376.56,-1.94,0.64,-1.94,0.64,-0.63,-0.65,-0.65,-2.58,-2.58,-2.58
380.33,-1.97,0.60,-1.97,0.61,-0.61,-0.63,-0.60,-2.58,-2.58,-2.58
384.13,-1.99,0.59,-1.99,0.58,-0.58,-0.60,-0.56,-2.57,-2.58,-2.58
387.97,-2.01,0.56,-2.02,0.56,-0.56,-0.58,-0.51,-2.57,-2.57,-2.57
391.85,-2.04,0.53,-2.04,0.53,-0.53,-0.55,-0.47,-2.57,-2.57,-2.57
395.77,-2.06,0.51,-2.06,0.51,-0.51,-0.53,-0.43,-2.57,-2.57,-2.57
399.73,-2.08,0.48,-2.08,0.48,-0.48,-0.50,-0.39,-2.56,-2.56,-2.56
403.72,-2.10,0.45,-2.10,0.46,-0.46,-0.48,-0.35,-2.56,-2.56,-2.55
407.76,-2.12,0.43,-2.12,0.43,-0.43,-0.45,-0.31,-2.55,-2.55,-2.55
411.84,-2.14,0.41,-2.14,0.41,-0.41,-0.43,-0.27,-2.55,-2.55,-2.56
415.96,-2.16,0.38,-2.17,0.39,-0.39,-0.41,-0.23,-2.55,-2.55,-2.55
420.12,-2.19,0.37,-2.19,0.37,-0.36,-0.38,-0.19,-2.56,-2.55,-2.56
424.32,-2.21,0.35,-2.21,0.34,-0.34,-0.36,-0.15,-2.55,-2.55,-2.56
428.56,-2.22,0.32,-2.23,0.32,-0.32,-0.33,-0.12,-2.54,-2.55,-2.54
432.85,-2.24,0.30,-2.25,0.30,-0.30,-0.31,-0.08,-2.55,-2.55,-2.54
437.18,-2.27,0.28,-2.26,0.28,-0.28,-0.29,-0.05,-2.56,-2.55,-2.55
441.55,-2.28,0.27,-2.28,0.27,-0.27,-0.26,-0.02,-2.55,-2.55,-2.55
445.96,-2.30,0.25,-2.30,0.25,-0.25,-0.24,0.02,-2.55,-2.55,-2.55
450.42,-2.32,0.23,-2.32,0.23,-0.23,-0.21,0.05,-2.55,-2.55,-2.55
454.93,-2.34,0.21,-2.34,0.21,-0.21,-0.19,0.08,-2.55,-2.55,-2.55
459.48,-2.36,0.19,-2.36,0.19,-0.19,-0.17,0.11,-2.55,-2.55,-2.55
464.07,-2.37,0.17,-2.38,0.17,-0.17,-0.14,0.13,-2.54,-2.55,-2.55
468.71,-2.39,0.14,-2.39,0.15,-0.16,-0.12,0.16,-2.55,-2.54,-2.54
473.40,-2.40,0.13,-2.40,0.13,-0.14,-0.10,0.18,-2.54,-2.54,-2.54
478.13,-2.41,0.13,-2.41,0.12,-0.13,-0.07,0.21,-2.54,-2.54,-2.54
482.91,-2.42,0.12,-2.42,0.11,-0.12,-0.05,0.23,-2.54,-2.54,-2.54
487.74,-2.43,0.11,-2.43,0.11,-0.10,-0.03,0.25,-2.54,-2.54,-2.54
492.62,-2.44,0.10,-2.44,0.10,-0.10,-0.01,0.27,-2.54,-2.53,-2.54
497.55,-2.44,0.10,-2.45,0.09,-0.09,0.02,0.29,-2.53,-2.53,-2.54
