frequency,raw,error,smoothed,error_smoothed,equalization,parametric_eq,fixed_band_eq,equalized_raw,equalized_smoothed,target
20.00,-5.33,-10.07,-5.33,-10.07,6.00,5.60,2.85,0.67,0.67,4.75
20.20,-5.26,-10.04,-5.25,-10.04,6.00,5.64,2.92,0.74,0.75,4.79
20.40,-5.17,-10.00,-5.18,-10.00,6.00,5.67,3.01,0.83,0.82,4.83
20.61,-5.11,-9.95,-5.11,-9.96,6.00,5.70,3.09,0.89,0.89,4.84
20.81,-5.03,-9.92,-5.03,-9.92,6.00,5.74,3.17,0.97,0.97,4.89
21.02,-4.96,-9.88,-4.96,-9.88,6.00,5.77,3.26,1.04,1.04,4.92
21.23,-4.89,-9.83,-4.89,-9.83,6.00,5.80,3.35,1.11,1.11,4.94
21.44,-4.81,-9.78,-4.81,-9.78,6.00,5.83,3.45,1.19,1.19,4.96
21.66,-4.74,-9.72,-4.74,-9.72,6.00,5.86,3.54,1.26,1.26,4.98
21.87,-4.66,-9.66,-4.67,-9.66,6.00,5.88,3.64,1.34,1.33,4.99
22.09,-4.59,-9.61,-4.59,-9.60,6.00,5.91,3.75,1.41,1.41,5.01
22.31,-4.52,-9.55,-4.52,-9.54,6.00,5.94,3.85,1.48,1.48,5.02
22.54,-4.45,-9.47,-4.45,-9.47,6.00,5.96,3.96,1.55,1.55,5.02
22.76,-4.37,-9.41,-4.37,-9.40,6.00,5.99,4.07,1.63,1.63,5.03
22.99,-4.30,-9.33,-4.30,-9.33,6.00,6.01,4.18,1.70,1.70,5.03
23.22,-4.23,-9.27,-4.22,-9.26,6.00,6.03,4.29,1.77,1.78,5.04
23.45,-4.14,-9.20,-4.15,-9.20,6.00,6.05,4.41,1.86,1.85,5.05
23.69,-4.08,-9.14,-4.07,-9.14,6.00,6.07,4.53,1.92,1.93,5.06
23.92,-3.99,-9.08,-4.00,-9.08,6.00,6.09,4.65,2.01,2.00,5.08
24.16,-3.92,-9.03,-3.92,-9.02,6.00,6.11,4.78,2.08,2.08,5.10
24.40,-3.85,-8.96,-3.85,-8.96,6.00,6.13,4.90,2.15,2.15,5.11
24.65,-3.78,-8.89,-3.78,-8.90,6.00,6.15,5.03,2.22,2.22,5.11
24.89,-3.70,-8.83,-3.71,-8.83,6.00,6.16,5.16,2.30,2.29,5.13
25.14,-3.63,-8.77,-3.63,-8.77,6.00,6.17,5.29,2.37,2.37,5.14
25.39,-3.55,-8.70,-3.56,-8.70,6.00,6.19,5.42,2.45,2.44,5.15
25.65,-3.48,-8.63,-3.48,-8.64,6.00,6.20,5.56,2.52,2.52,5.16
25.91,-3.41,-8.57,-3.40,-8.57,6.00,6.21,5.69,2.59,2.60,5.17
26.16,-3.32,-8.50,-3.33,-8.51,6.00,6.22,5.82,2.68,2.67,5.18
26.43,-3.26,-8.44,-3.26,-8.44,6.00,6.23,5.95,2.74,2.74,5.19
26.69,-3.19,-8.39,-3.18,-8.38,6.00,6.23,6.08,2.81,2.82,5.21
26.96,-3.11,-8.32,-3.11,-8.32,6.00,6.24,6.21,2.89,2.89,5.21
27.23,-3.04,-8.26,-3.03,-8.26,6.00,6.24,6.34,2.96,2.97,5.22
27.50,-2.96,-8.20,-2.96,-8.20,6.00,6.25,6.46,3.04,3.04,5.24
27.77,-2.88,-8.13,-2.88,-8.13,6.00,6.25,6.58,3.12,3.12,5.24
28.05,-2.81,-8.08,-2.81,-8.07,6.00,6.25,6.69,3.19,3.19,5.26
28.33,-2.73,-8.00,-2.74,-8.01,6.00,6.25,6.80,3.27,3.26,5.26
28.62,-2.67,-7.95,-2.67,-7.94,6.00,6.25,6.90,3.33,3.33,5.28
28.90,-2.59,-7.88,-2.59,-7.88,6.00,6.24,6.99,3.41,3.41,5.29
29.19,-2.52,-7.81,-2.52,-7.82,6.00,6.24,7.08,3.48,3.48,5.30
29.48,-2.44,-7.76,-2.45,-7.76,6.00,6.23,7.15,3.56,3.55,5.32
29.78,-2.38,-7.70,-2.37,-7.70,6.00,6.23,7.22,3.62,3.63,5.33
30.08,-2.31,-7.64,-2.31,-7.64,6.00,6.22,7.28,3.69,3.69,5.33
30.38,-2.24,-7.58,-2.24,-7.58,6.00,6.21,7.32,3.76,3.76,5.34
30.68,-2.17,-7.52,-2.17,-7.52,6.00,6.20,7.36,3.83,3.83,5.35
30.99,-2.10,-7.46,-2.10,-7.46,6.00,6.19,7.38,3.90,3.90,5.36
31.30,-2.04,-7.41,-2.03,-7.41,6.00,6.18,7.39,3.96,3.97,5.37
31.61,-1.97,-7.35,-1.97,-7.35,6.00,6.16,7.39,4.03,4.03,5.39
31.93,-1.91,-7.29,-1.90,-7.29,6.00,6.15,7.38,4.09,4.10,5.39
32.24,-1.83,-7.23,-1.83,-7.23,6.00,6.13,7.36,4.17,4.17,5.40
32.57,-1.77,-7.17,-1.77,-7.17,6.00,6.12,7.32,4.23,4.23,5.41
32.89,-1.69,-7.12,-1.70,-7.12,6.00,6.10,7.28,4.31,4.30,5.42
33.22,-1.64,-7.06,-1.63,-7.06,6.00,6.08,7.23,4.36,4.37,5.42
33.55,-1.57,-7.02,-1.58,-7.01,6.00,6.06,7.17,4.43,4.42,5.44
33.89,-1.52,-6.95,-1.51,-6.96,6.00,6.04,7.10,4.48,4.49,5.44
34.23,-1.46,-6.91,-1.45,-6.91,6.00,6.02,7.02,4.54,4.55,5.46
34.57,-1.39,-6.84,-1.39,-6.85,6.00,5.99,6.94,4.61,4.61,5.46
34.92,-1.33,-6.79,-1.32,-6.79,6.00,5.97,6.85,4.67,4.68,5.46
35.27,-1.26,-6.73,-1.25,-6.72,6.00,5.95,6.75,4.74,4.75,5.47
35.62,-1.19,-6.66,-1.19,-6.66,6.00,5.92,6.66,4.81,4.81,5.47
35.97,-1.11,-6.58,-1.12,-6.59,6.00,5.89,6.56,4.89,4.88,5.47
36.33,-1.05,-6.54,-1.05,-6.53,6.00,5.87,6.45,4.95,4.95,5.49
36.70,-0.99,-6.47,-0.99,-6.47,6.00,5.84,6.35,5.01,5.01,5.48
37.06,-0.92,-6.40,-0.92,-6.40,6.00,5.81,6.25,5.08,5.08,5.47
37.43,-0.86,-6.34,-0.86,-6.34,6.01,5.78,6.14,5.14,5.15,5.48
37.81,-0.80,-6.27,-0.80,-6.27,6.01,5.75,6.04,5.22,5.21,5.48
38.19,-0.74,-6.21,-0.74,-6.21,6.01,5.71,5.93,5.27,5.27,5.47
38.57,-0.68,-6.16,-0.67,-6.15,6.00,5.68,5.83,5.33,5.33,5.48
38.95,-0.61,-6.08,-0.62,-6.08,5.99,5.65,5.73,5.37,5.37,5.47
39.34,-0.55,-6.02,-0.56,-6.02,5.97,5.61,5.63,5.41,5.41,5.46
39.74,-0.51,-5.96,-0.50,-5.96,5.93,5.58,5.53,5.43,5.43,5.45
40.14,-0.45,-5.90,-0.45,-5.90,5.89,5.54,5.44,5.45,5.45,5.46
40.54,-0.39,-5.83,-0.39,-5.84,5.84,5.51,5.35,5.46,5.45,5.44
40.94,-0.34,-5.79,-0.33,-5.78,5.79,5.47,5.26,5.45,5.46,5.45
41.35,-0.28,-5.72,-0.27,-5.72,5.73,5.43,5.17,5.46,5.46,5.45
41.76,-0.20,-5.65,-0.21,-5.66,5.67,5.40,5.09,5.46,5.46,5.44
42.18,-0.15,-5.61,-0.15,-5.60,5.61,5.36,5.01,5.45,5.45,5.45
42.60,-0.09,-5.54,-0.10,-5.54,5.55,5.32,4.94,5.45,5.45,5.45
43.03,-0.05,-5.50,-0.04,-5.49,5.49,5.28,4.87,5.44,5.44,5.45
43.46,0.01,-5.43,0.01,-5.44,5.43,5.24,4.80,5.44,5.44,5.45
43.90,0.06,-5.38,0.07,-5.38,5.37,5.20,4.73,5.43,5.44,5.44
44.33,0.13,-5.31,0.13,-5.31,5.31,5.16,4.67,5.44,5.44,5.44
44.78,0.18,-5.25,0.18,-5.25,5.26,5.12,4.62,5.44,5.44,5.43
45.23,0.24,-5.19,0.24,-5.19,5.20,5.07,4.56,5.44,5.44,5.44
45.68,0.29,-5.14,0.30,-5.14,5.14,5.03,4.51,5.44,5.44,5.43
46.13,0.36,-5.08,0.35,-5.09,5.09,4.99,4.46,5.45,5.44,5.44
46.60,0.40,-5.05,0.41,-5.04,5.04,4.95,4.42,5.44,5.45,5.45
47.06,0.46,-4.98,0.46,-4.99,4.99,4.90,4.38,5.45,5.45,5.45
47.53,0.51,-4.94,0.51,-4.94,4.94,4.86,4.34,5.45,5.45,5.45
48.01,0.56,-4.90,0.57,-4.89,4.88,4.82,4.31,5.45,5.45,5.46
48.49,0.61,-4.84,0.61,-4.84,4.83,4.77,4.28,5.45,5.45,5.46
48.97,0.66,-4.78,0.66,-4.78,4.78,4.73,4.25,5.45,5.44,5.44
49.46,0.70,-4.73,0.71,-4.72,4.73,4.69,4.22,5.43,5.44,5.43
49.96,0.75,-4.66,0.75,-4.67,4.68,4.64,4.20,5.43,5.43,5.42
50.46,0.79,-4.63,0.80,-4.62,4.63,4.60,4.18,5.42,5.42,5.43
50.96,0.84,-4.58,0.84,-4.57,4.57,4.55,4.16,5.42,5.41,5.42
51.47,0.88,-4.52,0.89,-4.52,4.52,4.51,4.14,5.41,5.41,5.40
51.99,0.93,-4.47,0.93,-4.47,4.47,4.46,4.13,5.40,5.40,5.40
52.51,0.98,-4.42,0.98,-4.42,4.42,4.42,4.12,5.40,5.40,5.40
53.03,1.02,-4.37,1.03,-4.37,4.36,4.37,4.10,5.39,5.39,5.40
53.56,1.07,-4.31,1.07,-4.31,4.31,4.33,4.09,5.38,5.38,5.39
54.10,1.11,-4.25,1.11,-4.26,4.25,4.28,4.08,5.37,5.37,5.37
54.64,1.15,-4.20,1.16,-4.20,4.20,4.24,4.07,5.35,5.35,5.36
55.18,1.19,-4.15,1.20,-4.14,4.14,4.19,4.06,5.34,5.34,5.35
55.74,1.24,-4.08,1.24,-4.09,4.09,4.15,4.05,5.33,5.33,5.33
56.29,1.28,-4.04,1.28,-4.03,4.04,4.10,4.04,5.32,5.32,5.32
56.86,1.31,-3.99,1.32,-3.98,3.99,4.06,4.03,5.31,5.31,5.30
57.42,1.34,-3.94,1.34,-3.94,3.95,4.01,4.02,5.30,5.29,5.28
58.00,1.36,-3.90,1.37,-3.90,3.91,3.97,4.01,5.27,5.28,5.27
58.58,1.38,-3.87,1.39,-3.87,3.87,3.92,3.99,5.26,5.26,5.26
59.16,1.40,-3.84,1.40,-3.84,3.83,3.88,3.97,5.24,5.24,5.24
59.76,1.42,-3.80,1.42,-3.80,3.79,3.83,3.96,5.22,5.21,5.23
60.35,1.43,-3.77,1.44,-3.76,3.75,3.79,3.93,5.19,5.19,5.20
60.96,1.46,-3.72,1.46,-3.71,3.71,3.74,3.91,5.17,5.17,5.18
61.57,1.48,-3.66,1.49,-3.66,3.67,3.70,3.88,5.15,5.15,5.14
62.18,1.51,-3.60,1.51,-3.61,3.62,3.65,3.86,5.13,5.13,5.12
62.80,1.52,-3.57,1.53,-3.57,3.57,3.61,3.82,5.09,5.10,5.09
63.43,1.54,-3.52,1.55,-3.52,3.52,3.57,3.79,5.06,5.07,5.07
64.07,1.56,-3.48,1.57,-3.47,3.47,3.52,3.75,5.03,5.04,5.04
64.71,1.60,-3.42,1.60,-3.42,3.42,3.48,3.71,5.02,5.02,5.02
65.35,1.62,-3.37,1.63,-3.37,3.37,3.43,3.67,4.99,5.00,4.99
66.01,1.65,-3.32,1.65,-3.32,3.32,3.39,3.63,4.98,4.97,4.98
66.67,1.67,-3.27,1.68,-3.27,3.28,3.35,3.58,4.95,4.95,4.95
67.33,1.69,-3.22,1.70,-3.22,3.23,3.31,3.53,4.93,4.93,4.92
68.01,1.71,-3.18,1.71,-3.18,3.19,3.26,3.48,4.91,4.90,4.90
68.69,1.72,-3.14,1.72,-3.14,3.15,3.22,3.42,4.87,4.87,4.87
69.37,1.73,-3.11,1.73,-3.11,3.11,3.18,3.37,4.84,4.84,4.85
70.07,1.74,-3.08,1.75,-3.08,3.07,3.14,3.31,4.81,4.81,4.82
70.77,1.76,-3.04,1.77,-3.03,3.02,3.09,3.26,4.79,4.79,4.80
71.48,1.79,-2.98,1.79,-2.98,2.97,3.05,3.20,4.77,4.77,4.78
72.19,1.82,-2.93,1.82,-2.93,2.93,3.01,3.14,4.75,4.75,4.75
72.91,1.85,-2.88,1.86,-2.87,2.88,2.97,3.08,4.73,4.73,4.73
73.64,1.88,-2.82,1.89,-2.82,2.83,2.93,3.02,4.71,4.71,4.71
74.38,1.92,-2.77,1.92,-2.77,2.78,2.89,2.96,4.70,4.70,4.69
75.12,1.94,-2.73,1.95,-2.73,2.74,2.85,2.90,4.68,4.68,4.67
75.87,1.97,-2.69,1.97,-2.69,2.70,2.81,2.84,4.67,4.67,4.67
76.63,1.99,-2.66,1.99,-2.66,2.66,2.77,2.78,4.66,4.66,4.65
77.40,2.01,-2.63,2.01,-2.63,2.63,2.73,2.72,4.65,4.65,4.64
78.17,2.02,-2.60,2.03,-2.60,2.60,2.69,2.66,4.63,4.63,4.62
78.95,2.04,-2.58,2.04,-2.58,2.57,2.65,2.61,4.62,4.62,4.63
79.74,2.05,-2.56,2.06,-2.56,2.54,2.61,2.55,4.60,4.60,4.62
80.54,2.08,-2.52,2.08,-2.52,2.51,2.58,2.50,4.59,4.59,4.61
81.35,2.11,-2.48,2.12,-2.48,2.47,2.54,2.44,4.59,4.59,4.59
82.16,2.15,-2.43,2.15,-2.43,2.43,2.50,2.39,4.58,4.58,4.58
82.98,2.19,-2.39,2.19,-2.38,2.39,2.46,2.34,4.58,4.58,4.58
83.81,2.22,-2.33,2.23,-2.34,2.34,2.43,2.29,4.57,4.57,4.56
84.65,2.26,-2.29,2.27,-2.29,2.30,2.39,2.25,4.56,4.56,4.56
85.50,2.30,-2.25,2.30,-2.25,2.26,2.35,2.20,4.56,4.56,4.55
86.35,2.33,-2.20,2.33,-2.21,2.22,2.32,2.15,4.55,4.55,4.54
87.22,2.35,-2.18,2.36,-2.18,2.18,2.28,2.11,4.53,4.53,4.53
88.09,2.37,-2.15,2.38,-2.15,2.14,2.25,2.07,4.51,4.52,4.52
88.97,2.40,-2.12,2.40,-2.11,2.11,2.21,2.03,4.51,4.51,4.52
89.86,2.43,-2.07,2.43,-2.08,2.07,2.18,1.99,4.51,4.50,4.51
90.76,2.45,-2.04,2.46,-2.04,2.04,2.14,1.95,4.50,4.50,4.49
91.66,2.48,-2.01,2.48,-2.01,2.01,2.11,1.92,4.50,4.49,4.50
92.58,2.50,-1.97,2.50,-1.98,1.98,2.07,1.88,4.49,4.49,4.48
93.51,2.52,-1.96,2.52,-1.96,1.96,2.04,1.85,4.48,4.48,4.48
94.44,2.53,-1.94,2.54,-1.94,1.94,2.01,1.82,4.47,4.48,4.47
95.39,2.54,-1.92,2.54,-1.92,1.92,1.98,1.79,4.47,4.47,4.47
96.34,2.54,-1.89,2.54,-1.90,1.91,1.94,1.76,4.45,4.45,4.44
97.30,2.53,-1.90,2.54,-1.89,1.90,1.91,1.73,4.43,4.43,4.43
98.28,2.52,-1.90,2.53,-1.89,1.89,1.88,1.71,4.41,4.41,4.42
99.26,2.51,-1.89,2.52,-1.89,1.88,1.85,1.68,4.39,4.40,4.40
100.25,2.51,-1.88,2.51,-1.88,1.87,1.82,1.66,4.38,4.38,4.39
101.25,2.51,-1.86,2.51,-1.86,1.86,1.78,1.63,4.37,4.37,4.37
102.27,2.51,-1.84,2.51,-1.84,1.84,1.75,1.61,4.35,4.35,4.35
103.29,2.51,-1.81,2.51,-1.82,1.82,1.72,1.59,4.34,4.34,4.33
104.32,2.51,-1.80,2.51,-1.80,1.80,1.69,1.57,4.31,4.31,4.32
105.37,2.51,-1.77,2.51,-1.78,1.77,1.66,1.55,4.29,4.29,4.29
106.42,2.51,-1.75,2.51,-1.75,1.75,1.63,1.53,4.26,4.26,4.27
107.48,2.51,-1.72,2.51,-1.72,1.72,1.60,1.51,4.23,4.23,4.24
108.56,2.51,-1.68,2.51,-1.69,1.69,1.57,1.49,4.20,4.20,4.20
109.64,2.51,-1.65,2.51,-1.65,1.65,1.54,1.48,4.17,4.17,4.17
110.74,2.51,-1.62,2.51,-1.62,1.62,1.52,1.46,4.13,4.13,4.13
111.85,2.51,-1.59,2.51,-1.58,1.58,1.49,1.44,4.09,4.09,4.10
112.97,2.51,-1.54,2.51,-1.54,1.54,1.46,1.42,4.05,4.05,4.05
114.10,2.51,-1.50,2.51,-1.50,1.50,1.43,1.41,4.01,4.01,4.01
115.24,2.51,-1.46,2.51,-1.46,1.46,1.40,1.39,3.97,3.97,3.98
116.39,2.51,-1.41,2.51,-1.42,1.41,1.38,1.37,3.93,3.93,3.93
117.55,2.51,-1.38,2.51,-1.37,1.37,1.35,1.35,3.89,3.89,3.89
118.73,2.51,-1.33,2.51,-1.33,1.33,1.32,1.34,3.85,3.85,3.84
119.92,2.51,-1.29,2.51,-1.29,1.30,1.29,1.32,3.81,3.81,3.81
121.12,2.51,-1.25,2.51,-1.25,1.26,1.27,1.30,3.77,3.77,3.77
122.33,2.51,-1.22,2.51,-1.22,1.22,1.24,1.28,3.74,3.74,3.73
123.55,2.51,-1.19,2.51,-1.19,1.19,1.21,1.26,3.70,3.70,3.71
124.79,2.51,-1.16,2.51,-1.16,1.15,1.19,1.24,3.67,3.67,3.67
126.03,2.51,-1.12,2.51,-1.12,1.12,1.16,1.21,3.63,3.63,3.64
127.29,2.51,-1.09,2.51,-1.08,1.08,1.14,1.19,3.60,3.60,3.60
128.57,2.51,-1.04,2.51,-1.05,1.05,1.11,1.17,3.57,3.57,3.56
129.85,2.51,-1.02,2.51,-1.02,1.02,1.09,1.14,3.54,3.54,3.53
131.15,2.51,-0.99,2.51,-0.99,0.99,1.06,1.12,3.51,3.51,3.50
132.46,2.51,-0.96,2.51,-0.96,0.96,1.03,1.09,3.48,3.48,3.48
133.79,2.51,-0.94,2.51,-0.94,0.94,1.01,1.07,3.45,3.45,3.46
135.12,2.51,-0.91,2.51,-0.92,0.91,0.98,1.04,3.43,3.43,3.43
136.48,2.51,-0.89,2.51,-0.89,0.89,0.96,1.01,3.40,3.40,3.40
137.84,2.51,-0.87,2.51,-0.86,0.86,0.93,0.98,3.38,3.38,3.38
139.22,2.51,-0.83,2.51,-0.84,0.84,0.91,0.96,3.36,3.36,3.34
140.61,2.51,-0.81,2.51,-0.82,0.82,0.88,0.93,3.33,3.33,3.33
142.02,2.51,-0.80,2.51,-0.79,0.80,0.86,0.90,3.31,3.31,3.32
143.44,2.51,-0.77,2.51,-0.77,0.77,0.83,0.87,3.29,3.28,3.29
144.87,2.51,-0.75,2.52,-0.75,0.74,0.81,0.84,3.26,3.26,3.26
146.32,2.51,-0.72,2.52,-0.72,0.72,0.78,0.81,3.23,3.23,3.23
147.78,2.52,-0.69,2.52,-0.69,0.69,0.76,0.78,3.21,3.21,3.22
149.26,2.52,-0.67,2.53,-0.66,0.66,0.73,0.75,3.18,3.18,3.19
150.75,2.53,-0.62,2.53,-0.63,0.63,0.71,0.72,3.16,3.16,3.16
152.26,2.53,-0.59,2.54,-0.59,0.60,0.68,0.69,3.13,3.13,3.12
153.78,2.53,-0.56,2.54,-0.56,0.57,0.66,0.65,3.10,3.10,3.10
155.32,2.53,-0.53,2.53,-0.54,0.54,0.63,0.62,3.08,3.07,3.07
156.88,2.51,-0.53,2.52,-0.52,0.52,0.60,0.59,3.04,3.04,3.04
158.44,2.50,-0.51,2.50,-0.51,0.51,0.58,0.56,3.01,3.01,3.01
160.03,2.47,-0.50,2.48,-0.49,0.50,0.55,0.53,2.97,2.98,2.97
161.63,2.45,-0.48,2.45,-0.49,0.49,0.52,0.50,2.95,2.94,2.94
163.24,2.42,-0.47,2.42,-0.49,0.49,0.50,0.47,2.92,2.91,2.90
164.88,2.37,-0.50,2.39,-0.49,0.49,0.47,0.44,2.87,2.88,2.88
166.53,2.35,-0.49,2.35,-0.49,0.49,0.44,0.41,2.84,2.84,2.84
168.19,2.32,-0.49,2.32,-0.50,0.49,0.41,0.38,2.81,2.80,2.81
169.87,2.27,-0.50,2.29,-0.49,0.49,0.38,0.35,2.76,2.77,2.77
171.57,2.25,-0.48,2.25,-0.48,0.48,0.36,0.32,2.73,2.73,2.74
173.29,2.23,-0.45,2.23,-0.47,0.46,0.33,0.29,2.70,2.69,2.69
175.02,2.20,-0.45,2.21,-0.44,0.44,0.30,0.26,2.64,2.65,2.65
176.77,2.18,-0.42,2.19,-0.41,0.41,0.27,0.23,2.59,2.60,2.61
178.54,2.17,-0.38,2.18,-0.38,0.37,0.23,0.20,2.54,2.54,2.55
180.32,2.17,-0.33,2.17,-0.33,0.33,0.20,0.17,2.50,2.50,2.51
182.13,2.17,-0.29,2.18,-0.28,0.28,0.17,0.14,2.45,2.46,2.46
183.95,2.18,-0.22,2.18,-0.22,0.23,0.14,0.11,2.41,2.41,2.41
185.79,2.19,-0.17,2.19,-0.17,0.18,0.11,0.08,2.37,2.37,2.36
187.65,2.19,-0.11,2.20,-0.12,0.13,0.07,0.05,2.32,2.32,2.31
189.52,2.19,-0.07,2.20,-0.07,0.08,0.04,0.02,2.27,2.27,2.27
191.42,2.19,-0.03,2.19,-0.03,0.03,0.00,-0.01,2.22,2.22,2.22
193.33,2.19,0.01,2.19,0.01,-0.02,-0.03,-0.04,2.18,2.18,2.18
195.27,2.19,0.05,2.19,0.06,-0.06,-0.07,-0.07,2.13,2.13,2.14
197.22,2.19,0.11,2.19,0.11,-0.11,-0.10,-0.09,2.09,2.09,2.09
199.19,2.19,0.16,2.19,0.15,-0.15,-0.14,-0.12,2.05,2.05,2.04
201.18,2.19,0.20,2.19,0.20,-0.19,-0.18,-0.15,2.01,2.01,2.00
203.19,2.19,0.23,2.19,0.23,-0.23,-0.21,-0.18,1.96,1.96,1.97
205.23,2.19,0.27,2.19,0.26,-0.27,-0.25,-0.21,1.92,1.92,1.93
207.28,2.19,0.30,2.19,0.30,-0.31,-0.29,-0.23,1.88,1.88,1.90
209.35,2.19,0.35,2.19,0.35,-0.35,-0.32,-0.26,1.85,1.85,1.85
211.44,2.19,0.40,2.19,0.39,-0.39,-0.36,-0.28,1.81,1.81,1.80
213.56,2.19,0.42,2.19,0.42,-0.42,-0.39,-0.31,1.77,1.77,1.77
215.69,2.19,0.45,2.19,0.46,-0.46,-0.43,-0.33,1.74,1.74,1.74
217.85,2.19,0.49,2.19,0.49,-0.49,-0.46,-0.36,1.70,1.70,1.70
220.03,2.19,0.53,2.19,0.52,-0.52,-0.49,-0.38,1.67,1.67,1.67
222.23,2.19,0.56,2.19,0.55,-0.55,-0.52,-0.40,1.65,1.65,1.64
224.45,2.19,0.57,2.19,0.58,-0.57,-0.55,-0.42,1.62,1.62,1.62
226.70,2.19,0.59,2.19,0.59,-0.59,-0.57,-0.44,1.60,1.60,1.61
228.96,2.19,0.62,2.19,0.61,-0.61,-0.60,-0.46,1.58,1.58,1.58
231.25,2.19,0.62,2.19,0.62,-0.63,-0.62,-0.48,1.57,1.57,1.57
233.57,2.19,0.64,2.19,0.64,-0.64,-0.63,-0.49,1.56,1.56,1.56
235.90,2.19,0.64,2.19,0.65,-0.65,-0.65,-0.51,1.55,1.55,1.55
238.26,2.19,0.66,2.19,0.65,-0.65,-0.66,-0.52,1.54,1.54,1.53
240.64,2.19,0.66,2.19,0.66,-0.66,-0.67,-0.53,1.54,1.54,1.54
243.05,2.19,0.65,2.19,0.66,-0.66,-0.67,-0.54,1.54,1.54,1.54
245.48,2.19,0.66,2.19,0.66,-0.65,-0.68,-0.55,1.54,1.54,1.54
247.93,2.19,0.65,2.19,0.65,-0.65,-0.67,-0.55,1.55,1.55,1.54
250.41,2.19,0.66,2.19,0.65,-0.64,-0.67,-0.56,1.55,1.55,1.54
252.92,2.19,0.63,2.19,0.63,-0.63,-0.66,-0.56,1.56,1.56,1.56
255.45,2.19,0.61,2.19,0.62,-0.62,-0.65,-0.56,1.57,1.57,1.58
258.00,2.19,0.61,2.19,0.61,-0.61,-0.64,-0.56,1.58,1.58,1.59
260.58,2.19,0.60,2.19,0.60,-0.60,-0.62,-0.56,1.59,1.59,1.59
263.19,2.19,0.59,2.19,0.59,-0.59,-0.60,-0.55,1.60,1.60,1.61
265.82,2.19,0.58,2.20,0.58,-0.58,-0.58,-0.55,1.61,1.62,1.61
268.48,2.20,0.56,2.20,0.57,-0.57,-0.56,-0.54,1.63,1.63,1.64
271.16,2.21,0.56,2.21,0.56,-0.56,-0.54,-0.53,1.65,1.65,1.66
273.87,2.21,0.55,2.22,0.55,-0.55,-0.52,-0.52,1.67,1.67,1.66
276.61,2.21,0.53,2.21,0.54,-0.53,-0.49,-0.51,1.68,1.68,1.68
279.38,2.20,0.52,2.21,0.52,-0.51,-0.47,-0.50,1.70,1.70,1.69
282.17,2.19,0.49,2.19,0.49,-0.48,-0.44,-0.48,1.72,1.71,1.70
284.99,2.17,0.45,2.17,0.45,-0.45,-0.42,-0.47,1.73,1.72,1.72
287.84,2.13,0.41,2.14,0.41,-0.41,-0.39,-0.45,1.72,1.73,1.73
290.72,2.10,0.36,2.11,0.36,-0.37,-0.37,-0.44,1.74,1.74,1.75
293.63,2.07,0.32,2.07,0.32,-0.32,-0.34,-0.42,1.75,1.75,1.75
296.57,2.04,0.27,2.04,0.28,-0.28,-0.32,-0.40,1.77,1.77,1.77
299.53,2.01,0.24,2.01,0.23,-0.23,-0.29,-0.39,1.78,1.78,1.78
302.53,1.97,0.19,1.98,0.19,-0.18,-0.27,-0.37,1.79,1.79,1.79
305.55,1.94,0.14,1.94,0.14,-0.14,-0.24,-0.35,1.80,1.80,1.80
308.61,1.91,0.10,1.91,0.10,-0.10,-0.22,-0.33,1.82,1.81,1.81
311.69,1.88,0.06,1.89,0.06,-0.06,-0.20,-0.31,1.82,1.83,1.83
314.81,1.87,0.03,1.87,0.03,-0.03,-0.18,-0.29,1.84,1.84,1.85
317.96,1.85,-0.00,1.85,-0.00,-0.01,-0.16,-0.27,1.84,1.84,1.86
321.14,1.84,-0.02,1.85,-0.02,0.01,-0.14,-0.25,1.85,1.86,1.86
324.35,1.84,-0.03,1.85,-0.03,0.02,-0.12,-0.23,1.86,1.87,1.87
327.59,1.85,-0.03,1.85,-0.03,0.03,-0.10,-0.21,1.88,1.88,1.88
330.87,1.86,-0.02,1.86,-0.02,0.03,-0.08,-0.19,1.90,1.90,1.89
334.18,1.87,-0.02,1.87,-0.02,0.03,-0.07,-0.17,1.91,1.90,1.90
337.52,1.87,-0.02,1.88,-0.03,0.03,-0.05,-0.15,1.91,1.91,1.90
340.90,1.87,-0.04,1.88,-0.03,0.04,-0.04,-0.14,1.91,1.91,1.91
344.30,1.87,-0.04,1.87,-0.04,0.04,-0.02,-0.12,1.91,1.91,1.91
347.75,1.87,-0.05,1.87,-0.04,0.04,-0.01,-0.10,1.92,1.92,1.92
351.23,1.87,-0.05,1.87,-0.05,0.04,-0.00,-0.08,1.92,1.92,1.92
354.74,1.87,-0.04,1.87,-0.05,0.05,0.01,-0.06,1.92,1.92,1.92
358.28,1.87,-0.05,1.87,-0.05,0.05,0.02,-0.04,1.92,1.92,1.93
361.87,1.87,-0.05,1.87,-0.05,0.05,0.03,-0.02,1.92,1.92,1.93
365.49,1.87,-0.05,1.87,-0.05,0.05,0.03,-0.00,1.92,1.92,1.93
369.14,1.87,-0.04,1.87,-0.04,0.05,0.04,0.02,1.92,1.92,1.91
372.83,1.87,-0.04,1.87,-0.04,0.04,0.04,0.04,1.92,1.92,1.91
376.56,1.87,-0.04,1.87,-0.04,0.04,0.05,0.05,1.92,1.92,1.91
380.33,1.87,-0.05,1.87,-0.04,0.03,0.05,0.07,1.91,1.91,1.92
384.13,1.87,-0.04,1.87,-0.04,0.03,0.05,0.09,1.90,1.90,1.91
387.97,1.87,-0.04,1.88,-0.03,0.02,0.05,0.11,1.90,1.90,1.91
391.85,1.88,-0.01,1.89,-0.02,0.02,0.05,0.13,1.90,1.90,1.90
395.77,1.89,-0.01,1.89,-0.01,0.02,0.06,0.14,1.91,1.91,1.91
399.73,1.89,-0.00,1.89,-0.01,0.02,0.07,0.16,1.91,1.91,1.90
403.72,1.88,-0.01,1.89,-0.01,0.02,0.08,0.18,1.91,1.91,1.90
407.76,1.87,-0.02,1.87,-0.02,0.03,0.09,0.20,1.91,1.91,1.90
411.84,1.85,-0.05,1.86,-0.05,0.05,0.11,0.22,1.90,1.90,1.91
415.96,1.83,-0.07,1.83,-0.07,0.07,0.13,0.23,1.90,1.90,1.90
420.12,1.80,-0.10,1.80,-0.10,0.10,0.15,0.25,1.90,1.90,1.90
424.32,1.77,-0.13,1.77,-0.13,0.13,0.17,0.27,1.90,1.90,1.90
428.56,1.73,-0.16,1.74,-0.16,0.16,0.19,0.28,1.89,1.90,1.89
432.85,1.70,-0.19,1.70,-0.19,0.19,0.22,0.30,1.90,1.90,1.89
437.18,1.67,-0.22,1.67,-0.22,0.23,0.24,0.32,1.90,1.90,1.89
441.55,1.63,-0.27,1.64,-0.26,0.26,0.26,0.33,1.90,1.90,1.90
445.96,1.60,-0.30,1.60,-0.29,0.29,0.28,0.35,1.90,1.90,1.90
450.42,1.57,-0.32,1.58,-0.32,0.32,0.30,0.37,1.89,1.89,1.89
454.93,1.55,-0.35,1.55,-0.34,0.34,0.32,0.38,1.89,1.89,1.90
459.48,1.53,-0.37,1.54,-0.36,0.35,0.33,0.40,1.89,1.89,1.90
464.07,1.52,-0.37,1.53,-0.38,0.36,0.35,0.41,1.89,1.89,1.90
468.71,1.52,-0.38,1.53,-0.38,0.37,0.37,0.43,1.89,1.89,1.91
473.40,1.53,-0.36,1.54,-0.37,0.36,0.38,0.44,1.90,1.90,1.90
478.13,1.55,-0.35,1.55,-0.35,0.36,0.40,0.46,1.91,1.91,1.91
482.91,1.56,-0.34,1.56,-0.35,0.35,0.41,0.47,1.92,1.92,1.91
487.74,1.56,-0.34,1.57,-0.34,0.35,0.43,0.48,1.92,1.92,1.91
492.62,1.56,-0.35,1.56,-0.35,0.35,0.44,0.50,1.92,1.92,1.92
497.55,1.55,-0.35,1.56,-0.36,0.36,0.45,0.51,1.92,1.92,1.91
502.52,1.54,-0.37,1.54,-0.37,0.38,0.47,0.52,1.92,1.92,1.92
507.55,1.51,-0.39,1.52,-0.39,0.40,0.48,0.54,1.91,1.91,1.91
512.62,1.48,-0.42,1.49,-0.42,0.43,0.50,0.55,1.91,1.91,1.91
517.75,1.45,-0.46,1.45,-0.46,0.46,0.51,0.56,1.91,1.91,1.92
522.93,1.42,-0.49,1.42,-0.49,0.49,0.52,0.57,1.91,1.91,1.92
528.16,1.38,-0.52,1.39,-0.52,0.52,0.53,0.59,1.90,1.91,1.91
533.44,1.35,-0.55,1.35,-0.55,0.55,0.55,0.60,1.90,1.90,1.91
538.77,1.32,-0.58,1.32,-0.58,0.57,0.56,0.61,1.90,1.90,1.90
544.16,1.29,-0.61,1.30,-0.60,0.60,0.57,0.62,1.89,1.89,1.90
549.60,1.27,-0.62,1.27,-0.62,0.62,0.59,0.63,1.89,1.89,1.89
555.10,1.25,-0.63,1.25,-0.63,0.64,0.60,0.65,1.89,1.89,1.88
