frequency,raw,error,smoothed,error_smoothed,equalization,parametric_eq,fixed_band_eq,equalized_raw,equalized_smoothed,target
20.00,-5.32,-9.11,-5.32,-9.11,6.00,7.37,2.12,0.68,0.68,3.79
20.20,-5.22,-9.00,-5.23,-9.01,6.00,7.29,2.19,0.78,0.77,3.78
20.40,-5.13,-8.91,-5.13,-8.90,6.00,7.21,2.25,0.87,0.87,3.78
20.61,-5.03,-8.80,-5.03,-8.80,6.00,7.13,2.32,0.97,0.97,3.77
20.81,-4.93,-8.70,-4.93,-8.70,6.00,7.05,2.39,1.07,1.07,3.77
21.02,-4.84,-8.61,-4.84,-8.60,6.00,6.97,2.46,1.16,1.16,3.77
21.23,-4.74,-8.49,-4.75,-8.49,6.00,6.89,2.53,1.26,1.25,3.75
21.44,-4.66,-8.39,-4.66,-8.39,6.00,6.81,2.61,1.34,1.34,3.72
21.66,-4.57,-8.28,-4.57,-8.27,6.00,6.73,2.69,1.43,1.43,3.70
21.87,-4.49,-8.16,-4.49,-8.17,6.00,6.65,2.77,1.51,1.51,3.67
22.09,-4.40,-8.05,-4.40,-8.06,6.00,6.57,2.85,1.60,1.60,3.65
22.31,-4.31,-7.94,-4.31,-7.94,6.00,6.49,2.94,1.69,1.69,3.63
22.54,-4.22,-7.83,-4.22,-7.82,6.00,6.41,3.02,1.78,1.78,3.60
22.76,-4.12,-7.69,-4.13,-7.70,6.00,6.33,3.11,1.88,1.87,3.57
22.99,-4.03,-7.57,-4.03,-7.57,6.00,6.25,3.20,1.97,1.97,3.54
23.22,-3.93,-7.44,-3.93,-7.45,6.00,6.17,3.30,2.07,2.07,3.51
23.45,-3.83,-7.32,-3.83,-7.32,6.00,6.09,3.39,2.17,2.17,3.49
23.69,-3.73,-7.20,-3.73,-7.20,6.00,6.02,3.49,2.27,2.27,3.47
23.92,-3.63,-7.08,-3.64,-7.09,6.00,5.94,3.59,2.37,2.36,3.45
24.16,-3.54,-6.98,-3.54,-6.98,6.00,5.87,3.69,2.46,2.46,3.44
24.40,-3.45,-6.87,-3.45,-6.87,6.00,5.79,3.79,2.55,2.55,3.42
24.65,-3.35,-6.75,-3.35,-6.75,6.01,5.72,3.90,2.65,2.66,3.40
24.89,-3.25,-6.63,-3.25,-6.63,6.02,5.65,4.00,2.77,2.77,3.38
25.14,-3.14,-6.50,-3.14,-6.50,6.02,5.59,4.11,2.88,2.88,3.36
25.39,-3.04,-6.38,-3.04,-6.38,6.02,5.53,4.22,2.98,2.98,3.34
25.65,-2.93,-6.26,-2.93,-6.25,6.00,5.47,4.32,3.07,3.07,3.33
25.91,-2.83,-6.13,-2.83,-6.13,5.97,5.42,4.43,3.14,3.14,3.30
26.16,-2.73,-6.01,-2.73,-6.02,5.93,5.37,4.53,3.20,3.20,3.28
26.43,-2.63,-5.90,-2.63,-5.90,5.86,5.33,4.64,3.23,3.23,3.26
26.69,-2.53,-5.79,-2.53,-5.78,5.78,5.30,4.74,3.25,3.25,3.25
26.96,-2.43,-5.67,-2.44,-5.67,5.69,5.27,4.84,3.26,3.25,3.23
27.23,-2.34,-5.56,-2.34,-5.56,5.58,5.24,4.94,3.24,3.24,3.22
27.50,-2.25,-5.45,-2.25,-5.45,5.46,5.22,5.03,3.21,3.22,3.20
27.77,-2.15,-5.33,-2.15,-5.34,5.34,5.19,5.12,3.19,3.19,3.18
28.05,-2.05,-5.22,-2.05,-5.22,5.22,5.16,5.20,3.17,3.17,3.17
28.33,-1.96,-5.10,-1.96,-5.10,5.11,5.11,5.28,3.15,3.15,3.14
28.62,-1.85,-4.98,-1.86,-4.99,4.99,5.05,5.35,3.14,3.13,3.13
28.90,-1.76,-4.89,-1.76,-4.88,4.88,4.95,5.41,3.12,3.12,3.13
29.19,-1.66,-4.77,-1.66,-4.77,4.77,4.84,5.46,3.10,3.11,3.10
29.48,-1.55,-4.65,-1.55,-4.65,4.65,4.69,5.51,3.10,3.09,3.10
29.78,-1.45,-4.54,-1.45,-4.54,4.53,4.54,5.54,3.08,3.08,3.08
30.08,-1.34,-4.42,-1.35,-4.42,4.42,4.36,5.56,3.07,3.07,3.07
30.38,-1.25,-4.30,-1.25,-4.30,4.30,4.18,5.58,3.04,3.05,3.05
30.68,-1.14,-4.17,-1.14,-4.17,4.18,4.01,5.57,3.03,3.03,3.03
30.99,-1.03,-4.04,-1.04,-4.05,4.05,3.83,5.56,3.02,3.01,3.01
31.30,-0.93,-3.93,-0.93,-3.93,3.93,3.66,5.53,2.99,3.00,3.00
31.61,-0.82,-3.81,-0.83,-3.80,3.80,3.50,5.50,2.98,2.97,2.98
31.93,-0.72,-3.68,-0.72,-3.68,3.67,3.34,5.45,2.95,2.95,2.95
32.24,-0.61,-3.54,-0.61,-3.55,3.54,3.19,5.39,2.93,2.93,2.93
32.57,-0.50,-3.41,-0.50,-3.41,3.42,3.04,5.31,2.91,2.91,2.91
32.89,-0.39,-3.29,-0.39,-3.28,3.28,2.90,5.23,2.89,2.89,2.90
33.22,-0.28,-3.15,-0.28,-3.15,3.15,2.76,5.13,2.87,2.87,2.87
33.55,-0.17,-3.03,-0.17,-3.02,3.02,2.63,5.02,2.85,2.85,2.85
33.89,-0.06,-2.89,-0.06,-2.89,2.89,2.50,4.91,2.83,2.83,2.82
34.23,0.05,-2.76,0.05,-2.76,2.76,2.37,4.78,2.81,2.81,2.81
34.57,0.16,-2.62,0.16,-2.62,2.63,2.24,4.65,2.78,2.78,2.78
34.92,0.27,-2.49,0.27,-2.50,2.49,2.11,4.51,2.76,2.76,2.76
35.27,0.38,-2.37,0.38,-2.36,2.36,1.99,4.36,2.74,2.74,2.74
35.62,0.49,-2.24,0.49,-2.23,2.23,1.87,4.21,2.72,2.72,2.72
35.97,0.60,-2.09,0.60,-2.10,2.09,1.75,4.05,2.69,2.69,2.69
36.33,0.72,-1.96,0.71,-1.96,1.96,1.63,3.88,2.68,2.67,2.68
36.70,0.82,-1.84,0.83,-1.82,1.83,1.50,3.72,2.64,2.65,2.66
37.06,0.94,-1.68,0.94,-1.69,1.69,1.39,3.55,2.63,2.63,2.62
37.43,1.06,-1.55,1.05,-1.56,1.56,1.27,3.37,2.62,2.61,2.61
37.81,1.16,-1.43,1.17,-1.42,1.43,1.15,3.20,2.58,2.59,2.59
38.19,1.28,-1.29,1.28,-1.29,1.29,1.03,3.02,2.57,2.57,2.56
38.57,1.39,-1.16,1.39,-1.16,1.16,0.91,2.84,2.54,2.54,2.55
38.95,1.50,-1.03,1.50,-1.03,1.02,0.79,2.66,2.52,2.52,2.53
39.34,1.61,-0.90,1.61,-0.89,0.89,0.68,2.48,2.50,2.50,2.50
39.74,1.73,-0.74,1.72,-0.75,0.75,0.56,2.30,2.48,2.48,2.47
40.14,1.84,-0.62,1.84,-0.62,0.62,0.44,2.12,2.46,2.46,2.46
40.54,1.95,-0.49,1.95,-0.49,0.49,0.32,1.94,2.44,2.44,2.43
40.94,2.07,-0.35,2.06,-0.36,0.36,0.21,1.76,2.43,2.42,2.42
41.35,2.17,-0.23,2.17,-0.23,0.23,0.09,1.58,2.40,2.40,2.40
41.76,2.29,-0.09,2.29,-0.09,0.10,-0.02,1.40,2.39,2.38,2.38
42.18,2.40,0.03,2.40,0.03,-0.03,-0.14,1.22,2.37,2.36,2.37
42.60,2.51,0.16,2.51,0.16,-0.16,-0.25,1.04,2.35,2.35,2.34
43.03,2.62,0.28,2.62,0.28,-0.29,-0.37,0.86,2.32,2.32,2.34
43.46,2.73,0.41,2.73,0.42,-0.43,-0.48,0.68,2.30,2.31,2.31
43.90,2.85,0.57,2.84,0.56,-0.56,-0.59,0.50,2.29,2.29,2.28
44.33,2.96,0.70,2.95,0.70,-0.69,-0.71,0.32,2.27,2.26,2.25
44.78,3.06,0.82,3.06,0.82,-0.82,-0.82,0.14,2.24,2.24,2.24
45.23,3.17,0.95,3.17,0.95,-0.95,-0.93,-0.04,2.22,2.22,2.21
45.68,3.27,1.07,3.27,1.08,-1.08,-1.04,-0.22,2.19,2.20,2.20
46.13,3.39,1.22,3.38,1.20,-1.20,-1.15,-0.40,2.19,2.18,2.17
46.60,3.49,1.32,3.49,1.32,-1.32,-1.26,-0.57,2.17,2.17,2.17
47.06,3.59,1.44,3.59,1.44,-1.44,-1.37,-0.75,2.15,2.15,2.15
47.53,3.69,1.55,3.68,1.55,-1.55,-1.47,-0.93,2.13,2.13,2.13
48.01,3.78,1.66,3.78,1.66,-1.67,-1.58,-1.10,2.11,2.11,2.12
48.49,3.87,1.78,3.87,1.78,-1.79,-1.68,-1.28,2.08,2.08,2.09
48.97,3.96,1.89,3.96,1.89,-1.90,-1.79,-1.46,2.06,2.06,2.06
49.46,4.05,2.01,4.05,2.01,-2.01,-1.89,-1.63,2.04,2.04,2.04
49.96,4.14,2.13,4.14,2.13,-2.12,-1.99,-1.80,2.02,2.02,2.01
50.46,4.23,2.24,4.22,2.23,-2.23,-2.09,-1.98,2.00,2.00,1.99
50.96,4.31,2.34,4.31,2.34,-2.33,-2.18,-2.15,1.98,1.97,1.97
51.47,4.38,2.43,4.38,2.43,-2.43,-2.28,-2.32,1.95,1.95,1.94
51.99,4.46,2.53,4.46,2.52,-2.53,-2.37,-2.49,1.93,1.93,1.93
52.51,4.53,2.61,4.53,2.62,-2.62,-2.46,-2.65,1.91,1.91,1.92
53.03,4.60,2.70,4.60,2.71,-2.71,-2.55,-2.82,1.89,1.89,1.90
53.56,4.67,2.80,4.67,2.80,-2.80,-2.64,-2.98,1.87,1.87,1.87
54.10,4.74,2.89,4.73,2.88,-2.88,-2.73,-3.14,1.85,1.85,1.85
54.64,4.79,2.96,4.80,2.97,-2.97,-2.81,-3.29,1.82,1.83,1.83
55.18,4.86,3.05,4.86,3.05,-3.05,-2.89,-3.44,1.81,1.81,1.81
55.74,4.92,3.13,4.91,3.13,-3.13,-2.97,-3.59,1.79,1.78,1.79
56.29,4.97,3.20,4.97,3.21,-3.20,-3.05,-3.73,1.76,1.77,1.76
56.86,5.02,3.28,5.02,3.28,-3.27,-3.12,-3.87,1.74,1.75,1.74
57.42,5.07,3.35,5.07,3.34,-3.34,-3.20,-3.99,1.73,1.73,1.72
58.00,5.12,3.41,5.12,3.41,-3.41,-3.27,-4.12,1.71,1.71,1.71
58.58,5.16,3.46,5.16,3.47,-3.47,-3.34,-4.23,1.69,1.69,1.69
59.16,5.21,3.53,5.20,3.53,-3.53,-3.40,-4.34,1.68,1.67,1.68
59.76,5.24,3.58,5.24,3.58,-3.59,-3.46,-4.44,1.65,1.65,1.66
60.35,5.28,3.65,5.28,3.64,-3.65,-3.52,-4.53,1.63,1.63,1.63
60.96,5.31,3.69,5.31,3.70,-3.70,-3.58,-4.61,1.60,1.61,1.62
61.57,5.35,3.76,5.35,3.76,-3.76,-3.64,-4.69,1.59,1.59,1.58
62.18,5.38,3.82,5.38,3.82,-3.81,-3.69,-4.75,1.57,1.57,1.56
62.80,5.41,3.87,5.40,3.87,-3.86,-3.74,-4.81,1.55,1.54,1.54
63.43,5.43,3.91,5.43,3.91,-3.91,-3.79,-4.86,1.52,1.52,1.51
64.07,5.45,3.95,5.45,3.95,-3.95,-3.84,-4.89,1.49,1.50,1.50
64.71,5.48,4.00,5.47,3.99,-3.99,-3.89,-4.92,1.48,1.48,1.48
65.35,5.49,4.03,5.49,4.03,-4.03,-3.93,-4.95,1.45,1.46,1.46
66.01,5.51,4.06,5.51,4.07,-4.07,-3.97,-4.96,1.44,1.44,1.44
66.67,5.53,4.10,5.53,4.10,-4.11,-4.01,-4.97,1.42,1.42,1.42
67.33,5.55,4.14,5.54,4.14,-4.14,-4.05,-4.96,1.41,1.41,1.40
68.01,5.56,4.17,5.56,4.17,-4.17,-4.08,-4.96,1.39,1.39,1.38
68.69,5.57,4.20,5.57,4.21,-4.20,-4.12,-4.94,1.36,1.37,1.36
69.37,5.58,4.24,5.58,4.23,-4.23,-4.15,-4.93,1.35,1.35,1.34
70.07,5.59,4.27,5.59,4.26,-4.26,-4.18,-4.90,1.33,1.33,1.32
70.77,5.59,4.28,5.59,4.28,-4.29,-4.21,-4.88,1.30,1.30,1.31
71.48,5.60,4.31,5.59,4.31,-4.31,-4.24,-4.85,1.29,1.28,1.29
72.19,5.59,4.33,5.59,4.33,-4.34,-4.27,-4.82,1.25,1.26,1.26
72.91,5.60,4.37,5.59,4.36,-4.36,-4.29,-4.78,1.24,1.23,1.23
73.64,5.59,4.38,5.59,4.38,-4.38,-4.32,-4.75,1.21,1.21,1.20
74.38,5.59,4.40,5.59,4.41,-4.40,-4.34,-4.71,1.18,1.19,1.19
75.12,5.59,4.42,5.59,4.42,-4.43,-4.37,-4.68,1.16,1.16,1.16
75.87,5.59,4.45,5.58,4.44,-4.45,-4.39,-4.64,1.14,1.14,1.14
76.63,5.58,4.46,5.58,4.47,-4.47,-4.41,-4.61,1.11,1.11,1.12
77.40,5.58,4.49,5.58,4.49,-4.49,-4.43,-4.57,1.09,1.09,1.09
78.17,5.58,4.52,5.58,4.51,-4.51,-4.45,-4.54,1.07,1.07,1.05
78.95,5.58,4.54,5.57,4.54,-4.53,-4.47,-4.51,1.04,1.04,1.04
79.74,5.57,4.55,5.57,4.56,-4.56,-4.49,-4.48,1.01,1.01,1.02
80.54,5.56,4.57,5.56,4.58,-4.58,-4.51,-4.45,0.98,0.98,0.99
81.35,5.56,4.60,5.55,4.59,-4.60,-4.53,-4.42,0.96,0.96,0.96
82.16,5.55,4.62,5.55,4.62,-4.62,-4.55,-4.40,0.93,0.93,0.93
82.98,5.54,4.63,5.54,4.64,-4.64,-4.57,-4.38,0.90,0.90,0.91
83.81,5.53,4.66,5.53,4.66,-4.66,-4.59,-4.36,0.87,0.87,0.86
84.65,5.51,4.68,5.51,4.68,-4.67,-4.61,-4.35,0.83,0.84,0.83
85.50,5.50,4.69,5.49,4.69,-4.69,-4.62,-4.34,0.81,0.80,0.81
86.35,5.48,4.70,5.48,4.70,-4.71,-4.64,-4.33,0.77,0.77,0.78
87.22,5.46,4.72,5.46,4.72,-4.72,-4.66,-4.33,0.74,0.74,0.74
88.09,5.45,4.74,5.44,4.73,-4.73,-4.68,-4.33,0.71,0.71,0.71
88.97,5.43,4.74,5.43,4.75,-4.74,-4.70,-4.33,0.68,0.68,0.68
89.86,5.41,4.75,5.41,4.76,-4.76,-4.72,-4.33,0.65,0.65,0.66
90.76,5.39,4.77,5.39,4.77,-4.77,-4.74,-4.34,0.62,0.62,0.61
91.66,5.37,4.78,5.36,4.78,-4.78,-4.76,-4.36,0.59,0.59,0.59
92.58,5.34,4.80,5.34,4.79,-4.79,-4.78,-4.37,0.55,0.55,0.54
93.51,5.32,4.79,5.32,4.80,-4.80,-4.79,-4.39,0.51,0.52,0.52
94.44,5.30,4.81,5.30,4.81,-4.82,-4.81,-4.41,0.48,0.48,0.49
95.39,5.28,4.83,5.27,4.82,-4.83,-4.83,-4.44,0.45,0.45,0.45
96.34,5.25,4.84,5.25,4.84,-4.84,-4.85,-4.47,0.41,0.41,0.40
97.30,5.23,4.86,5.23,4.86,-4.86,-4.87,-4.50,0.37,0.37,0.37
98.28,5.21,4.88,5.20,4.88,-4.87,-4.89,-4.53,0.34,0.33,0.33
99.26,5.18,4.89,5.18,4.89,-4.89,-4.91,-4.57,0.29,0.29,0.29
100.25,5.16,4.90,5.15,4.90,-4.90,-4.94,-4.61,0.26,0.25,0.25
101.25,5.13,4.91,5.13,4.91,-4.92,-4.96,-4.65,0.21,0.21,0.22
102.27,5.10,4.92,5.10,4.93,-4.93,-4.98,-4.69,0.17,0.17,0.18
103.29,5.08,4.96,5.08,4.95,-4.95,-5.00,-4.74,0.13,0.13,0.12
104.32,5.05,4.96,5.05,4.96,-4.96,-5.02,-4.78,0.09,0.09,0.09
105.37,5.03,4.99,5.02,4.98,-4.98,-5.04,-4.83,0.05,0.05,0.04
106.42,4.99,4.98,4.99,4.99,-4.99,-5.06,-4.88,-0.01,-0.00,0.00
107.48,4.97,5.00,4.97,5.01,-5.01,-5.08,-4.93,-0.04,-0.04,-0.03
108.56,4.94,5.03,4.94,5.03,-5.03,-5.10,-4.97,-0.09,-0.09,-0.09
109.64,4.92,5.05,4.92,5.05,-5.05,-5.12,-5.02,-0.13,-0.13,-0.13
110.74,4.89,5.07,4.89,5.07,-5.06,-5.15,-5.07,-0.18,-0.18,-0.18
111.85,4.86,5.07,4.86,5.08,-5.08,-5.17,-5.11,-0.23,-0.23,-0.22
112.97,4.83,5.11,4.82,5.10,-5.10,-5.19,-5.16,-0.27,-0.28,-0.28
114.10,4.79,5.11,4.79,5.12,-5.12,-5.21,-5.20,-0.33,-0.32,-0.32
115.24,4.77,5.14,4.77,5.14,-5.14,-5.23,-5.24,-0.37,-0.37,-0.37
116.39,4.74,5.15,4.74,5.15,-5.15,-5.25,-5.27,-0.41,-0.41,-0.42
117.55,4.71,5.17,4.71,5.17,-5.16,-5.27,-5.31,-0.46,-0.46,-0.46
118.73,4.67,5.18,4.67,5.18,-5.18,-5.29,-5.34,-0.51,-0.51,-0.51
119.92,4.64,5.18,4.64,5.19,-5.19,-5.31,-5.36,-0.55,-0.55,-0.55
121.12,4.61,5.20,4.61,5.20,-5.20,-5.33,-5.38,-0.59,-0.59,-0.59
122.33,4.58,5.21,4.58,5.21,-5.21,-5.35,-5.40,-0.63,-0.63,-0.64
123.55,4.55,5.22,4.55,5.22,-5.22,-5.36,-5.41,-0.67,-0.67,-0.67
124.79,4.52,5.22,4.52,5.23,-5.23,-5.38,-5.42,-0.71,-0.71,-0.71
126.03,4.49,5.24,4.48,5.23,-5.24,-5.40,-5.42,-0.75,-0.76,-0.75
127.29,4.45,5.24,4.45,5.25,-5.25,-5.42,-5.42,-0.80,-0.80,-0.79
128.57,4.42,5.26,4.42,5.26,-5.26,-5.43,-5.42,-0.84,-0.84,-0.84
129.85,4.40,5.28,4.39,5.27,-5.26,-5.45,-5.40,-0.87,-0.87,-0.88
131.15,4.36,5.27,4.36,5.27,-5.27,-5.46,-5.39,-0.91,-0.91,-0.91
132.46,4.33,5.27,4.33,5.28,-5.27,-5.48,-5.37,-0.95,-0.94,-0.94
133.79,4.30,5.27,4.30,5.28,-5.28,-5.49,-5.35,-0.98,-0.98,-0.98
135.12,4.27,5.28,4.26,5.27,-5.28,-5.50,-5.32,-1.01,-1.01,-1.02
136.48,4.23,5.27,4.23,5.27,-5.28,-5.52,-5.30,-1.05,-1.04,-1.04
137.84,4.20,5.27,4.20,5.27,-5.27,-5.53,-5.26,-1.07,-1.07,-1.07
139.22,4.18,5.27,4.17,5.27,-5.27,-5.54,-5.23,-1.09,-1.09,-1.10
140.61,4.15,5.27,4.15,5.27,-5.26,-5.55,-5.19,-1.11,-1.11,-1.13
142.02,4.12,5.25,4.12,5.26,-5.25,-5.56,-5.16,-1.14,-1.14,-1.13
143.44,4.09,5.25,4.09,5.25,-5.25,-5.56,-5.12,-1.16,-1.16,-1.16
144.87,4.06,5.24,4.06,5.24,-5.24,-5.57,-5.08,-1.18,-1.18,-1.18
146.32,4.04,5.23,4.04,5.23,-5.23,-5.58,-5.04,-1.19,-1.20,-1.19
147.78,4.01,5.22,4.01,5.22,-5.22,-5.58,-5.01,-1.22,-1.21,-1.21
149.26,3.99,5.21,3.98,5.21,-5.21,-5.59,-4.97,-1.23,-1.23,-1.23
150.75,3.95,5.21,3.95,5.21,-5.20,-5.59,-4.93,-1.26,-1.25,-1.26
152.26,3.93,5.20,3.93,5.20,-5.20,-5.59,-4.90,-1.27,-1.27,-1.27
153.78,3.90,5.19,3.90,5.19,-5.19,-5.60,-4.86,-1.29,-1.29,-1.29
155.32,3.88,5.19,3.87,5.18,-5.18,-5.60,-4.83,-1.30,-1.31,-1.31
156.88,3.85,5.17,3.85,5.17,-5.18,-5.60,-4.80,-1.33,-1.33,-1.32
158.44,3.82,5.16,3.82,5.17,-5.17,-5.59,-4.78,-1.35,-1.35,-1.35
160.03,3.80,5.16,3.79,5.16,-5.17,-5.59,-4.75,-1.37,-1.37,-1.37
161.63,3.77,5.17,3.77,5.16,-5.16,-5.59,-4.73,-1.39,-1.39,-1.40
163.24,3.75,5.17,3.75,5.16,-5.16,-5.58,-4.71,-1.41,-1.41,-1.42
164.88,3.73,5.16,3.73,5.16,-5.16,-5.57,-4.70,-1.43,-1.43,-1.43
166.53,3.71,5.15,3.71,5.16,-5.16,-5.57,-4.69,-1.45,-1.45,-1.45
168.19,3.69,5.16,3.69,5.16,-5.16,-5.56,-4.68,-1.47,-1.47,-1.48
169.87,3.66,5.15,3.66,5.16,-5.16,-5.55,-4.67,-1.50,-1.50,-1.49
171.57,3.65,5.17,3.64,5.16,-5.16,-5.54,-4.67,-1.52,-1.52,-1.52
173.29,3.62,5.16,3.62,5.16,-5.17,-5.53,-4.67,-1.55,-1.54,-1.54
175.02,3.61,5.17,3.60,5.17,-5.17,-5.51,-4.68,-1.57,-1.57,-1.57
176.77,3.58,5.18,3.58,5.18,-5.18,-5.50,-4.69,-1.60,-1.60,-1.60
178.54,3.56,5.20,3.56,5.19,-5.19,-5.49,-4.70,-1.63,-1.63,-1.64
180.32,3.54,5.20,3.53,5.20,-5.20,-5.47,-4.72,-1.66,-1.66,-1.66
182.13,3.51,5.20,3.51,5.20,-5.20,-5.45,-4.74,-1.70,-1.70,-1.69
183.95,3.48,5.21,3.49,5.21,-5.21,-5.43,-4.76,-1.73,-1.73,-1.73
185.79,3.47,5.22,3.46,5.22,-5.22,-5.41,-4.79,-1.75,-1.76,-1.76
187.65,3.44,5.23,3.44,5.23,-5.22,-5.39,-4.82,-1.78,-1.78,-1.79
189.52,3.41,5.22,3.41,5.23,-5.23,-5.37,-4.85,-1.82,-1.81,-1.81
191.42,3.39,5.23,3.39,5.23,-5.23,-5.35,-4.89,-1.84,-1.84,-1.85
193.33,3.36,5.23,3.36,5.22,-5.23,-5.33,-4.93,-1.87,-1.87,-1.87
195.27,3.33,5.23,3.33,5.22,-5.23,-5.30,-4.97,-1.90,-1.90,-1.90
197.22,3.29,5.21,3.30,5.22,-5.22,-5.28,-5.02,-1.93,-1.92,-1.92
199.19,3.27,5.23,3.27,5.22,-5.21,-5.25,-5.06,-1.95,-1.95,-1.96
201.18,3.24,5.21,3.23,5.21,-5.21,-5.22,-5.11,-1.97,-1.97,-1.97
203.19,3.20,5.19,3.20,5.20,-5.20,-5.19,-5.16,-2.00,-2.00,-1.99
205.23,3.16,5.18,3.16,5.18,-5.18,-5.16,-5.22,-2.03,-2.02,-2.02
207.28,3.14,5.16,3.13,5.17,-5.17,-5.13,-5.27,-2.03,-2.04,-2.02
209.35,3.10,5.15,3.10,5.16,-5.16,-5.10,-5.33,-2.06,-2.06,-2.05
211.44,3.08,5.16,3.07,5.14,-5.14,-5.07,-5.38,-2.07,-2.07,-2.08
213.56,3.04,5.13,3.04,5.13,-5.13,-5.04,-5.44,-2.09,-2.09,-2.09
215.69,3.01,5.10,3.01,5.11,-5.11,-5.00,-5.49,-2.10,-2.10,-2.09
217.85,2.98,5.09,2.98,5.08,-5.09,-4.97,-5.54,-2.11,-2.11,-2.11
220.03,2.95,5.06,2.95,5.06,-5.06,-4.93,-5.60,-2.12,-2.11,-2.12
222.23,2.93,5.05,2.92,5.04,-5.03,-4.90,-5.64,-2.11,-2.11,-2.12
224.45,2.89,5.00,2.89,5.01,-5.00,-4.86,-5.69,-2.11,-2.11,-2.11
226.70,2.86,4.97,2.86,4.97,-4.97,-4.82,-5.73,-2.11,-2.11,-2.11
228.96,2.83,4.93,2.82,4.93,-4.93,-4.79,-5.77,-2.10,-2.11,-2.10
231.25,2.79,4.88,2.79,4.89,-4.89,-4.75,-5.80,-2.10,-2.10,-2.09
233.57,2.76,4.85,2.76,4.84,-4.84,-4.71,-5.83,-2.09,-2.09,-2.09
235.90,2.72,4.79,2.72,4.80,-4.79,-4.67,-5.86,-2.08,-2.08,-2.07
238.26,2.69,4.76,2.68,4.75,-4.74,-4.63,-5.87,-2.06,-2.06,-2.07
240.64,2.64,4.68,2.64,4.69,-4.69,-4.59,-5.88,-2.05,-2.05,-2.05
243.05,2.61,4.64,2.60,4.63,-4.63,-4.54,-5.89,-2.03,-2.03,-2.03
245.48,2.56,4.57,2.56,4.57,-4.57,-4.50,-5.88,-2.02,-2.01,-2.01
247.93,2.52,4.50,2.52,4.51,-4.51,-4.46,-5.87,-1.99,-1.99,-1.98
250.41,2.49,4.47,2.48,4.45,-4.44,-4.41,-5.85,-1.96,-1.96,-1.98
252.92,2.44,4.38,2.44,4.38,-4.38,-4.37,-5.82,-1.94,-1.94,-1.94
255.45,2.39,4.31,2.39,4.31,-4.31,-4.33,-5.78,-1.92,-1.92,-1.92
258.00,2.34,4.24,2.34,4.24,-4.23,-4.28,-5.74,-1.90,-1.90,-1.90
260.58,2.30,4.17,2.29,4.17,-4.17,-4.24,-5.68,-1.87,-1.87,-1.88
263.19,2.25,4.10,2.25,4.11,-4.10,-4.19,-5.63,-1.85,-1.85,-1.85
265.82,2.22,4.05,2.22,4.04,-4.04,-4.15,-5.56,-1.82,-1.82,-1.83
268.48,2.19,3.99,2.19,3.99,-3.99,-4.10,-5.49,-1.81,-1.80,-1.80
271.16,2.18,3.95,2.17,3.95,-3.96,-4.05,-5.41,-1.78,-1.79,-1.77
273.87,2.17,3.92,2.17,3.92,-3.94,-4.01,-5.33,-1.77,-1.77,-1.76
276.61,2.19,3.92,2.19,3.92,-3.94,-3.96,-5.24,-1.75,-1.75,-1.73
279.38,2.24,3.95,2.23,3.94,-3.96,-3.91,-5.14,-1.72,-1.72,-1.71
282.17,2.30,3.98,2.30,3.98,-3.99,-3.86,-5.05,-1.70,-1.70,-1.69
284.99,2.38,4.04,2.38,4.04,-4.05,-3.82,-4.95,-1.67,-1.66,-1.66
287.84,2.48,4.11,2.48,4.11,-4.11,-3.77,-4.84,-1.63,-1.63,-1.63
290.72,2.59,4.19,2.58,4.19,-4.19,-3.72,-4.74,-1.60,-1.60,-1.61
293.63,2.70,4.28,2.69,4.27,-4.27,-3.67,-4.63,-1.57,-1.57,-1.58
296.57,2.80,4.35,2.80,4.36,-4.35,-3.62,-4.52,-1.55,-1.55,-1.55
299.53,2.91,4.43,2.91,4.43,-4.43,-3.57,-4.41,-1.53,-1.52,-1.52
302.53,3.02,4.52,3.01,4.51,-4.51,-3.53,-4.30,-1.50,-1.50,-1.51
305.55,3.12,4.58,3.12,4.59,-4.59,-3.48,-4.19,-1.47,-1.47,-1.46
308.61,3.22,4.65,3.22,4.65,-4.65,-3.43,-4.08,-1.43,-1.43,-1.43
311.69,3.31,4.70,3.31,4.70,-4.70,-3.38,-3.98,-1.40,-1.39,-1.39
314.81,3.39,4.73,3.38,4.74,-4.74,-3.33,-3.87,-1.35,-1.36,-1.35
317.96,3.44,4.77,3.44,4.76,-4.76,-3.28,-3.76,-1.32,-1.32,-1.33
321.14,3.47,4.77,3.47,4.77,-4.75,-3.23,-3.66,-1.28,-1.28,-1.30
324.35,3.48,4.75,3.47,4.74,-4.72,-3.18,-3.55,-1.24,-1.25,-1.27
327.59,3.44,4.68,3.44,4.68,-4.66,-3.13,-3.45,-1.23,-1.22,-1.24
330.87,3.38,4.59,3.38,4.60,-4.58,-3.08,-3.35,-1.21,-1.20,-1.22
334.18,3.30,4.49,3.29,4.49,-4.48,-3.03,-3.25,-1.18,-1.18,-1.20
337.52,3.19,4.37,3.19,4.36,-4.35,-2.98,-3.15,-1.17,-1.17,-1.18
340.90,3.07,4.22,3.07,4.22,-4.22,-2.93,-3.06,-1.15,-1.15,-1.15
344.30,2.94,4.07,2.94,4.07,-4.07,-2.88,-2.96,-1.14,-1.13,-1.13
347.75,2.81,3.92,2.80,3.92,-3.93,-2.83,-2.87,-1.12,-1.13,-1.11
351.23,2.68,3.77,2.67,3.77,-3.79,-2.78,-2.78,-1.12,-1.12,-1.09
354.74,2.55,3.62,2.56,3.64,-3.67,-2.73,-2.70,-1.12,-1.10,-1.08
358.28,2.48,3.54,2.47,3.53,-3.55,-2.68,-2.61,-1.08,-1.08,-1.06
361.87,2.41,3.45,2.40,3.44,-3.45,-2.63,-2.53,-1.04,-1.05,-1.04
365.49,2.34,3.36,2.34,3.36,-3.36,-2.58,-2.45,-1.02,-1.02,-1.02
369.14,2.28,3.29,2.28,3.29,-3.28,-2.53,-2.37,-1.00,-1.00,-1.01
372.83,2.22,3.21,2.22,3.21,-3.20,-2.47,-2.29,-0.99,-0.98,-0.99
376.56,2.17,3.15,2.16,3.14,-3.13,-2.42,-2.22,-0.97,-0.97,-0.98
380.33,2.11,3.06,2.11,3.07,-3.06,-2.37,-2.14,-0.96,-0.95,-0.95
384.13,2.06,2.99,2.05,2.99,-2.99,-2.32,-2.07,-0.94,-0.94,-0.94
387.97,2.00,2.91,2.00,2.92,-2.92,-2.27,-2.00,-0.92,-0.92,-0.92
391.85,1.95,2.86,1.95,2.85,-2.85,-2.22,-1.94,-0.90,-0.90,-0.91
395.77,1.90,2.78,1.90,2.78,-2.78,-2.17,-1.87,-0.88,-0.88,-0.88
399.73,1.85,2.71,1.85,2.71,-2.70,-2.12,-1.81,-0.85,-0.86,-0.86
403.72,1.79,2.63,1.79,2.63,-2.63,-2.07,-1.74,-0.84,-0.84,-0.84
407.76,1.74,2.56,1.74,2.55,-2.56,-2.01,-1.68,-0.82,-0.82,-0.82
411.84,1.68,2.47,1.68,2.48,-2.48,-1.96,-1.62,-0.81,-0.80,-0.79
415.96,1.64,2.41,1.63,2.41,-2.41,-1.91,-1.56,-0.77,-0.78,-0.77
420.12,1.59,2.34,1.58,2.34,-2.34,-1.86,-1.51,-0.75,-0.76,-0.75
424.32,1.53,2.26,1.53,2.27,-2.27,-1.80,-1.45,-0.74,-0.74,-0.73
428.56,1.48,2.19,1.47,2.19,-2.19,-1.75,-1.40,-0.72,-0.72,-0.71
432.85,1.42,2.11,1.42,2.11,-2.12,-1.70,-1.35,-0.70,-0.70,-0.70
437.18,1.37,2.03,1.37,2.04,-2.04,-1.64,-1.30,-0.67,-0.66,-0.67
441.55,1.32,1.95,1.32,1.96,-1.95,-1.59,-1.25,-0.63,-0.63,-0.64
445.96,1.26,1.88,1.25,1.87,-1.85,-1.53,-1.20,-0.59,-0.60,-0.62
450.42,1.17,1.77,1.17,1.76,-1.75,-1.48,-1.15,-0.58,-0.58,-0.60
454.93,1.07,1.63,1.07,1.64,-1.63,-1.42,-1.11,-0.57,-0.56,-0.56
459.48,0.98,1.52,0.98,1.52,-1.52,-1.37,-1.06,-0.54,-0.54,-0.54
464.07,0.89,1.40,0.89,1.40,-1.40,-1.31,-1.02,-0.51,-0.52,-0.51
468.71,0.80,1.28,0.80,1.28,-1.28,-1.25,-0.98,-0.48,-0.49,-0.48
473.40,0.71,1.16,0.71,1.16,-1.16,-1.19,-0.94,-0.46,-0.46,-0.45
478.13,0.62,1.04,0.62,1.04,-1.05,-1.13,-0.90,-0.43,-0.43,-0.42
482.91,0.54,0.94,0.54,0.93,-0.94,-1.07,-0.86,-0.40,-0.40,-0.40
487.74,0.46,0.83,0.46,0.83,-0.83,-1.00,-0.82,-0.37,-0.37,-0.37
492.62,0.39,0.73,0.39,0.73,-0.73,-0.94,-0.78,-0.34,-0.34,-0.34
497.55,0.32,0.63,0.32,0.63,-0.63,-0.87,-0.74,-0.31,-0.31,-0.31
502.52,0.25,0.53,0.25,0.53,-0.54,-0.80,-0.71,-0.29,-0.29,-0.28
