frequency,raw,error,smoothed,error_smoothed,equalization,parametric_eq,fixed_band_eq,equalized_raw,equalized_smoothed,target
20.00,-1.12,-5.19,-1.12,-5.20,5.21,4.71,2.10,4.08,4.08,4.07
20.20,-1.10,-5.16,-1.10,-5.16,5.16,4.71,2.16,4.06,4.06,4.06
20.40,-1.08,-5.12,-1.08,-5.12,5.12,4.70,2.22,4.04,4.04,4.04
20.61,-1.07,-5.09,-1.06,-5.09,5.08,4.70,2.29,4.02,4.02,4.03
20.81,-1.04,-5.05,-1.04,-5.05,5.05,4.70,2.35,4.00,4.00,4.01
21.02,-1.02,-5.02,-1.03,-5.02,5.01,4.69,2.42,3.99,3.99,4.00
21.23,-1.00,-4.99,-1.00,-4.99,4.98,4.69,2.49,3.98,3.98,3.99
21.44,-0.98,-4.96,-0.98,-4.95,4.95,4.69,2.57,3.97,3.97,3.98
21.66,-0.96,-4.91,-0.96,-4.92,4.92,4.68,2.64,3.97,3.97,3.96
21.87,-0.93,-4.89,-0.94,-4.89,4.90,4.68,2.72,3.96,3.96,3.95
22.09,-0.92,-4.87,-0.93,-4.87,4.88,4.67,2.80,3.95,3.95,3.94
22.31,-0.92,-4.86,-0.92,-4.86,4.86,4.67,2.88,3.93,3.94,3.93
22.54,-0.92,-4.85,-0.92,-4.85,4.85,4.67,2.96,3.92,3.92,3.92
22.76,-0.92,-4.84,-0.92,-4.84,4.84,4.66,3.05,3.91,3.91,3.91
22.99,-0.92,-4.84,-0.92,-4.83,4.83,4.66,3.13,3.91,3.91,3.91
23.22,-0.92,-4.83,-0.92,-4.83,4.83,4.65,3.22,3.91,3.91,3.90
23.45,-0.92,-4.82,-0.93,-4.83,4.82,4.65,3.31,3.90,3.90,3.90
23.69,-0.92,-4.82,-0.93,-4.82,4.82,4.64,3.41,3.89,3.89,3.90
23.92,-0.92,-4.82,-0.92,-4.82,4.80,4.64,3.50,3.88,3.88,3.90
24.16,-0.90,-4.80,-0.90,-4.80,4.79,4.64,3.60,3.89,3.89,3.90
24.40,-0.88,-4.78,-0.88,-4.78,4.78,4.63,3.70,3.89,3.89,3.90
24.65,-0.85,-4.75,-0.86,-4.75,4.76,4.63,3.80,3.91,3.90,3.90
24.89,-0.83,-4.73,-0.84,-4.73,4.74,4.62,3.90,3.91,3.91,3.89
25.14,-0.82,-4.72,-0.83,-4.72,4.73,4.62,4.00,3.91,3.90,3.89
25.39,-0.82,-4.72,-0.82,-4.71,4.72,4.61,4.11,3.89,3.90,3.89
25.65,-0.82,-4.71,-0.82,-4.71,4.71,4.61,4.21,3.89,3.89,3.88
25.91,-0.82,-4.71,-0.82,-4.70,4.70,4.60,4.31,3.88,3.88,3.88
26.16,-0.82,-4.69,-0.82,-4.70,4.70,4.59,4.42,3.87,3.87,3.87
26.43,-0.82,-4.69,-0.83,-4.69,4.69,4.59,4.52,3.86,3.86,3.87
26.69,-0.82,-4.68,-0.83,-4.68,4.67,4.58,4.62,3.85,3.84,3.86
26.96,-0.82,-4.67,-0.82,-4.67,4.65,4.58,4.72,3.83,3.83,3.85
27.23,-0.80,-4.65,-0.80,-4.64,4.63,4.57,4.82,3.83,3.83,3.84
27.50,-0.77,-4.61,-0.77,-4.61,4.61,4.57,4.91,3.84,3.84,3.83
27.77,-0.74,-4.57,-0.75,-4.57,4.59,4.56,5.00,3.84,3.84,3.82
28.05,-0.72,-4.54,-0.73,-4.54,4.57,4.55,5.09,3.84,3.84,3.81
28.33,-0.72,-4.53,-0.72,-4.53,4.54,4.55,5.18,3.82,3.82,3.81
28.62,-0.72,-4.53,-0.72,-4.53,4.52,4.54,5.26,3.80,3.80,3.81
28.90,-0.72,-4.52,-0.72,-4.52,4.50,4.53,5.33,3.78,3.78,3.80
29.19,-0.70,-4.51,-0.70,-4.50,4.48,4.53,5.40,3.78,3.78,3.80
29.48,-0.67,-4.48,-0.67,-4.48,4.47,4.52,5.46,3.80,3.80,3.80
29.78,-0.64,-4.45,-0.65,-4.45,4.46,4.51,5.52,3.81,3.81,3.80
30.08,-0.62,-4.42,-0.63,-4.43,4.44,4.51,5.56,3.82,3.81,3.80
30.38,-0.62,-4.42,-0.62,-4.42,4.43,4.50,5.61,3.81,3.81,3.80
30.68,-0.62,-4.42,-0.62,-4.42,4.42,4.49,5.63,3.80,3.80,3.79
30.99,-0.62,-4.42,-0.62,-4.42,4.41,4.48,5.66,3.79,3.79,3.79
31.30,-0.62,-4.42,-0.62,-4.42,4.41,4.48,5.67,3.78,3.78,3.79
31.61,-0.62,-4.41,-0.62,-4.41,4.41,4.47,5.68,3.78,3.78,3.79
31.93,-0.62,-4.41,-0.62,-4.41,4.40,4.46,5.68,3.78,3.78,3.79
32.24,-0.62,-4.40,-0.62,-4.40,4.40,4.45,5.67,3.78,3.78,3.77
32.57,-0.62,-4.40,-0.62,-4.40,4.40,4.44,5.65,3.77,3.77,3.77
32.89,-0.62,-4.39,-0.62,-4.39,4.40,4.43,5.63,3.77,3.77,3.77
33.22,-0.62,-4.39,-0.62,-4.39,4.39,4.42,5.59,3.77,3.77,3.77
33.55,-0.62,-4.39,-0.62,-4.38,4.39,4.42,5.56,3.76,3.76,3.76
33.89,-0.62,-4.37,-0.62,-4.38,4.38,4.41,5.51,3.76,3.76,3.75
34.23,-0.62,-4.37,-0.63,-4.38,4.37,4.40,5.46,3.75,3.74,3.75
34.57,-0.62,-4.37,-0.63,-4.37,4.36,4.39,5.40,3.73,3.73,3.74
34.92,-0.62,-4.37,-0.62,-4.36,4.34,4.38,5.35,3.71,3.72,3.74
35.27,-0.60,-4.33,-0.59,-4.33,4.32,4.37,5.28,3.73,3.73,3.74
35.62,-0.56,-4.30,-0.56,-4.29,4.30,4.36,5.22,3.74,3.74,3.73
35.97,-0.52,-4.24,-0.54,-4.26,4.28,4.35,5.15,3.76,3.75,3.72
36.33,-0.52,-4.24,-0.53,-4.24,4.26,4.34,5.08,3.74,3.73,3.72
36.70,-0.52,-4.24,-0.52,-4.23,4.24,4.33,5.00,3.71,3.71,3.71
37.06,-0.52,-4.23,-0.52,-4.22,4.21,4.31,4.93,3.69,3.69,3.71
37.43,-0.50,-4.20,-0.51,-4.20,4.19,4.30,4.85,3.68,3.68,3.69
37.81,-0.48,-4.17,-0.49,-4.17,4.16,4.29,4.78,3.68,3.68,3.69
38.19,-0.46,-4.14,-0.46,-4.14,4.14,4.28,4.71,3.67,3.68,3.68
38.57,-0.44,-4.11,-0.44,-4.11,4.12,4.27,4.63,3.67,3.67,3.66
38.95,-0.42,-4.07,-0.43,-4.08,4.09,4.25,4.56,3.67,3.66,3.65
39.34,-0.42,-4.07,-0.42,-4.06,4.07,4.24,4.49,3.64,3.64,3.64
39.74,-0.42,-4.05,-0.42,-4.05,4.05,4.23,4.43,3.62,3.63,3.63
40.14,-0.42,-4.04,-0.42,-4.04,4.03,4.22,4.36,3.61,3.61,3.61
40.54,-0.42,-4.02,-0.42,-4.02,4.02,4.20,4.29,3.60,3.60,3.59
40.94,-0.42,-4.01,-0.42,-4.01,4.01,4.19,4.23,3.59,3.59,3.59
41.35,-0.42,-4.01,-0.42,-4.01,4.01,4.18,4.17,3.58,3.58,3.58
41.76,-0.42,-4.00,-0.42,-4.00,4.00,4.16,4.12,3.57,3.57,3.58
42.18,-0.42,-3.99,-0.42,-3.99,3.99,4.15,4.06,3.57,3.57,3.57
42.60,-0.42,-3.99,-0.42,-3.99,3.99,4.13,4.01,3.56,3.56,3.56
43.03,-0.42,-3.98,-0.42,-3.98,3.98,4.12,3.96,3.56,3.56,3.56
43.46,-0.42,-3.97,-0.42,-3.98,3.98,4.10,3.92,3.56,3.56,3.55
43.90,-0.42,-3.98,-0.42,-3.97,3.98,4.08,3.88,3.55,3.55,3.55
44.33,-0.42,-3.97,-0.42,-3.97,3.97,4.07,3.84,3.55,3.55,3.54
44.78,-0.42,-3.96,-0.43,-3.96,3.96,4.05,3.80,3.53,3.53,3.54
45.23,-0.42,-3.95,-0.43,-3.96,3.94,4.03,3.77,3.52,3.51,3.53
45.68,-0.42,-3.94,-0.42,-3.94,3.92,4.02,3.74,3.50,3.50,3.52
46.13,-0.41,-3.92,-0.40,-3.91,3.90,4.00,3.71,3.48,3.50,3.51
46.60,-0.37,-3.87,-0.37,-3.87,3.87,3.98,3.69,3.51,3.50,3.50
47.06,-0.32,-3.82,-0.34,-3.83,3.84,3.96,3.66,3.52,3.51,3.49
47.53,-0.32,-3.81,-0.32,-3.80,3.82,3.94,3.65,3.49,3.50,3.48
48.01,-0.32,-3.79,-0.32,-3.78,3.79,3.93,3.63,3.47,3.47,3.46
48.49,-0.32,-3.77,-0.32,-3.77,3.77,3.91,3.62,3.45,3.45,3.45
48.97,-0.32,-3.75,-0.32,-3.76,3.75,3.89,3.60,3.43,3.43,3.43
49.46,-0.32,-3.74,-0.32,-3.74,3.74,3.86,3.59,3.42,3.42,3.42
49.96,-0.32,-3.73,-0.32,-3.73,3.73,3.84,3.59,3.41,3.41,3.41
50.46,-0.32,-3.72,-0.32,-3.72,3.72,3.82,3.58,3.40,3.40,3.39
50.96,-0.32,-3.72,-0.32,-3.71,3.71,3.80,3.58,3.38,3.38,3.39
51.47,-0.32,-3.70,-0.32,-3.70,3.70,3.78,3.57,3.37,3.37,3.38
51.99,-0.32,-3.69,-0.32,-3.69,3.68,3.76,3.57,3.36,3.36,3.36
52.51,-0.32,-3.67,-0.32,-3.67,3.67,3.73,3.57,3.35,3.35,3.34
53.03,-0.32,-3.65,-0.32,-3.65,3.66,3.71,3.57,3.34,3.34,3.33
53.56,-0.32,-3.64,-0.32,-3.63,3.64,3.68,3.57,3.32,3.32,3.31
54.10,-0.32,-3.62,-0.32,-3.62,3.62,3.66,3.58,3.30,3.30,3.30
54.64,-0.32,-3.60,-0.33,-3.61,3.60,3.63,3.58,3.27,3.27,3.28
55.18,-0.32,-3.59,-0.33,-3.59,3.57,3.61,3.58,3.25,3.24,3.26
55.74,-0.32,-3.57,-0.31,-3.56,3.54,3.58,3.58,3.21,3.22,3.25
56.29,-0.29,-3.52,-0.28,-3.51,3.50,3.55,3.57,3.21,3.22,3.23
56.86,-0.24,-3.45,-0.25,-3.46,3.47,3.53,3.57,3.23,3.22,3.21
57.42,-0.21,-3.41,-0.22,-3.41,3.44,3.50,3.57,3.22,3.21,3.19
58.00,-0.21,-3.39,-0.21,-3.38,3.40,3.47,3.56,3.19,3.19,3.17
58.58,-0.21,-3.37,-0.21,-3.37,3.37,3.44,3.55,3.16,3.16,3.15
59.16,-0.21,-3.35,-0.21,-3.35,3.35,3.41,3.54,3.13,3.13,3.13
59.76,-0.21,-3.33,-0.21,-3.33,3.33,3.38,3.53,3.11,3.11,3.11
60.35,-0.21,-3.30,-0.21,-3.31,3.31,3.35,3.51,3.09,3.09,3.09
60.96,-0.21,-3.29,-0.21,-3.29,3.29,3.32,3.49,3.08,3.08,3.08
61.57,-0.21,-3.27,-0.21,-3.27,3.27,3.28,3.46,3.05,3.05,3.05
62.18,-0.21,-3.24,-0.22,-3.24,3.24,3.25,3.43,3.02,3.02,3.03
62.80,-0.21,-3.21,-0.22,-3.22,3.20,3.22,3.40,2.98,2.98,3.00
63.43,-0.21,-3.18,-0.21,-3.18,3.16,3.18,3.37,2.94,2.95,2.97
64.07,-0.20,-3.14,-0.19,-3.12,3.11,3.15,3.33,2.91,2.93,2.93
64.71,-0.14,-3.05,-0.16,-3.06,3.07,3.11,3.29,2.92,2.91,2.91
65.35,-0.11,-2.99,-0.13,-3.00,3.02,3.07,3.24,2.90,2.89,2.87
66.01,-0.11,-2.96,-0.11,-2.95,2.97,3.04,3.19,2.86,2.86,2.84
66.67,-0.11,-2.92,-0.11,-2.92,2.93,3.00,3.14,2.81,2.81,2.80
67.33,-0.11,-2.89,-0.11,-2.89,2.88,2.96,3.08,2.77,2.77,2.77
68.01,-0.11,-2.85,-0.11,-2.85,2.84,2.92,3.03,2.73,2.73,2.73
68.69,-0.11,-2.82,-0.11,-2.81,2.81,2.88,2.97,2.69,2.69,2.70
69.37,-0.11,-2.77,-0.11,-2.78,2.77,2.84,2.90,2.66,2.66,2.66
70.07,-0.11,-2.74,-0.11,-2.74,2.74,2.80,2.84,2.62,2.62,2.63
70.77,-0.11,-2.70,-0.11,-2.70,2.70,2.76,2.77,2.59,2.59,2.58
71.48,-0.11,-2.66,-0.11,-2.66,2.66,2.71,2.70,2.55,2.55,2.55
72.19,-0.11,-2.62,-0.11,-2.62,2.62,2.67,2.63,2.51,2.51,2.50
72.91,-0.11,-2.58,-0.11,-2.58,2.58,2.62,2.56,2.47,2.47,2.47
73.64,-0.11,-2.55,-0.11,-2.55,2.54,2.58,2.49,2.43,2.43,2.43
74.38,-0.11,-2.51,-0.11,-2.51,2.50,2.53,2.41,2.39,2.39,2.39
75.12,-0.11,-2.47,-0.11,-2.47,2.46,2.48,2.34,2.35,2.35,2.35
75.87,-0.11,-2.42,-0.11,-2.42,2.42,2.44,2.27,2.31,2.31,2.31
76.63,-0.11,-2.38,-0.11,-2.38,2.38,2.39,2.19,2.27,2.27,2.27
77.40,-0.11,-2.34,-0.11,-2.34,2.34,2.34,2.12,2.23,2.23,2.22
78.17,-0.11,-2.30,-0.11,-2.30,2.30,2.29,2.05,2.18,2.18,2.18
78.95,-0.11,-2.25,-0.11,-2.25,2.25,2.24,1.97,2.14,2.14,2.14
79.74,-0.11,-2.21,-0.11,-2.21,2.21,2.19,1.90,2.10,2.10,2.10
80.54,-0.11,-2.17,-0.11,-2.17,2.17,2.14,1.83,2.05,2.05,2.05
81.35,-0.11,-2.12,-0.11,-2.12,2.12,2.08,1.76,2.01,2.01,2.01
82.16,-0.11,-2.08,-0.11,-2.07,2.07,2.03,1.69,1.96,1.96,1.96
82.98,-0.11,-2.02,-0.11,-2.02,2.02,1.98,1.62,1.91,1.91,1.91
83.81,-0.11,-1.97,-0.11,-1.97,1.97,1.92,1.55,1.86,1.86,1.86
84.65,-0.11,-1.93,-0.11,-1.92,1.92,1.87,1.48,1.81,1.81,1.81
85.50,-0.11,-1.87,-0.11,-1.87,1.87,1.81,1.41,1.75,1.75,1.75
86.35,-0.11,-1.82,-0.11,-1.82,1.82,1.75,1.34,1.70,1.70,1.70
87.22,-0.11,-1.76,-0.11,-1.76,1.76,1.70,1.28,1.65,1.65,1.64
88.09,-0.11,-1.71,-0.11,-1.70,1.70,1.64,1.21,1.59,1.59,1.59
88.97,-0.11,-1.65,-0.11,-1.65,1.65,1.58,1.15,1.53,1.53,1.53
89.86,-0.11,-1.58,-0.11,-1.59,1.59,1.52,1.09,1.47,1.47,1.47
90.76,-0.11,-1.53,-0.11,-1.53,1.53,1.46,1.02,1.41,1.41,1.42
91.66,-0.11,-1.47,-0.11,-1.47,1.47,1.40,0.96,1.35,1.35,1.36
92.58,-0.11,-1.41,-0.11,-1.41,1.41,1.34,0.90,1.29,1.29,1.29
93.51,-0.11,-1.34,-0.11,-1.34,1.34,1.28,0.84,1.23,1.23,1.23
94.44,-0.11,-1.28,-0.11,-1.28,1.28,1.22,0.79,1.16,1.17,1.16
95.39,-0.11,-1.21,-0.11,-1.21,1.22,1.16,0.73,1.10,1.10,1.10
96.34,-0.11,-1.15,-0.12,-1.15,1.15,1.10,0.67,1.04,1.04,1.04
97.30,-0.12,-1.08,-0.12,-1.09,1.09,1.04,0.61,0.97,0.97,0.96
98.28,-0.13,-1.03,-0.13,-1.03,1.03,0.98,0.56,0.89,0.90,0.89
99.26,-0.14,-0.96,-0.15,-0.97,0.97,0.92,0.50,0.82,0.82,0.82
100.25,-0.16,-0.91,-0.16,-0.91,0.90,0.86,0.45,0.74,0.74,0.74
101.25,-0.18,-0.85,-0.18,-0.85,0.84,0.79,0.40,0.66,0.66,0.67
102.27,-0.19,-0.79,-0.19,-0.79,0.78,0.73,0.34,0.59,0.59,0.59
103.29,-0.20,-0.72,-0.21,-0.72,0.72,0.67,0.29,0.52,0.52,0.52
104.32,-0.22,-0.66,-0.22,-0.66,0.67,0.61,0.24,0.44,0.44,0.44
105.37,-0.24,-0.60,-0.25,-0.60,0.61,0.55,0.19,0.36,0.36,0.35
106.42,-0.27,-0.55,-0.27,-0.55,0.55,0.48,0.14,0.28,0.28,0.28
107.48,-0.29,-0.49,-0.30,-0.50,0.50,0.42,0.10,0.20,0.20,0.20
108.56,-0.32,-0.45,-0.32,-0.45,0.45,0.36,0.05,0.12,0.12,0.12
109.64,-0.34,-0.39,-0.35,-0.40,0.39,0.30,0.00,0.05,0.05,0.05
110.74,-0.36,-0.35,-0.37,-0.34,0.34,0.24,-0.04,-0.03,-0.03,-0.02
111.85,-0.38,-0.29,-0.38,-0.29,0.28,0.18,-0.09,-0.10,-0.10,-0.09
112.97,-0.38,-0.23,-0.39,-0.23,0.23,0.11,-0.13,-0.16,-0.16,-0.16
114.10,-0.39,-0.17,-0.39,-0.17,0.17,0.05,-0.17,-0.23,-0.23,-0.22
115.24,-0.39,-0.11,-0.40,-0.11,0.11,-0.01,-0.22,-0.29,-0.29,-0.29
116.39,-0.39,-0.04,-0.40,-0.04,0.04,-0.07,-0.26,-0.35,-0.35,-0.35
117.55,-0.39,0.01,-0.39,0.02,-0.02,-0.13,-0.30,-0.41,-0.41,-0.41
118.73,-0.38,0.09,-0.39,0.08,-0.08,-0.18,-0.33,-0.47,-0.47,-0.47
119.92,-0.38,0.14,-0.38,0.15,-0.15,-0.24,-0.37,-0.53,-0.53,-0.53
121.12,-0.37,0.21,-0.37,0.21,-0.21,-0.30,-0.41,-0.58,-0.58,-0.59
122.33,-0.36,0.28,-0.36,0.27,-0.27,-0.36,-0.44,-0.63,-0.63,-0.64
123.55,-0.35,0.33,-0.36,0.33,-0.33,-0.42,-0.48,-0.68,-0.69,-0.68
124.79,-0.34,0.39,-0.35,0.39,-0.39,-0.47,-0.51,-0.73,-0.74,-0.73
126.03,-0.34,0.45,-0.34,0.45,-0.45,-0.53,-0.54,-0.79,-0.78,-0.79
127.29,-0.32,0.51,-0.33,0.51,-0.50,-0.58,-0.57,-0.83,-0.84,-0.83
128.57,-0.32,0.56,-0.33,0.56,-0.56,-0.64,-0.60,-0.89,-0.89,-0.88
129.85,-0.32,0.61,-0.32,0.61,-0.62,-0.69,-0.63,-0.94,-0.93,-0.93
131.15,-0.31,0.67,-0.31,0.67,-0.67,-0.74,-0.66,-0.99,-0.98,-0.98
132.46,-0.28,0.74,-0.31,0.73,-0.73,-0.80,-0.68,-1.01,-1.03,-1.03
133.79,-0.30,0.78,-0.29,0.79,-0.78,-0.85,-0.71,-1.09,-1.08,-1.08
135.12,-0.30,0.83,-0.29,0.84,-0.84,-0.90,-0.74,-1.14,-1.13,-1.13
136.48,-0.26,0.91,-0.29,0.88,-0.89,-0.95,-0.76,-1.16,-1.19,-1.17
137.84,-0.29,0.93,-0.28,0.94,-0.95,-1.00,-0.79,-1.24,-1.23,-1.23
139.22,-0.29,0.98,-0.27,1.00,-1.00,-1.05,-0.81,-1.29,-1.27,-1.27
140.61,-0.25,1.07,-0.27,1.05,-1.05,-1.09,-0.83,-1.30,-1.32,-1.33
142.02,-0.26,1.11,-0.27,1.11,-1.10,-1.14,-0.86,-1.36,-1.37,-1.38
143.44,-0.28,1.14,-0.28,1.15,-1.14,-1.19,-0.88,-1.43,-1.42,-1.43
144.87,-0.29,1.17,-0.29,1.18,-1.19,-1.23,-0.91,-1.49,-1.48,-1.47
146.32,-0.29,1.22,-0.30,1.23,-1.24,-1.28,-0.93,-1.53,-1.53,-1.52
147.78,-0.29,1.28,-0.30,1.28,-1.28,-1.32,-0.95,-1.58,-1.58,-1.58
149.26,-0.29,1.33,-0.29,1.33,-1.33,-1.36,-0.98,-1.62,-1.62,-1.63
150.75,-0.29,1.38,-0.29,1.38,-1.37,-1.40,-1.00,-1.67,-1.67,-1.67
152.26,-0.29,1.42,-0.29,1.42,-1.42,-1.44,-1.03,-1.71,-1.71,-1.72
153.78,-0.29,1.46,-0.29,1.46,-1.46,-1.49,-1.05,-1.76,-1.76,-1.75
155.32,-0.29,1.50,-0.29,1.50,-1.51,-1.52,-1.08,-1.80,-1.80,-1.80
156.88,-0.29,1.55,-0.29,1.54,-1.55,-1.56,-1.11,-1.84,-1.84,-1.84
158.44,-0.29,1.58,-0.29,1.58,-1.59,-1.60,-1.14,-1.88,-1.88,-1.88
160.03,-0.29,1.62,-0.29,1.63,-1.63,-1.64,-1.16,-1.92,-1.92,-1.92
161.63,-0.29,1.67,-0.30,1.66,-1.66,-1.67,-1.19,-1.96,-1.96,-1.96
163.24,-0.29,1.71,-0.30,1.70,-1.70,-1.71,-1.22,-2.00,-2.00,-2.00
164.88,-0.30,1.74,-0.30,1.74,-1.74,-1.74,-1.26,-2.04,-2.04,-2.04
166.53,-0.30,1.77,-0.31,1.77,-1.77,-1.78,-1.29,-2.08,-2.08,-2.08
168.19,-0.31,1.80,-0.31,1.81,-1.81,-1.81,-1.32,-2.12,-2.12,-2.12
169.87,-0.31,1.84,-0.32,1.84,-1.84,-1.84,-1.36,-2.15,-2.15,-2.16
171.57,-0.32,1.87,-0.32,1.87,-1.87,-1.87,-1.39,-2.19,-2.19,-2.19
173.29,-0.33,1.89,-0.33,1.90,-1.89,-1.90,-1.43,-2.23,-2.23,-2.23
175.02,-0.33,1.93,-0.34,1.92,-1.92,-1.93,-1.47,-2.26,-2.26,-2.26
176.77,-0.34,1.94,-0.34,1.95,-1.95,-1.96,-1.51,-2.30,-2.29,-2.29
178.54,-0.34,1.98,-0.34,1.98,-1.98,-1.99,-1.55,-2.32,-2.32,-2.32
180.32,-0.33,2.01,-0.34,2.01,-2.01,-2.02,-1.59,-2.34,-2.35,-2.35
182.13,-0.33,2.03,-0.33,2.04,-2.04,-2.04,-1.64,-2.38,-2.37,-2.37
183.95,-0.32,2.07,-0.32,2.07,-2.07,-2.07,-1.68,-2.40,-2.40,-2.39
185.79,-0.31,2.11,-0.31,2.10,-2.11,-2.10,-1.73,-2.42,-2.42,-2.42
187.65,-0.29,2.14,-0.29,2.14,-2.14,-2.12,-1.77,-2.43,-2.43,-2.43
189.52,-0.27,2.18,-0.28,2.18,-2.17,-2.14,-1.82,-2.45,-2.45,-2.45
191.42,-0.26,2.21,-0.26,2.21,-2.20,-2.17,-1.87,-2.47,-2.47,-2.47
193.33,-0.25,2.24,-0.25,2.24,-2.24,-2.19,-1.92,-2.49,-2.49,-2.49
195.27,-0.23,2.26,-0.24,2.26,-2.27,-2.21,-1.97,-2.50,-2.50,-2.50
197.22,-0.22,2.29,-0.22,2.29,-2.29,-2.23,-2.02,-2.52,-2.52,-2.52
199.19,-0.21,2.32,-0.21,2.32,-2.32,-2.25,-2.07,-2.53,-2.53,-2.53
201.18,-0.20,2.35,-0.21,2.34,-2.34,-2.27,-2.13,-2.55,-2.55,-2.55
203.19,-0.20,2.36,-0.20,2.37,-2.36,-2.29,-2.18,-2.57,-2.56,-2.57
205.23,-0.19,2.39,-0.20,2.39,-2.38,-2.31,-2.23,-2.58,-2.58,-2.58
207.28,-0.19,2.40,-0.20,2.40,-2.40,-2.33,-2.29,-2.60,-2.60,-2.60
209.35,-0.20,2.42,-0.20,2.42,-2.42,-2.35,-2.34,-2.62,-2.62,-2.62
211.44,-0.20,2.43,-0.20,2.43,-2.43,-2.36,-2.39,-2.64,-2.64,-2.64
213.56,-0.20,2.45,-0.21,2.44,-2.45,-2.38,-2.45,-2.65,-2.66,-2.65
215.69,-0.21,2.46,-0.21,2.46,-2.46,-2.40,-2.50,-2.68,-2.67,-2.67
217.85,-0.21,2.47,-0.21,2.48,-2.47,-2.41,-2.55,-2.69,-2.69,-2.69
220.03,-0.21,2.49,-0.22,2.49,-2.49,-2.43,-2.60,-2.70,-2.70,-2.71
222.23,-0.21,2.51,-0.22,2.50,-2.50,-2.44,-2.65,-2.71,-2.72,-2.72
224.45,-0.22,2.51,-0.22,2.51,-2.51,-2.45,-2.69,-2.74,-2.73,-2.73
226.70,-0.21,2.53,-0.22,2.52,-2.53,-2.47,-2.74,-2.74,-2.75,-2.74
228.96,-0.21,2.54,-0.21,2.54,-2.54,-2.48,-2.78,-2.76,-2.76,-2.75
231.25,-0.20,2.55,-0.20,2.55,-2.56,-2.49,-2.82,-2.76,-2.76,-2.75
233.57,-0.19,2.57,-0.20,2.57,-2.57,-2.50,-2.86,-2.77,-2.77,-2.76
235.90,-0.18,2.58,-0.18,2.58,-2.58,-2.51,-2.89,-2.76,-2.76,-2.76
238.26,-0.17,2.60,-0.17,2.60,-2.58,-2.52,-2.92,-2.76,-2.75,-2.77
240.64,-0.15,2.61,-0.16,2.61,-2.59,-2.53,-2.95,-2.74,-2.75,-2.76
243.05,-0.14,2.62,-0.16,2.60,-2.59,-2.54,-2.97,-2.73,-2.75,-2.76
245.48,-0.18,2.57,-0.17,2.58,-2.59,-2.55,-2.99,-2.78,-2.77,-2.76
247.93,-0.19,2.56,-0.18,2.58,-2.59,-2.56,-3.00,-2.79,-2.77,-2.76
250.41,-0.17,2.58,-0.18,2.58,-2.59,-2.57,-3.02,-2.77,-2.77,-2.76
252.92,-0.15,2.60,-0.16,2.59,-2.60,-2.58,-3.02,-2.75,-2.76,-2.75
255.45,-0.14,2.61,-0.14,2.61,-2.61,-2.59,-3.03,-2.75,-2.75,-2.75
258.00,-0.13,2.62,-0.14,2.62,-2.62,-2.59,-3.03,-2.75,-2.75,-2.76
260.58,-0.13,2.63,-0.13,2.63,-2.63,-2.60,-3.02,-2.77,-2.77,-2.76
263.19,-0.13,2.64,-0.13,2.64,-2.64,-2.61,-3.02,-2.78,-2.78,-2.77
265.82,-0.13,2.65,-0.13,2.65,-2.65,-2.61,-3.01,-2.78,-2.78,-2.79
268.48,-0.13,2.66,-0.13,2.67,-2.65,-2.62,-2.99,-2.78,-2.78,-2.79
271.16,-0.13,2.67,-0.14,2.67,-2.64,-2.62,-2.98,-2.78,-2.78,-2.81
273.87,-0.14,2.68,-0.17,2.65,-2.64,-2.63,-2.96,-2.78,-2.80,-2.82
276.61,-0.21,2.62,-0.20,2.63,-2.64,-2.63,-2.94,-2.85,-2.84,-2.83
279.38,-0.24,2.59,-0.23,2.61,-2.64,-2.64,-2.91,-2.88,-2.87,-2.84
282.17,-0.24,2.61,-0.25,2.60,-2.64,-2.64,-2.89,-2.88,-2.88,-2.85
284.99,-0.23,2.62,-0.24,2.62,-2.64,-2.65,-2.86,-2.87,-2.87,-2.86
287.84,-0.22,2.64,-0.23,2.64,-2.63,-2.65,-2.83,-2.86,-2.86,-2.86
290.72,-0.21,2.66,-0.21,2.67,-2.63,-2.65,-2.81,-2.85,-2.84,-2.87
293.63,-0.20,2.67,-0.21,2.67,-2.64,-2.65,-2.78,-2.84,-2.85,-2.88
296.57,-0.19,2.69,-0.22,2.66,-2.64,-2.66,-2.75,-2.84,-2.87,-2.88
299.53,-0.26,2.61,-0.24,2.64,-2.65,-2.66,-2.72,-2.91,-2.89,-2.88
302.53,-0.26,2.62,-0.26,2.63,-2.65,-2.66,-2.69,-2.92,-2.91,-2.88
305.55,-0.25,2.64,-0.26,2.63,-2.65,-2.66,-2.66,-2.91,-2.91,-2.90
308.61,-0.24,2.65,-0.25,2.65,-2.65,-2.66,-2.63,-2.90,-2.90,-2.90
311.69,-0.24,2.66,-0.24,2.67,-2.66,-2.66,-2.60,-2.91,-2.90,-2.90
314.81,-0.23,2.68,-0.24,2.67,-2.67,-2.66,-2.58,-2.91,-2.91,-2.92
317.96,-0.23,2.68,-0.24,2.68,-2.69,-2.66,-2.55,-2.92,-2.92,-2.92
321.14,-0.23,2.69,-0.23,2.69,-2.70,-2.66,-2.53,-2.93,-2.93,-2.92
324.35,-0.23,2.70,-0.23,2.70,-2.70,-2.66,-2.50,-2.93,-2.93,-2.94
327.59,-0.23,2.71,-0.23,2.71,-2.70,-2.66,-2.48,-2.93,-2.93,-2.95
330.87,-0.23,2.72,-0.24,2.71,-2.69,-2.66,-2.46,-2.92,-2.93,-2.95
334.18,-0.24,2.71,-0.26,2.70,-2.68,-2.66,-2.44,-2.93,-2.94,-2.95
337.52,-0.29,2.66,-0.29,2.67,-2.67,-2.66,-2.43,-2.96,-2.96,-2.96
340.90,-0.33,2.63,-0.32,2.64,-2.66,-2.65,-2.41,-2.99,-2.98,-2.97
344.30,-0.34,2.63,-0.34,2.63,-2.65,-2.65,-2.40,-3.00,-2.99,-2.97
347.75,-0.34,2.63,-0.35,2.63,-2.65,-2.65,-2.39,-2.99,-3.00,-2.97
351.23,-0.34,2.64,-0.35,2.64,-2.65,-2.65,-2.38,-2.99,-2.99,-2.99
354.74,-0.34,2.64,-0.34,2.65,-2.65,-2.64,-2.37,-2.99,-2.99,-2.99
358.28,-0.33,2.66,-0.34,2.65,-2.65,-2.64,-2.36,-2.99,-2.99,-2.99
361.87,-0.33,2.66,-0.33,2.66,-2.65,-2.64,-2.36,-2.99,-2.98,-2.99
365.49,-0.32,2.67,-0.32,2.67,-2.65,-2.63,-2.36,-2.97,-2.97,-2.99
369.14,-0.31,2.68,-0.33,2.67,-2.64,-2.63,-2.36,-2.95,-2.96,-3.00
372.83,-0.35,2.64,-0.36,2.64,-2.62,-2.62,-2.36,-2.97,-2.97,-3.00
376.56,-0.39,2.60,-0.40,2.60,-2.60,-2.62,-2.36,-3.00,-3.00,-3.00
380.33,-0.46,2.55,-0.45,2.56,-2.59,-2.61,-2.37,-3.05,-3.04,-3.01
384.13,-0.48,2.53,-0.48,2.54,-2.57,-2.61,-2.37,-3.06,-3.05,-3.01
387.97,-0.48,2.54,-0.49,2.53,-2.56,-2.60,-2.38,-3.05,-3.05,-3.02
391.85,-0.48,2.55,-0.49,2.55,-2.56,-2.60,-2.39,-3.04,-3.05,-3.04
395.77,-0.48,2.56,-0.48,2.56,-2.56,-2.59,-2.40,-3.04,-3.04,-3.05
399.73,-0.48,2.57,-0.48,2.58,-2.56,-2.59,-2.41,-3.04,-3.03,-3.06
403.72,-0.48,2.59,-0.48,2.59,-2.56,-2.58,-2.43,-3.04,-3.04,-3.07
407.76,-0.48,2.61,-0.51,2.58,-2.56,-2.57,-2.44,-3.04,-3.07,-3.09
411.84,-0.55,2.55,-0.55,2.56,-2.56,-2.57,-2.46,-3.11,-3.10,-3.10
415.96,-0.59,2.52,-0.58,2.54,-2.55,-2.56,-2.47,-3.15,-3.13,-3.11
420.12,-0.59,2.53,-0.60,2.53,-2.55,-2.55,-2.49,-3.15,-3.15,-3.13
424.32,-0.58,2.54,-0.59,2.54,-2.55,-2.54,-2.51,-3.14,-3.14,-3.13
428.56,-0.57,2.55,-0.58,2.55,-2.55,-2.54,-2.52,-3.13,-3.13,-3.13
432.85,-0.56,2.55,-0.56,2.56,-2.56,-2.53,-2.54,-3.12,-3.11,-3.12
437.18,-0.53,2.56,-0.53,2.57,-2.56,-2.52,-2.56,-3.09,-3.09,-3.10
441.55,-0.49,2.59,-0.49,2.58,-2.57,-2.51,-2.57,-3.06,-3.06,-3.08
445.96,-0.45,2.60,-0.47,2.58,-2.58,-2.50,-2.59,-3.03,-3.04,-3.05
450.42,-0.43,2.58,-0.44,2.57,-2.58,-2.49,-2.60,-3.01,-3.02,-3.01
454.93,-0.43,2.54,-0.42,2.56,-2.57,-2.49,-2.62,-3.01,-2.99,-2.97
459.48,-0.38,2.54,-0.37,2.55,-2.56,-2.48,-2.63,-2.95,-2.94,-2.92
464.07,-0.31,2.57,-0.32,2.56,-2.54,-2.47,-2.64,-2.86,-2.87,-2.88
468.71,-0.26,2.57,-0.28,2.56,-2.52,-2.46,-2.65,-2.78,-2.80,-2.84
