frequency,raw,error,smoothed,error_smoothed,equalization,parametric_eq,fixed_band_eq,equalized_raw,equalized_smoothed,target
20.00,12.69,7.71,12.69,7.71,-7.71,-6.72,-3.32,4.98,4.98,4.98
20.20,12.68,7.71,12.67,7.70,-7.70,-6.72,-3.41,4.98,4.97,4.97
20.40,12.66,7.69,12.66,7.69,-7.69,-6.72,-3.51,4.96,4.96,4.97
20.61,12.65,7.69,12.65,7.69,-7.69,-6.72,-3.61,4.96,4.96,4.96
20.81,12.64,7.68,12.64,7.68,-7.68,-6.72,-3.71,4.95,4.95,4.96
21.02,12.63,7.67,12.63,7.68,-7.68,-6.72,-3.81,4.95,4.95,4.96
21.23,12.62,7.68,12.61,7.67,-7.68,-6.72,-3.92,4.94,4.94,4.94
21.44,12.59,7.67,12.59,7.67,-7.67,-6.72,-4.03,4.91,4.92,4.91
21.66,12.57,7.67,12.56,7.67,-7.67,-6.72,-4.14,4.90,4.89,4.90
21.87,12.54,7.67,12.54,7.67,-7.67,-6.72,-4.25,4.87,4.87,4.86
22.09,12.52,7.67,12.51,7.67,-7.67,-6.72,-4.37,4.85,4.84,4.84
22.31,12.49,7.66,12.48,7.67,-7.67,-6.72,-4.49,4.82,4.82,4.82
22.54,12.46,7.66,12.46,7.66,-7.67,-6.72,-4.62,4.79,4.79,4.79
22.76,12.43,7.66,12.42,7.66,-7.66,-6.72,-4.75,4.76,4.76,4.76
22.99,12.40,7.66,12.39,7.66,-7.66,-6.72,-4.88,4.74,4.73,4.73
23.22,12.36,7.65,12.36,7.66,-7.65,-6.72,-5.01,4.70,4.71,4.70
23.45,12.34,7.65,12.33,7.65,-7.65,-6.72,-5.15,4.69,4.68,4.68
23.69,12.30,7.64,12.30,7.64,-7.63,-6.72,-5.29,4.66,4.67,4.66
23.92,12.27,7.63,12.27,7.62,-7.62,-6.72,-5.43,4.65,4.65,4.64
24.16,12.24,7.61,12.23,7.60,-7.60,-6.72,-5.58,4.63,4.63,4.63
24.40,12.19,7.58,12.19,7.58,-7.58,-6.72,-5.73,4.60,4.61,4.61
24.65,12.15,7.56,12.15,7.56,-7.56,-6.72,-5.88,4.58,4.59,4.59
24.89,12.10,7.54,12.11,7.54,-7.54,-6.72,-6.03,4.57,4.57,4.57
25.14,12.07,7.52,12.06,7.52,-7.52,-6.72,-6.19,4.55,4.55,4.55
25.39,12.02,7.50,12.02,7.49,-7.49,-6.71,-6.35,4.53,4.53,4.53
25.65,11.98,7.46,11.98,7.47,-7.47,-6.71,-6.51,4.51,4.51,4.52
25.91,11.94,7.45,11.94,7.45,-7.45,-6.71,-6.66,4.49,4.49,4.49
26.16,11.90,7.42,11.89,7.42,-7.42,-6.71,-6.82,4.47,4.47,4.47
26.43,11.86,7.40,11.85,7.40,-7.39,-6.71,-6.98,4.46,4.46,4.45
26.69,11.81,7.36,11.81,7.37,-7.37,-6.71,-7.14,4.44,4.45,4.44
26.96,11.77,7.34,11.76,7.34,-7.34,-6.71,-7.30,4.43,4.43,4.42
27.23,11.72,7.30,11.71,7.30,-7.31,-6.71,-7.45,4.41,4.41,4.41
27.50,11.66,7.27,11.66,7.27,-7.27,-6.71,-7.61,4.38,4.39,4.39
27.77,11.61,7.24,11.61,7.24,-7.24,-6.71,-7.75,4.37,4.37,4.37
28.05,11.57,7.21,11.56,7.21,-7.20,-6.71,-7.90,4.36,4.35,4.36
28.33,11.51,7.18,11.51,7.17,-7.17,-6.71,-8.03,4.34,4.34,4.33
28.62,11.46,7.14,11.46,7.14,-7.13,-6.71,-8.17,4.32,4.32,4.32
28.90,11.41,7.09,11.41,7.10,-7.10,-6.71,-8.28,4.31,4.31,4.32
29.19,11.36,7.06,11.36,7.06,-7.07,-6.71,-8.40,4.29,4.30,4.29
29.48,11.33,7.03,11.32,7.03,-7.03,-6.70,-8.50,4.29,4.28,4.29
29.78,11.28,7.00,11.28,7.00,-7.00,-6.70,-8.60,4.27,4.27,4.27
30.08,11.24,6.97,11.23,6.97,-6.98,-6.70,-8.67,4.26,4.26,4.26
30.38,11.19,6.95,11.19,6.95,-6.95,-6.70,-8.74,4.24,4.24,4.24
30.68,11.16,6.94,11.15,6.93,-6.93,-6.70,-8.79,4.23,4.22,4.22
30.99,11.12,6.92,11.11,6.91,-6.91,-6.70,-8.84,4.21,4.20,4.20
31.30,11.07,6.88,11.07,6.89,-6.89,-6.70,-8.86,4.18,4.19,4.19
31.61,11.04,6.86,11.03,6.86,-6.87,-6.70,-8.88,4.17,4.16,4.17
31.93,11.00,6.85,10.99,6.85,-6.85,-6.69,-8.87,4.15,4.14,4.14
32.24,10.96,6.83,10.96,6.83,-6.83,-6.69,-8.86,4.12,4.12,4.12
32.57,10.93,6.83,10.92,6.82,-6.82,-6.69,-8.83,4.11,4.10,4.10
32.89,10.89,6.80,10.89,6.81,-6.81,-6.69,-8.80,4.08,4.08,4.09
33.22,10.86,6.80,10.86,6.79,-6.79,-6.69,-8.75,4.06,4.06,4.06
33.55,10.83,6.78,10.82,6.78,-6.78,-6.68,-8.69,4.04,4.04,4.04
33.89,10.79,6.77,10.79,6.77,-6.77,-6.68,-8.62,4.01,4.02,4.01
34.23,10.76,6.75,10.76,6.76,-6.76,-6.68,-8.54,4.00,4.00,4.00
34.57,10.73,6.76,10.72,6.75,-6.75,-6.68,-8.45,3.98,3.97,3.97
34.92,10.69,6.74,10.69,6.74,-6.74,-6.67,-8.36,3.95,3.95,3.95
35.27,10.66,6.72,10.65,6.73,-6.73,-6.67,-8.26,3.93,3.93,3.94
35.62,10.63,6.71,10.62,6.71,-6.72,-6.67,-8.16,3.91,3.91,3.91
35.97,10.59,6.71,10.59,6.70,-6.71,-6.66,-8.06,3.88,3.89,3.88
36.33,10.57,6.70,10.56,6.69,-6.69,-6.66,-7.95,3.87,3.86,3.87
36.70,10.52,6.67,10.52,6.68,-6.68,-6.66,-7.84,3.83,3.84,3.85
37.06,10.50,6.68,10.49,6.67,-6.67,-6.65,-7.74,3.83,3.82,3.81
37.43,10.46,6.66,10.45,6.66,-6.65,-6.65,-7.63,3.80,3.80,3.80
37.81,10.42,6.64,10.42,6.64,-6.64,-6.64,-7.52,3.78,3.78,3.78
38.19,10.39,6.63,10.38,6.62,-6.62,-6.64,-7.41,3.76,3.76,3.75
38.57,10.35,6.60,10.35,6.61,-6.61,-6.64,-7.31,3.74,3.74,3.74
38.95,10.31,6.59,10.31,6.59,-6.59,-6.63,-7.21,3.71,3.71,3.72
39.34,10.27,6.57,10.27,6.57,-6.58,-6.63,-7.11,3.69,3.69,3.69
39.74,10.23,6.56,10.23,6.56,-6.56,-6.62,-7.01,3.66,3.67,3.66
40.14,10.20,6.55,10.19,6.55,-6.55,-6.62,-6.92,3.65,3.65,3.65
40.54,10.16,6.53,10.16,6.53,-6.53,-6.61,-6.83,3.63,3.63,3.62
40.94,10.13,6.51,10.12,6.52,-6.51,-6.60,-6.75,3.61,3.61,3.61
41.35,10.09,6.50,10.09,6.50,-6.49,-6.60,-6.67,3.59,3.60,3.59
41.76,10.06,6.48,10.05,6.48,-6.48,-6.59,-6.59,3.58,3.58,3.57
42.18,10.02,6.46,10.01,6.46,-6.46,-6.58,-6.52,3.56,3.56,3.56
42.60,9.98,6.44,9.98,6.43,-6.44,-6.58,-6.45,3.53,3.53,3.53
43.03,9.94,6.41,9.94,6.41,-6.43,-6.57,-6.39,3.51,3.51,3.53
43.46,9.91,6.40,9.91,6.41,-6.41,-6.56,-6.33,3.49,3.49,3.51
43.90,9.88,6.41,9.87,6.40,-6.40,-6.55,-6.28,3.48,3.47,3.47
44.33,9.85,6.40,9.84,6.39,-6.39,-6.54,-6.23,3.46,3.45,3.45
44.78,9.81,6.38,9.81,6.38,-6.38,-6.54,-6.18,3.43,3.43,3.43
45.23,9.78,6.37,9.78,6.37,-6.37,-6.53,-6.14,3.41,3.41,3.40
45.68,9.75,6.36,9.74,6.36,-6.36,-6.52,-6.11,3.39,3.39,3.39
46.13,9.72,6.35,9.72,6.35,-6.34,-6.51,-6.08,3.37,3.37,3.36
46.60,9.69,6.33,9.69,6.33,-6.33,-6.50,-6.05,3.36,3.36,3.36
47.06,9.66,6.31,9.66,6.31,-6.32,-6.48,-6.03,3.34,3.34,3.34
47.53,9.63,6.30,9.63,6.30,-6.31,-6.47,-6.01,3.32,3.32,3.32
48.01,9.60,6.29,9.60,6.29,-6.30,-6.46,-5.99,3.30,3.30,3.31
48.49,9.57,6.28,9.57,6.28,-6.29,-6.45,-5.99,3.28,3.28,3.28
48.97,9.54,6.28,9.53,6.28,-6.28,-6.44,-5.98,3.26,3.25,3.25
49.46,9.51,6.28,9.50,6.28,-6.27,-6.42,-5.98,3.23,3.23,3.23
49.96,9.47,6.27,9.47,6.27,-6.27,-6.41,-5.98,3.20,3.21,3.20
50.46,9.45,6.26,9.44,6.26,-6.26,-6.40,-5.98,3.19,3.18,3.18
50.96,9.42,6.25,9.41,6.26,-6.25,-6.38,-5.99,3.16,3.16,3.16
51.47,9.39,6.25,9.39,6.25,-6.25,-6.37,-6.00,3.14,3.14,3.13
51.99,9.36,6.24,9.36,6.24,-6.24,-6.35,-6.01,3.12,3.12,3.12
52.51,9.34,6.23,9.33,6.23,-6.23,-6.34,-6.02,3.10,3.10,3.11
53.03,9.31,6.22,9.31,6.22,-6.23,-6.32,-6.04,3.08,3.08,3.09
53.56,9.28,6.22,9.28,6.22,-6.22,-6.30,-6.05,3.06,3.06,3.06
54.10,9.26,6.22,9.25,6.21,-6.21,-6.28,-6.07,3.04,3.04,3.04
54.64,9.22,6.20,9.22,6.21,-6.20,-6.27,-6.09,3.01,3.02,3.02
55.18,9.20,6.20,9.19,6.20,-6.20,-6.25,-6.11,3.00,3.00,3.00
55.74,9.17,6.19,9.16,6.19,-6.19,-6.23,-6.12,2.98,2.97,2.98
56.29,9.13,6.17,9.13,6.18,-6.18,-6.21,-6.14,2.95,2.95,2.95
56.86,9.10,6.16,9.10,6.17,-6.16,-6.19,-6.16,2.93,2.93,2.93
57.42,9.07,6.16,9.06,6.15,-6.15,-6.17,-6.17,2.92,2.92,2.91
58.00,9.04,6.14,9.03,6.14,-6.13,-6.15,-6.18,2.90,2.90,2.90
58.58,9.00,6.11,9.00,6.12,-6.12,-6.13,-6.19,2.88,2.88,2.88
59.16,8.97,6.09,8.96,6.10,-6.10,-6.11,-6.20,2.87,2.86,2.87
59.76,8.93,6.08,8.93,6.08,-6.08,-6.09,-6.20,2.84,2.84,2.85
60.35,8.89,6.06,8.89,6.06,-6.07,-6.06,-6.20,2.82,2.82,2.82
60.96,8.85,6.04,8.85,6.05,-6.05,-6.04,-6.19,2.80,2.80,2.81
61.57,8.81,6.03,8.81,6.03,-6.03,-6.02,-6.19,2.77,2.78,2.77
62.18,8.78,6.03,8.77,6.02,-6.01,-6.00,-6.17,2.76,2.76,2.75
62.80,8.73,5.99,8.73,6.00,-5.99,-5.98,-6.16,2.73,2.73,2.73
63.43,8.69,5.98,8.68,5.98,-5.97,-5.95,-6.14,2.71,2.71,2.70
64.07,8.64,5.95,8.64,5.95,-5.95,-5.93,-6.11,2.69,2.69,2.69
64.71,8.60,5.93,8.59,5.92,-5.92,-5.91,-6.09,2.67,2.67,2.67
65.35,8.55,5.89,8.54,5.89,-5.90,-5.88,-6.05,2.65,2.65,2.65
66.01,8.50,5.86,8.50,5.87,-5.87,-5.86,-6.02,2.63,2.63,2.63
66.67,8.46,5.84,8.45,5.84,-5.84,-5.84,-5.98,2.61,2.61,2.61
67.33,8.42,5.82,8.41,5.82,-5.82,-5.82,-5.94,2.60,2.60,2.59
68.01,8.37,5.79,8.37,5.79,-5.79,-5.80,-5.89,2.57,2.58,2.57
68.69,8.33,5.77,8.32,5.77,-5.77,-5.77,-5.84,2.56,2.55,2.55
69.37,8.28,5.74,8.28,5.74,-5.75,-5.75,-5.79,2.53,2.53,2.53
70.07,8.24,5.72,8.24,5.72,-5.72,-5.73,-5.74,2.51,2.51,2.51
70.77,8.20,5.70,8.19,5.70,-5.70,-5.71,-5.69,2.49,2.49,2.50
71.48,8.16,5.68,8.15,5.68,-5.68,-5.69,-5.64,2.48,2.47,2.48
72.19,8.11,5.65,8.11,5.66,-5.66,-5.67,-5.59,2.45,2.45,2.45
72.91,8.07,5.65,8.06,5.64,-5.64,-5.65,-5.53,2.43,2.43,2.42
73.64,8.02,5.62,8.01,5.62,-5.61,-5.63,-5.48,2.40,2.40,2.39
74.38,7.97,5.59,7.97,5.60,-5.59,-5.62,-5.43,2.37,2.38,2.38
75.12,7.93,5.57,7.92,5.57,-5.57,-5.60,-5.38,2.35,2.35,2.35
75.87,7.89,5.56,7.88,5.55,-5.55,-5.58,-5.33,2.33,2.33,2.33
76.63,7.84,5.53,7.84,5.53,-5.53,-5.57,-5.28,2.30,2.30,2.31
77.40,7.80,5.51,7.80,5.52,-5.52,-5.55,-5.24,2.28,2.28,2.28
78.17,7.76,5.51,7.75,5.50,-5.50,-5.53,-5.19,2.26,2.26,2.24
78.95,7.72,5.49,7.71,5.48,-5.48,-5.52,-5.15,2.23,2.23,2.23
79.74,7.67,5.46,7.67,5.47,-5.47,-5.51,-5.12,2.20,2.20,2.21
80.54,7.63,5.45,7.63,5.45,-5.46,-5.49,-5.08,2.17,2.17,2.18
81.35,7.60,5.45,7.59,5.44,-5.44,-5.48,-5.05,2.15,2.15,2.15
82.16,7.56,5.44,7.56,5.44,-5.43,-5.47,-5.02,2.12,2.12,2.12
82.98,7.52,5.42,7.52,5.43,-5.42,-5.45,-4.99,2.09,2.09,2.10
83.81,7.48,5.42,7.47,5.42,-5.42,-5.44,-4.97,2.06,2.06,2.05
84.65,7.43,5.40,7.43,5.41,-5.41,-5.43,-4.95,2.02,2.03,2.02
85.50,7.40,5.40,7.39,5.40,-5.40,-5.42,-4.94,2.00,1.99,2.00
86.35,7.36,5.39,7.36,5.39,-5.39,-5.41,-4.93,1.97,1.97,1.97
87.22,7.32,5.38,7.32,5.39,-5.38,-5.40,-4.92,1.93,1.94,1.93
88.09,7.29,5.39,7.28,5.38,-5.37,-5.39,-4.91,1.91,1.90,1.90
88.97,7.24,5.36,7.24,5.37,-5.37,-5.38,-4.91,1.87,1.87,1.87
89.86,7.20,5.35,7.20,5.36,-5.36,-5.38,-4.92,1.84,1.84,1.85
90.76,7.17,5.36,7.16,5.35,-5.35,-5.37,-4.92,1.81,1.81,1.80
91.66,7.13,5.35,7.12,5.35,-5.35,-5.36,-4.93,1.78,1.78,1.78
92.58,7.09,5.35,7.09,5.35,-5.34,-5.36,-4.95,1.74,1.74,1.73
93.51,7.05,5.33,7.05,5.34,-5.34,-5.35,-4.96,1.71,1.71,1.72
94.44,7.02,5.34,7.01,5.34,-5.34,-5.35,-4.99,1.68,1.67,1.68
95.39,6.98,5.33,6.97,5.33,-5.34,-5.35,-5.01,1.64,1.64,1.64
96.34,6.94,5.34,6.94,5.34,-5.34,-5.34,-5.04,1.60,1.60,1.59
97.30,6.90,5.34,6.90,5.34,-5.34,-5.34,-5.07,1.56,1.56,1.56
98.28,6.87,5.35,6.86,5.34,-5.34,-5.34,-5.10,1.52,1.52,1.52
99.26,6.83,5.34,6.83,5.35,-5.35,-5.34,-5.13,1.48,1.48,1.48
100.25,6.80,5.35,6.79,5.35,-5.35,-5.35,-5.17,1.44,1.44,1.44
101.25,6.76,5.35,6.76,5.35,-5.36,-5.35,-5.21,1.40,1.40,1.41
102.27,6.73,5.36,6.72,5.36,-5.36,-5.36,-5.25,1.36,1.36,1.37
103.29,6.69,5.38,6.69,5.37,-5.37,-5.36,-5.30,1.32,1.32,1.31
104.32,6.66,5.37,6.66,5.38,-5.38,-5.37,-5.34,1.28,1.28,1.28
105.37,6.63,5.39,6.62,5.39,-5.38,-5.38,-5.39,1.24,1.24,1.23
106.42,6.59,5.39,6.59,5.39,-5.39,-5.39,-5.44,1.19,1.19,1.19
107.48,6.55,5.39,6.55,5.40,-5.40,-5.41,-5.48,1.14,1.15,1.16
108.56,6.52,5.42,6.52,5.41,-5.42,-5.42,-5.53,1.10,1.10,1.10
109.64,6.49,5.43,6.48,5.42,-5.43,-5.44,-5.58,1.06,1.06,1.06
110.74,6.46,5.44,6.46,5.45,-5.44,-5.45,-5.62,1.01,1.01,1.01
111.85,6.43,5.45,6.42,5.46,-5.46,-5.47,-5.66,0.97,0.96,0.97
112.97,6.40,5.49,6.39,5.48,-5.48,-5.49,-5.70,0.92,0.92,0.91
114.10,6.36,5.49,6.36,5.50,-5.49,-5.51,-5.74,0.86,0.87,0.87
115.24,6.34,5.51,6.33,5.51,-5.51,-5.52,-5.78,0.83,0.82,0.82
116.39,6.31,5.53,6.30,5.53,-5.53,-5.54,-5.81,0.78,0.78,0.77
117.55,6.27,5.54,6.27,5.54,-5.54,-5.56,-5.84,0.72,0.73,0.73
118.73,6.24,5.55,6.24,5.55,-5.55,-5.57,-5.86,0.68,0.68,0.68
119.92,6.21,5.56,6.21,5.56,-5.57,-5.59,-5.88,0.64,0.64,0.64
121.12,6.18,5.58,6.18,5.58,-5.58,-5.60,-5.90,0.60,0.60,0.60
122.33,6.16,5.60,6.15,5.59,-5.59,-5.60,-5.90,0.56,0.56,0.55
123.55,6.13,5.61,6.13,5.61,-5.60,-5.61,-5.91,0.52,0.52,0.52
124.79,6.10,5.61,6.10,5.62,-5.62,-5.61,-5.91,0.48,0.48,0.48
126.03,6.07,5.63,6.06,5.62,-5.63,-5.61,-5.90,0.43,0.43,0.44
127.29,6.04,5.64,6.04,5.64,-5.64,-5.61,-5.89,0.39,0.39,0.40
128.57,6.01,5.65,6.01,5.66,-5.66,-5.61,-5.87,0.35,0.35,0.35
129.85,5.99,5.68,5.98,5.67,-5.67,-5.60,-5.85,0.32,0.31,0.31
131.15,5.96,5.68,5.96,5.68,-5.68,-5.59,-5.82,0.28,0.28,0.28
132.46,5.93,5.68,5.93,5.69,-5.68,-5.59,-5.78,0.24,0.25,0.25
133.79,5.91,5.69,5.90,5.69,-5.69,-5.58,-5.75,0.22,0.21,0.21
135.12,5.88,5.70,5.87,5.69,-5.69,-5.57,-5.70,0.18,0.18,0.17
136.48,5.84,5.68,5.84,5.69,-5.69,-5.56,-5.66,0.14,0.15,0.15
137.84,5.81,5.68,5.81,5.69,-5.69,-5.56,-5.61,0.11,0.12,0.12
139.22,5.79,5.69,5.78,5.69,-5.69,-5.55,-5.56,0.10,0.09,0.09
140.61,5.76,5.69,5.76,5.68,-5.68,-5.55,-5.51,0.08,0.07,0.07
142.02,5.73,5.67,5.73,5.68,-5.67,-5.54,-5.45,0.05,0.05,0.06
143.44,5.70,5.67,5.70,5.67,-5.66,-5.54,-5.39,0.03,0.03,0.03
144.87,5.67,5.65,5.67,5.65,-5.66,-5.54,-5.34,0.01,0.01,0.01
146.32,5.65,5.65,5.64,5.64,-5.65,-5.55,-5.28,-0.00,-0.01,-0.00
147.78,5.61,5.63,5.61,5.63,-5.64,-5.55,-5.22,-0.03,-0.02,-0.02
149.26,5.59,5.62,5.58,5.62,-5.62,-5.56,-5.16,-0.04,-0.04,-0.04
150.75,5.55,5.62,5.55,5.61,-5.61,-5.56,-5.11,-0.07,-0.06,-0.07
152.26,5.53,5.61,5.52,5.61,-5.60,-5.57,-5.05,-0.08,-0.08,-0.08
153.78,5.50,5.59,5.49,5.60,-5.59,-5.58,-5.00,-0.10,-0.10,-0.10
155.32,5.47,5.59,5.47,5.58,-5.58,-5.59,-4.95,-0.12,-0.12,-0.12
156.88,5.44,5.57,5.44,5.57,-5.58,-5.61,-4.89,-0.14,-0.14,-0.13
158.44,5.41,5.56,5.41,5.56,-5.57,-5.62,-4.85,-0.16,-0.16,-0.16
160.03,5.39,5.56,5.38,5.56,-5.56,-5.63,-4.80,-0.18,-0.18,-0.18
161.63,5.36,5.56,5.36,5.56,-5.56,-5.65,-4.76,-0.20,-0.20,-0.21
163.24,5.34,5.56,5.34,5.56,-5.56,-5.67,-4.72,-0.22,-0.22,-0.23
164.88,5.32,5.55,5.32,5.56,-5.55,-5.68,-4.68,-0.24,-0.24,-0.24
166.53,5.30,5.55,5.30,5.55,-5.55,-5.70,-4.65,-0.26,-0.26,-0.26
168.19,5.28,5.56,5.27,5.55,-5.55,-5.71,-4.62,-0.28,-0.28,-0.29
169.87,5.25,5.55,5.25,5.55,-5.55,-5.73,-4.59,-0.31,-0.30,-0.30
171.57,5.23,5.56,5.22,5.55,-5.55,-5.74,-4.57,-0.33,-0.33,-0.33
173.29,5.20,5.54,5.20,5.55,-5.56,-5.75,-4.55,-0.36,-0.36,-0.35
175.02,5.18,5.55,5.17,5.55,-5.56,-5.76,-4.53,-0.38,-0.38,-0.38
176.77,5.15,5.56,5.15,5.56,-5.56,-5.77,-4.52,-0.41,-0.41,-0.41
178.54,5.13,5.57,5.12,5.56,-5.56,-5.78,-4.51,-0.43,-0.44,-0.45
180.32,5.10,5.57,5.09,5.56,-5.56,-5.79,-4.50,-0.47,-0.47,-0.47
182.13,5.06,5.55,5.06,5.56,-5.56,-5.79,-4.50,-0.51,-0.50,-0.50
183.95,5.02,5.56,5.02,5.56,-5.56,-5.79,-4.50,-0.54,-0.54,-0.54
185.79,5.00,5.56,4.99,5.55,-5.56,-5.79,-4.50,-0.56,-0.57,-0.57
187.65,4.96,5.55,4.95,5.55,-5.55,-5.79,-4.51,-0.59,-0.60,-0.60
189.52,4.91,5.53,4.92,5.54,-5.54,-5.78,-4.52,-0.63,-0.62,-0.62
191.42,4.88,5.53,4.87,5.53,-5.53,-5.77,-4.53,-0.65,-0.65,-0.65
193.33,4.84,5.51,4.83,5.51,-5.51,-5.76,-4.54,-0.68,-0.68,-0.68
195.27,4.79,5.49,4.79,5.50,-5.49,-5.75,-4.56,-0.71,-0.71,-0.71
197.22,4.74,5.47,4.74,5.48,-5.47,-5.72,-4.58,-0.74,-0.73,-0.73
199.19,4.70,5.47,4.69,5.45,-5.45,-5.70,-4.61,-0.76,-0.76,-0.77
201.18,4.65,5.43,4.64,5.43,-5.43,-5.67,-4.63,-0.78,-0.79,-0.78
203.19,4.59,5.39,4.59,5.40,-5.40,-5.65,-4.66,-0.81,-0.81,-0.80
205.23,4.54,5.37,4.54,5.36,-5.37,-5.61,-4.68,-0.83,-0.83,-0.83
207.28,4.50,5.33,4.49,5.33,-5.34,-5.57,-4.71,-0.84,-0.85,-0.83
209.35,4.44,5.30,4.44,5.30,-5.30,-5.53,-4.74,-0.86,-0.86,-0.86
211.44,4.39,5.28,4.38,5.27,-5.26,-5.48,-4.77,-0.88,-0.88,-0.89
213.56,4.33,5.23,4.32,5.22,-5.22,-5.43,-4.80,-0.90,-0.90,-0.90
215.69,4.27,5.16,4.27,5.17,-5.18,-5.38,-4.83,-0.91,-0.91,-0.90
217.85,4.21,5.12,4.21,5.13,-5.13,-5.32,-4.85,-0.92,-0.92,-0.92
220.03,4.16,5.08,4.15,5.08,-5.08,-5.26,-4.88,-0.92,-0.92,-0.93
222.23,4.10,5.03,4.10,5.02,-5.02,-5.20,-4.90,-0.92,-0.92,-0.93
224.45,4.04,4.96,4.04,4.96,-4.96,-5.13,-4.92,-0.92,-0.92,-0.92
226.70,3.98,4.89,3.98,4.89,-4.89,-5.06,-4.93,-0.92,-0.92,-0.92
228.96,3.92,4.83,3.91,4.82,-4.83,-4.98,-4.95,-0.91,-0.92,-0.91
231.25,3.85,4.75,3.85,4.75,-4.76,-4.90,-4.95,-0.91,-0.91,-0.90
233.57,3.79,4.68,3.79,4.68,-4.69,-4.82,-4.96,-0.90,-0.90,-0.90
235.90,3.73,4.61,3.72,4.61,-4.61,-4.74,-4.95,-0.89,-0.89,-0.88
238.26,3.67,4.55,3.67,4.54,-4.54,-4.65,-4.94,-0.87,-0.87,-0.88
240.64,3.61,4.46,3.61,4.46,-4.46,-4.56,-4.92,-0.85,-0.85,-0.86
243.05,3.55,4.39,3.54,4.38,-4.38,-4.47,-4.90,-0.83,-0.84,-0.84
245.48,3.48,4.29,3.48,4.30,-4.30,-4.38,-4.87,-0.82,-0.82,-0.82
247.93,3.42,4.21,3.42,4.22,-4.22,-4.28,-4.83,-0.80,-0.80,-0.79
250.41,3.36,4.14,3.35,4.13,-4.13,-4.18,-4.78,-0.77,-0.78,-0.79
252.92,3.29,4.04,3.29,4.04,-4.04,-4.08,-4.73,-0.76,-0.76,-0.75
255.45,3.22,3.94,3.22,3.95,-3.95,-3.98,-4.67,-0.74,-0.73,-0.73
258.00,3.16,3.87,3.15,3.86,-3.86,-3.88,-4.60,-0.71,-0.71,-0.71
260.58,3.09,3.77,3.09,3.77,-3.77,-3.77,-4.52,-0.68,-0.68,-0.69
263.19,3.02,3.68,3.02,3.68,-3.68,-3.67,-4.44,-0.66,-0.66,-0.66
265.82,2.95,3.59,2.95,3.58,-3.58,-3.56,-4.35,-0.64,-0.64,-0.64
268.48,2.88,3.48,2.88,3.49,-3.49,-3.45,-4.25,-0.61,-0.61,-0.61
271.16,2.81,3.39,2.80,3.39,-3.39,-3.34,-4.14,-0.59,-0.59,-0.58
273.87,2.73,3.29,2.73,3.29,-3.30,-3.23,-4.03,-0.57,-0.57,-0.57
276.61,2.66,3.19,2.66,3.20,-3.20,-3.12,-3.92,-0.54,-0.54,-0.54
279.38,2.59,3.11,2.58,3.10,-3.10,-3.01,-3.80,-0.51,-0.51,-0.52
282.17,2.51,3.00,2.50,3.00,-3.00,-2.89,-3.67,-0.49,-0.49,-0.50
284.99,2.43,2.89,2.42,2.89,-2.89,-2.78,-3.54,-0.47,-0.47,-0.47
287.84,2.34,2.78,2.34,2.78,-2.79,-2.67,-3.41,-0.45,-0.44,-0.44
290.72,2.27,2.68,2.26,2.68,-2.68,-2.55,-3.27,-0.41,-0.42,-0.41
293.63,2.18,2.56,2.18,2.56,-2.57,-2.44,-3.14,-0.39,-0.39,-0.39
296.57,2.10,2.46,2.09,2.46,-2.45,-2.32,-3.00,-0.36,-0.36,-0.36
299.53,2.01,2.34,2.00,2.34,-2.34,-2.21,-2.85,-0.33,-0.33,-0.33
302.53,1.92,2.23,1.92,2.22,-2.22,-2.09,-2.71,-0.30,-0.30,-0.32
305.55,1.83,2.09,1.83,2.10,-2.10,-1.97,-2.56,-0.27,-0.27,-0.27
308.61,1.75,1.99,1.74,1.98,-1.98,-1.86,-2.42,-0.23,-0.23,-0.24
311.69,1.66,1.86,1.65,1.85,-1.85,-1.74,-2.27,-0.20,-0.20,-0.20
314.81,1.57,1.72,1.57,1.73,-1.73,-1.62,-2.12,-0.17,-0.17,-0.15
317.96,1.48,1.61,1.48,1.61,-1.61,-1.50,-1.97,-0.14,-0.14,-0.14
321.14,1.40,1.50,1.39,1.50,-1.50,-1.38,-1.82,-0.11,-0.11,-0.11
324.35,1.31,1.39,1.31,1.39,-1.39,-1.26,-1.67,-0.09,-0.08,-0.08
327.59,1.24,1.29,1.23,1.29,-1.29,-1.14,-1.53,-0.06,-0.06,-0.05
330.87,1.17,1.19,1.16,1.19,-1.20,-1.02,-1.38,-0.04,-0.04,-0.02
334.18,1.10,1.10,1.10,1.11,-1.12,-0.91,-1.23,-0.02,-0.02,-0.01
337.52,1.05,1.03,1.04,1.03,-1.04,-0.78,-1.08,0.00,0.00,0.01
340.90,1.00,0.96,0.99,0.96,-0.97,-0.66,-0.93,0.02,0.02,0.04
344.30,0.95,0.89,0.95,0.89,-0.90,-0.54,-0.78,0.05,0.05,0.06
347.75,0.90,0.82,0.91,0.83,-0.82,-0.42,-0.63,0.08,0.09,0.08
351.23,0.86,0.76,0.85,0.76,-0.73,-0.30,-0.49,0.12,0.12,0.10
354.74,0.80,0.68,0.78,0.66,-0.63,-0.18,-0.34,0.17,0.15,0.11
358.28,0.67,0.53,0.67,0.54,-0.52,-0.06,-0.19,0.15,0.16,0.13
361.87,0.54,0.38,0.54,0.39,-0.38,0.07,-0.04,0.15,0.16,0.15
365.49,0.40,0.23,0.39,0.23,-0.24,0.19,0.10,0.16,0.16,0.17
369.14,0.25,0.07,0.25,0.07,-0.07,0.31,0.25,0.17,0.18,0.18
372.83,0.10,-0.10,0.09,-0.10,0.10,0.44,0.40,0.20,0.19,0.20
376.56,-0.06,-0.27,-0.07,-0.28,0.29,0.56,0.54,0.22,0.22,0.21
380.33,-0.24,-0.48,-0.24,-0.47,0.48,0.68,0.69,0.23,0.24,0.24
384.13,-0.41,-0.67,-0.42,-0.67,0.67,0.81,0.83,0.25,0.25,0.25
387.97,-0.59,-0.87,-0.60,-0.87,0.87,0.93,0.98,0.27,0.27,0.27
391.85,-0.77,-1.06,-0.77,-1.06,1.06,1.05,1.12,0.29,0.29,0.28
395.77,-0.95,-1.27,-0.95,-1.26,1.26,1.17,1.26,0.31,0.31,0.31
399.73,-1.12,-1.46,-1.13,-1.46,1.45,1.30,1.41,0.33,0.33,0.33
403.72,-1.29,-1.64,-1.30,-1.65,1.64,1.42,1.55,0.35,0.35,0.35
407.76,-1.46,-1.83,-1.46,-1.83,1.83,1.54,1.69,0.36,0.37,0.37
411.84,-1.61,-2.01,-1.61,-2.01,2.01,1.66,1.83,0.39,0.39,0.40
415.96,-1.75,-2.17,-1.76,-2.18,2.18,1.77,1.96,0.42,0.42,0.42
420.12,-1.89,-2.33,-1.89,-2.33,2.34,1.89,2.10,0.44,0.44,0.44
424.32,-2.02,-2.48,-2.03,-2.48,2.49,2.01,2.23,0.46,0.46,0.46
428.56,-2.14,-2.62,-2.15,-2.62,2.62,2.12,2.36,0.48,0.48,0.48
432.85,-2.25,-2.75,-2.25,-2.75,2.74,2.23,2.49,0.49,0.50,0.49
437.18,-2.33,-2.86,-2.34,-2.86,2.85,2.34,2.61,0.51,0.51,0.52
441.55,-2.40,-2.96,-2.41,-2.95,2.93,2.45,2.73,0.53,0.53,0.55
445.96,-2.46,-3.04,-2.45,-3.02,3.00,2.55,2.85,0.54,0.55,0.57
450.42,-2.46,-3.06,-2.47,-3.07,3.06,2.65,2.96,0.59,0.59,0.59
454.93,-2.47,-3.11,-2.47,-3.10,3.10,2.74,3.06,0.63,0.63,0.63
459.48,-2.46,-3.12,-2.47,-3.12,3.14,2.84,3.16,0.67,0.67,0.65
464.07,-2.46,-3.15,-2.47,-3.15,3.16,2.92,3.26,0.70,0.70,0.68
468.71,-2.46,-3.17,-2.46,-3.17,3.19,3.01,3.34,0.72,0.73,0.71
473.40,-2.46,-3.20,-2.47,-3.21,3.21,3.08,3.42,0.75,0.75,0.74
478.13,-2.46,-3.23,-2.47,-3.23,3.24,3.16,3.49,0.77,0.77,0.77
482.91,-2.47,-3.26,-2.47,-3.26,3.26,3.22,3.56,0.79,0.79,0.79
487.74,-2.46,-3.28,-2.46,-3.28,3.28,3.29,3.61,0.82,0.82,0.82
492.62,-2.45,-3.30,-2.46,-3.31,3.30,3.34,3.66,0.85,0.84,0.85
497.55,-2.44,-3.32,-2.45,-3.32,3.32,3.39,3.70,0.87,0.87,0.88
502.52,-2.43,-3.34,-2.43,-3.33,3.32,3.44,3.73,0.89,0.89,0.91
507.55,-2.40,-3.33,-2.40,-3.33,3.33,3.47,3.75,0.92,0.92,0.93
