frequency,raw,error,smoothed,error_smoothed,equalization,parametric_eq,fixed_band_eq,equalized_raw,equalized_smoothed,target
20.00,10.47,3.98,10.47,3.98,-3.98,-3.95,-2.06,6.49,6.49,6.49
20.20,10.47,3.98,10.46,3.97,-3.97,-3.95,-2.12,6.50,6.49,6.49
20.40,10.47,3.97,10.46,3.96,-3.96,-3.96,-2.18,6.50,6.50,6.50
20.61,10.47,3.96,10.47,3.96,-3.96,-3.96,-2.24,6.51,6.51,6.51
20.81,10.47,3.96,10.47,3.96,-3.96,-3.96,-2.30,6.51,6.51,6.51
21.02,10.48,3.96,10.48,3.96,-3.96,-3.96,-2.37,6.52,6.52,6.52
21.23,10.49,3.97,10.48,3.96,-3.96,-3.96,-2.44,6.53,6.52,6.52
21.44,10.50,3.97,10.50,3.97,-3.97,-3.97,-2.51,6.53,6.53,6.53
21.66,10.51,3.97,10.51,3.97,-3.97,-3.97,-2.58,6.53,6.54,6.54
21.87,10.53,3.99,10.53,3.98,-3.98,-3.97,-2.66,6.54,6.54,6.54
22.09,10.55,4.00,10.54,4.00,-4.00,-3.97,-2.73,6.55,6.55,6.55
22.31,10.57,4.01,10.56,4.01,-4.01,-3.98,-2.81,6.55,6.55,6.56
22.54,10.59,4.03,10.59,4.03,-4.03,-3.98,-2.89,6.55,6.56,6.56
22.76,10.62,4.05,10.62,4.05,-4.06,-3.98,-2.98,6.56,6.56,6.57
22.99,10.66,4.08,10.65,4.08,-4.08,-3.98,-3.06,6.57,6.57,6.58
23.22,10.70,4.11,10.69,4.11,-4.11,-3.99,-3.15,6.58,6.58,6.59
23.45,10.74,4.14,10.74,4.14,-4.15,-3.99,-3.23,6.59,6.59,6.60
23.69,10.79,4.18,10.79,4.18,-4.18,-3.99,-3.33,6.61,6.61,6.60
23.92,10.84,4.22,10.83,4.22,-4.21,-4.00,-3.42,6.63,6.62,6.61
24.16,10.88,4.25,10.87,4.25,-4.24,-4.00,-3.51,6.64,6.64,6.62
24.40,10.91,4.27,10.91,4.27,-4.27,-4.00,-3.61,6.64,6.64,6.63
24.65,10.95,4.29,10.94,4.29,-4.29,-4.00,-3.70,6.65,6.65,6.65
24.89,10.98,4.31,10.98,4.31,-4.32,-4.01,-3.80,6.66,6.66,6.66
25.14,11.01,4.34,11.01,4.34,-4.34,-4.01,-3.90,6.66,6.67,6.67
25.39,11.05,4.37,11.05,4.36,-4.37,-4.01,-4.00,6.68,6.67,6.68
25.65,11.09,4.40,11.08,4.39,-4.40,-4.02,-4.10,6.69,6.68,6.69
25.91,11.13,4.42,11.13,4.42,-4.43,-4.02,-4.20,6.69,6.70,6.71
26.16,11.18,4.46,11.18,4.46,-4.46,-4.02,-4.30,6.72,6.71,6.72
26.43,11.23,4.50,11.22,4.49,-4.49,-4.03,-4.40,6.74,6.73,6.73
26.69,11.27,4.53,11.27,4.53,-4.52,-4.03,-4.50,6.75,6.75,6.74
26.96,11.31,4.55,11.30,4.55,-4.54,-4.03,-4.59,6.77,6.76,6.76
27.23,11.34,4.57,11.33,4.57,-4.56,-4.04,-4.69,6.78,6.77,6.77
27.50,11.36,4.57,11.36,4.57,-4.58,-4.04,-4.78,6.78,6.78,6.78
27.77,11.38,4.58,11.38,4.58,-4.59,-4.04,-4.87,6.79,6.79,6.79
28.05,11.40,4.58,11.40,4.59,-4.60,-4.05,-4.96,6.80,6.80,6.81
28.33,11.43,4.60,11.42,4.60,-4.60,-4.05,-5.04,6.82,6.82,6.82
28.62,11.45,4.61,11.44,4.60,-4.60,-4.05,-5.12,6.84,6.84,6.84
28.90,11.46,4.61,11.46,4.61,-4.60,-4.06,-5.19,6.85,6.86,6.85
29.19,11.47,4.60,11.47,4.60,-4.60,-4.06,-5.26,6.87,6.87,6.87
29.48,11.48,4.60,11.47,4.59,-4.59,-4.06,-5.32,6.89,6.89,6.88
29.78,11.48,4.58,11.47,4.58,-4.57,-4.07,-5.37,6.90,6.90,6.90
30.08,11.47,4.56,11.47,4.56,-4.56,-4.07,-5.42,6.91,6.91,6.91
30.38,11.46,4.53,11.46,4.53,-4.54,-4.08,-5.46,6.92,6.92,6.92
30.68,11.45,4.51,11.45,4.51,-4.52,-4.08,-5.49,6.92,6.93,6.93
30.99,11.45,4.50,11.45,4.50,-4.50,-4.08,-5.52,6.94,6.94,6.95
31.30,11.45,4.49,11.45,4.48,-4.49,-4.09,-5.54,6.96,6.96,6.96
31.61,11.45,4.47,11.45,4.47,-4.47,-4.09,-5.55,6.98,6.98,6.98
31.93,11.45,4.46,11.45,4.46,-4.45,-4.10,-5.55,6.99,6.99,6.99
32.24,11.45,4.44,11.45,4.44,-4.44,-4.10,-5.55,7.00,7.00,7.01
32.57,11.45,4.43,11.45,4.43,-4.43,-4.10,-5.53,7.02,7.02,7.01
32.89,11.45,4.41,11.45,4.42,-4.42,-4.11,-5.52,7.03,7.03,7.03
33.22,11.45,4.41,11.45,4.40,-4.40,-4.11,-5.49,7.04,7.04,7.04
33.55,11.45,4.39,11.45,4.39,-4.39,-4.12,-5.46,7.06,7.06,7.06
33.89,11.45,4.38,11.45,4.38,-4.38,-4.12,-5.42,7.07,7.07,7.07
34.23,11.45,4.36,11.45,4.37,-4.36,-4.13,-5.38,7.08,7.09,7.08
34.57,11.45,4.35,11.45,4.35,-4.35,-4.13,-5.33,7.10,7.10,7.09
34.92,11.45,4.35,11.44,4.34,-4.33,-4.14,-5.28,7.11,7.11,7.10
35.27,11.44,4.32,11.44,4.32,-4.32,-4.14,-5.23,7.12,7.12,7.12
35.62,11.43,4.30,11.43,4.30,-4.31,-4.14,-5.17,7.12,7.12,7.13
35.97,11.43,4.29,11.42,4.29,-4.30,-4.15,-5.11,7.13,7.13,7.13
36.33,11.43,4.28,11.43,4.29,-4.29,-4.15,-5.05,7.13,7.13,7.14
36.70,11.44,4.29,11.44,4.29,-4.29,-4.16,-4.99,7.14,7.14,7.15
37.06,11.46,4.30,11.45,4.30,-4.30,-4.16,-4.92,7.16,7.15,7.16
37.43,11.48,4.31,11.47,4.31,-4.31,-4.17,-4.86,7.17,7.16,7.16
37.81,11.50,4.33,11.50,4.33,-4.33,-4.17,-4.80,7.17,7.17,7.17
38.19,11.53,4.35,11.53,4.35,-4.35,-4.18,-4.73,7.18,7.18,7.18
38.57,11.56,4.37,11.56,4.37,-4.37,-4.18,-4.67,7.19,7.19,7.19
38.95,11.59,4.39,11.59,4.39,-4.39,-4.19,-4.61,7.19,7.19,7.19
39.34,11.62,4.42,11.62,4.42,-4.42,-4.19,-4.55,7.20,7.20,7.20
39.74,11.65,4.44,11.65,4.44,-4.45,-4.20,-4.49,7.20,7.20,7.21
40.14,11.68,4.47,11.68,4.47,-4.47,-4.20,-4.43,7.20,7.20,7.20
40.54,11.71,4.50,11.71,4.50,-4.50,-4.21,-4.38,7.21,7.21,7.21
40.94,11.74,4.52,11.73,4.52,-4.52,-4.21,-4.33,7.22,7.22,7.21
41.35,11.76,4.54,11.76,4.54,-4.53,-4.22,-4.28,7.22,7.22,7.22
41.76,11.78,4.55,11.78,4.55,-4.55,-4.22,-4.23,7.23,7.23,7.23
42.18,11.79,4.55,11.79,4.55,-4.55,-4.23,-4.19,7.23,7.24,7.23
42.60,11.80,4.56,11.80,4.56,-4.55,-4.24,-4.15,7.24,7.24,7.24
43.03,11.80,4.55,11.80,4.55,-4.55,-4.24,-4.11,7.25,7.25,7.24
43.46,11.80,4.55,11.79,4.54,-4.54,-4.25,-4.07,7.25,7.25,7.25
43.90,11.79,4.53,11.79,4.53,-4.53,-4.25,-4.04,7.25,7.25,7.25
44.33,11.78,4.51,11.78,4.52,-4.52,-4.26,-4.01,7.26,7.26,7.27
44.78,11.78,4.50,11.78,4.50,-4.51,-4.26,-3.99,7.27,7.27,7.27
45.23,11.78,4.50,11.78,4.49,-4.50,-4.27,-3.96,7.28,7.28,7.28
45.68,11.78,4.48,11.78,4.49,-4.49,-4.27,-3.94,7.29,7.29,7.29
46.13,11.78,4.48,11.78,4.48,-4.48,-4.28,-3.92,7.30,7.30,7.30
46.60,11.78,4.47,11.78,4.47,-4.47,-4.28,-3.91,7.31,7.31,7.31
47.06,11.78,4.46,11.78,4.46,-4.46,-4.29,-3.90,7.32,7.32,7.32
47.53,11.78,4.45,11.78,4.45,-4.45,-4.29,-3.89,7.33,7.33,7.33
48.01,11.78,4.44,11.78,4.44,-4.44,-4.30,-3.88,7.34,7.34,7.33
48.49,11.78,4.43,11.78,4.43,-4.43,-4.30,-3.88,7.34,7.34,7.34
48.97,11.78,4.43,11.78,4.42,-4.43,-4.31,-3.88,7.35,7.35,7.35
49.46,11.78,4.42,11.78,4.42,-4.43,-4.31,-3.88,7.35,7.35,7.36
49.96,11.78,4.41,11.78,4.42,-4.42,-4.31,-3.88,7.35,7.36,7.36
50.46,11.79,4.42,11.79,4.42,-4.42,-4.32,-3.89,7.36,7.36,7.36
50.96,11.80,4.42,11.79,4.42,-4.42,-4.32,-3.90,7.38,7.37,7.38
51.47,11.80,4.42,11.80,4.42,-4.41,-4.33,-3.91,7.38,7.38,7.38
51.99,11.80,4.42,11.80,4.42,-4.41,-4.33,-3.92,7.39,7.39,7.38
52.51,11.79,4.41,11.79,4.41,-4.40,-4.34,-3.93,7.39,7.39,7.38
53.03,11.78,4.40,11.77,4.39,-4.38,-4.34,-3.95,7.39,7.39,7.38
53.56,11.76,4.36,11.75,4.37,-4.37,-4.34,-3.97,7.39,7.39,7.39
54.10,11.73,4.34,11.73,4.34,-4.34,-4.35,-3.98,7.38,7.39,7.39
54.64,11.71,4.32,11.70,4.32,-4.32,-4.35,-4.00,7.39,7.39,7.39
55.18,11.68,4.30,11.68,4.29,-4.29,-4.35,-4.02,7.39,7.39,7.38
55.74,11.65,4.27,11.64,4.26,-4.26,-4.36,-4.04,7.38,7.38,7.38
56.29,11.61,4.23,11.61,4.24,-4.23,-4.36,-4.06,7.37,7.38,7.38
56.86,11.58,4.21,11.58,4.21,-4.21,-4.36,-4.08,7.37,7.37,7.37
57.42,11.55,4.18,11.55,4.18,-4.19,-4.37,-4.10,7.36,7.36,7.36
58.00,11.52,4.17,11.52,4.16,-4.16,-4.37,-4.11,7.35,7.35,7.35
58.58,11.50,4.15,11.49,4.15,-4.15,-4.37,-4.13,7.35,7.34,7.35
59.16,11.47,4.13,11.47,4.14,-4.14,-4.37,-4.15,7.33,7.33,7.33
59.76,11.46,4.14,11.45,4.13,-4.13,-4.37,-4.17,7.32,7.32,7.32
60.35,11.44,4.13,11.44,4.13,-4.14,-4.38,-4.18,7.30,7.30,7.31
60.96,11.43,4.13,11.43,4.14,-4.14,-4.38,-4.19,7.28,7.29,7.29
61.57,11.43,4.15,11.43,4.15,-4.16,-4.38,-4.21,7.27,7.27,7.28
62.18,11.44,4.17,11.44,4.17,-4.17,-4.38,-4.22,7.26,7.26,7.26
62.80,11.45,4.20,11.44,4.20,-4.19,-4.38,-4.23,7.25,7.25,7.25
63.43,11.45,4.22,11.45,4.22,-4.22,-4.38,-4.23,7.23,7.23,7.23
64.07,11.45,4.24,11.45,4.25,-4.25,-4.38,-4.24,7.20,7.21,7.20
64.71,11.46,4.27,11.46,4.27,-4.27,-4.38,-4.25,7.18,7.18,7.18
65.35,11.47,4.30,11.46,4.30,-4.30,-4.38,-4.25,7.17,7.16,7.17
66.01,11.47,4.32,11.47,4.32,-4.32,-4.38,-4.25,7.14,7.15,7.15
66.67,11.48,4.35,11.48,4.35,-4.34,-4.37,-4.26,7.13,7.13,7.13
67.33,11.48,4.37,11.47,4.37,-4.36,-4.37,-4.26,7.11,7.11,7.11
68.01,11.47,4.39,11.46,4.38,-4.38,-4.37,-4.26,7.09,7.09,7.08
68.69,11.45,4.39,11.45,4.39,-4.39,-4.37,-4.26,7.06,7.06,7.06
69.37,11.43,4.39,11.43,4.39,-4.39,-4.37,-4.26,7.04,7.04,7.04
70.07,11.41,4.39,11.40,4.39,-4.39,-4.37,-4.26,7.02,7.01,7.02
70.77,11.38,4.38,11.38,4.38,-4.38,-4.36,-4.26,6.99,6.99,6.99
71.48,11.35,4.38,11.35,4.38,-4.38,-4.36,-4.26,6.97,6.97,6.97
72.19,11.32,4.37,11.32,4.37,-4.37,-4.36,-4.26,6.95,6.95,6.95
72.91,11.29,4.35,11.29,4.36,-4.36,-4.36,-4.27,6.93,6.93,6.93
73.64,11.26,4.35,11.26,4.35,-4.35,-4.35,-4.27,6.91,6.91,6.91
74.38,11.23,4.33,11.23,4.34,-4.33,-4.35,-4.28,6.89,6.89,6.89
75.12,11.20,4.33,11.20,4.33,-4.32,-4.35,-4.28,6.87,6.87,6.87
75.87,11.17,4.32,11.17,4.32,-4.32,-4.35,-4.29,6.85,6.85,6.85
76.63,11.15,4.31,11.15,4.31,-4.31,-4.35,-4.30,6.83,6.83,6.83
77.40,11.13,4.31,11.13,4.31,-4.32,-4.35,-4.32,6.81,6.81,6.82
78.17,11.12,4.32,11.12,4.32,-4.32,-4.35,-4.33,6.79,6.79,6.80
78.95,11.11,4.33,11.11,4.33,-4.33,-4.35,-4.35,6.77,6.77,6.78
79.74,11.11,4.35,11.11,4.34,-4.35,-4.35,-4.37,6.76,6.76,6.76
80.54,11.11,4.36,11.11,4.37,-4.37,-4.35,-4.40,6.74,6.74,6.74
81.35,11.12,4.39,11.12,4.39,-4.39,-4.35,-4.42,6.72,6.72,6.72
82.16,11.13,4.43,11.12,4.42,-4.42,-4.36,-4.46,6.71,6.71,6.70
82.98,11.13,4.45,11.13,4.45,-4.44,-4.37,-4.49,6.68,6.69,6.68
83.81,11.13,4.47,11.13,4.47,-4.47,-4.37,-4.53,6.66,6.66,6.66
84.65,11.13,4.49,11.13,4.49,-4.49,-4.38,-4.56,6.63,6.63,6.64
85.50,11.13,4.51,11.13,4.51,-4.51,-4.40,-4.61,6.61,6.61,6.61
86.35,11.13,4.54,11.13,4.54,-4.54,-4.41,-4.65,6.59,6.59,6.59
87.22,11.13,4.56,11.13,4.56,-4.56,-4.42,-4.71,6.57,6.57,6.57
88.09,11.13,4.58,11.13,4.58,-4.58,-4.44,-4.76,6.54,6.54,6.54
88.97,11.13,4.60,11.13,4.60,-4.60,-4.46,-4.82,6.52,6.52,6.53
89.86,11.13,4.62,11.13,4.62,-4.63,-4.48,-4.88,6.50,6.50,6.50
90.76,11.13,4.65,11.13,4.64,-4.65,-4.51,-4.94,6.48,6.48,6.48
91.66,11.13,4.66,11.13,4.67,-4.67,-4.53,-5.01,6.46,6.46,6.46
92.58,11.13,4.69,11.13,4.69,-4.69,-4.56,-5.08,6.44,6.44,6.44
93.51,11.13,4.72,11.12,4.71,-4.70,-4.60,-5.15,6.42,6.42,6.41
94.44,11.12,4.72,11.12,4.73,-4.72,-4.63,-5.23,6.39,6.40,6.39
95.39,11.12,4.75,11.11,4.74,-4.74,-4.67,-5.31,6.37,6.37,6.37
96.34,11.11,4.76,11.11,4.76,-4.77,-4.71,-5.40,6.34,6.34,6.35
97.30,11.11,4.79,11.11,4.79,-4.79,-4.75,-5.48,6.31,6.31,6.32
98.28,11.11,4.81,11.11,4.81,-4.82,-4.79,-5.57,6.29,6.29,6.29
99.26,11.12,4.85,11.12,4.85,-4.85,-4.84,-5.67,6.26,6.26,6.27
100.25,11.14,4.89,11.14,4.89,-4.89,-4.89,-5.76,6.25,6.25,6.25
101.25,11.16,4.94,11.16,4.94,-4.93,-4.94,-5.86,6.22,6.22,6.22
102.27,11.19,5.00,11.18,4.99,-4.98,-5.00,-5.96,6.20,6.19,6.19
103.29,11.20,5.04,11.20,5.04,-5.04,-5.06,-6.06,6.16,6.16,6.15
104.32,11.22,5.09,11.22,5.09,-5.10,-5.12,-6.16,6.12,6.12,6.12
105.37,11.25,5.15,11.25,5.16,-5.16,-5.18,-6.26,6.08,6.08,6.10
106.42,11.29,5.23,11.29,5.23,-5.23,-5.24,-6.36,6.05,6.06,6.06
107.48,11.34,5.32,11.33,5.31,-5.31,-5.31,-6.46,6.03,6.02,6.02
108.56,11.38,5.39,11.37,5.39,-5.39,-5.38,-6.56,5.99,5.99,5.98
109.64,11.41,5.46,11.41,5.47,-5.47,-5.46,-6.66,5.94,5.95,5.94
110.74,11.46,5.55,11.46,5.55,-5.55,-5.53,-6.76,5.90,5.90,5.91
111.85,11.51,5.64,11.50,5.64,-5.64,-5.61,-6.85,5.86,5.86,5.87
112.97,11.56,5.74,11.56,5.73,-5.73,-5.70,-6.94,5.83,5.83,5.82
114.10,11.61,5.82,11.61,5.83,-5.82,-5.78,-7.03,5.78,5.78,5.78
115.24,11.66,5.92,11.66,5.92,-5.92,-5.87,-7.11,5.74,5.74,5.73
116.39,11.71,6.01,11.70,6.01,-6.01,-5.96,-7.19,5.69,5.69,5.70
117.55,11.76,6.11,11.76,6.11,-6.11,-6.06,-7.26,5.65,5.65,5.65
118.73,11.82,6.20,11.82,6.21,-6.21,-6.15,-7.32,5.61,5.61,5.61
119.92,11.89,6.32,11.88,6.31,-6.31,-6.25,-7.38,5.57,5.57,5.57
121.12,11.95,6.41,11.95,6.41,-6.41,-6.35,-7.43,5.53,5.54,5.53
122.33,12.02,6.52,12.01,6.52,-6.51,-6.45,-7.47,5.50,5.50,5.50
123.55,12.08,6.61,12.08,6.62,-6.62,-6.55,-7.51,5.46,5.46,5.46
124.79,12.15,6.72,12.15,6.72,-6.72,-6.65,-7.53,5.43,5.43,5.43
126.03,12.22,6.82,12.21,6.82,-6.82,-6.75,-7.55,5.40,5.39,5.39
127.29,12.28,6.92,12.28,6.92,-6.92,-6.84,-7.56,5.36,5.36,5.36
128.57,12.34,7.01,12.34,7.01,-7.02,-6.94,-7.56,5.32,5.32,5.33
129.85,12.40,7.10,12.40,7.11,-7.11,-7.02,-7.56,5.29,5.29,5.29
131.15,12.47,7.21,12.46,7.20,-7.19,-7.11,-7.54,5.27,5.27,5.26
132.46,12.52,7.29,12.52,7.28,-7.28,-7.18,-7.52,5.24,5.24,5.23
133.79,12.57,7.36,12.56,7.36,-7.35,-7.25,-7.50,5.22,5.21,5.21
135.12,12.60,7.42,12.60,7.42,-7.42,-7.31,-7.46,5.18,5.18,5.18
136.48,12.63,7.48,12.63,7.48,-7.48,-7.37,-7.43,5.15,5.15,5.15
137.84,12.66,7.54,12.65,7.54,-7.54,-7.43,-7.38,5.12,5.12,5.12
139.22,12.68,7.59,12.68,7.59,-7.59,-7.48,-7.34,5.08,5.09,5.09
140.61,12.71,7.65,12.70,7.64,-7.65,-7.52,-7.29,5.06,5.06,5.06
142.02,12.73,7.69,12.73,7.69,-7.70,-7.57,-7.24,5.02,5.03,5.04
143.44,12.76,7.74,12.76,7.75,-7.76,-7.61,-7.18,5.00,5.00,5.01
144.87,12.80,7.81,12.79,7.81,-7.81,-7.65,-7.13,4.99,4.98,4.99
146.32,12.83,7.88,12.83,7.87,-7.87,-7.70,-7.07,4.96,4.96,4.95
147.78,12.86,7.93,12.86,7.93,-7.92,-7.74,-7.02,4.93,4.93,4.92
149.26,12.89,7.99,12.88,7.98,-7.98,-7.79,-6.96,4.90,4.90,4.90
150.75,12.91,8.03,12.91,8.03,-8.04,-7.83,-6.91,4.87,4.87,4.87
152.26,12.93,8.08,12.93,8.09,-8.10,-7.88,-6.86,4.83,4.83,4.85
153.78,12.97,8.15,12.97,8.15,-8.16,-7.93,-6.81,4.81,4.81,4.82
155.32,13.01,8.21,13.00,8.21,-8.21,-7.98,-6.76,4.79,4.79,4.79
156.88,13.04,8.27,13.04,8.27,-8.26,-8.03,-6.72,4.77,4.78,4.77
158.44,13.07,8.32,13.06,8.32,-8.31,-8.08,-6.68,4.76,4.76,4.75
160.03,13.08,8.36,13.08,8.36,-8.35,-8.13,-6.64,4.73,4.73,4.72
161.63,13.09,8.39,13.08,8.39,-8.38,-8.19,-6.61,4.71,4.71,4.70
163.24,13.08,8.41,13.08,8.41,-8.40,-8.24,-6.58,4.68,4.68,4.67
164.88,13.07,8.42,13.06,8.42,-8.41,-8.29,-6.56,4.65,4.65,4.65
166.53,13.04,8.42,13.04,8.42,-8.42,-8.34,-6.53,4.62,4.62,4.62
168.19,13.01,8.42,13.01,8.42,-8.42,-8.39,-6.52,4.58,4.58,4.59
169.87,12.98,8.42,12.98,8.42,-8.42,-8.44,-6.51,4.55,4.55,4.56
171.57,12.95,8.41,12.95,8.41,-8.42,-8.49,-6.50,4.53,4.53,4.53
173.29,12.92,8.41,12.92,8.41,-8.42,-8.53,-6.50,4.50,4.50,4.51
175.02,12.89,8.41,12.89,8.41,-8.41,-8.57,-6.50,4.47,4.47,4.48
176.77,12.86,8.41,12.86,8.41,-8.41,-8.61,-6.51,4.45,4.45,4.44
178.54,12.83,8.41,12.82,8.41,-8.40,-8.65,-6.52,4.42,4.42,4.42
180.32,12.79,8.40,12.78,8.40,-8.40,-8.68,-6.54,4.39,4.39,4.38
182.13,12.74,8.38,12.74,8.39,-8.39,-8.71,-6.56,4.35,4.35,4.36
183.95,12.70,8.37,12.69,8.37,-8.37,-8.73,-6.59,4.32,4.32,4.32
185.79,12.65,8.36,12.65,8.35,-8.36,-8.75,-6.62,4.29,4.29,4.29
187.65,12.60,8.33,12.60,8.34,-8.34,-8.77,-6.66,4.26,4.26,4.26
189.52,12.55,8.31,12.55,8.32,-8.32,-8.77,-6.70,4.23,4.23,4.23
191.42,12.50,8.30,12.49,8.29,-8.29,-8.78,-6.75,4.20,4.20,4.20
193.33,12.44,8.27,12.44,8.27,-8.26,-8.77,-6.80,4.18,4.18,4.17
195.27,12.37,8.22,12.37,8.23,-8.22,-8.77,-6.85,4.15,4.15,4.14
197.22,12.30,8.18,12.29,8.18,-8.17,-8.75,-6.91,4.12,4.12,4.11
199.19,12.21,8.12,12.21,8.13,-8.12,-8.73,-6.97,4.08,4.08,4.08
201.18,12.12,8.07,12.12,8.07,-8.07,-8.71,-7.03,4.05,4.05,4.04
203.19,12.02,8.01,12.02,8.01,-8.00,-8.68,-7.10,4.01,4.01,4.01
205.23,11.92,7.94,11.92,7.94,-7.94,-8.64,-7.17,3.98,3.98,3.98
207.28,11.82,7.87,11.82,7.87,-7.87,-8.60,-7.24,3.94,3.94,3.95
209.35,11.72,7.79,11.72,7.80,-7.81,-8.55,-7.31,3.91,3.91,3.92
211.44,11.63,7.74,11.63,7.74,-7.74,-8.49,-7.38,3.89,3.88,3.88
213.56,11.54,7.68,11.53,7.68,-7.68,-8.43,-7.46,3.86,3.85,3.85
215.69,11.43,7.61,11.43,7.62,-7.61,-8.37,-7.53,3.81,3.82,3.81
217.85,11.33,7.55,11.33,7.55,-7.55,-8.29,-7.60,3.77,3.78,3.78
220.03,11.24,7.49,11.23,7.49,-7.49,-8.22,-7.67,3.75,3.74,3.75
222.23,11.15,7.43,11.15,7.43,-7.43,-8.14,-7.73,3.72,3.72,3.72
224.45,11.06,7.37,11.06,7.37,-7.37,-8.05,-7.79,3.69,3.69,3.68
226.70,10.98,7.32,10.97,7.32,-7.31,-7.96,-7.85,3.67,3.66,3.66
228.96,10.89,7.26,10.89,7.26,-7.25,-7.87,-7.90,3.63,3.63,3.63
231.25,10.81,7.20,10.80,7.20,-7.20,-7.77,-7.94,3.61,3.60,3.60
233.57,10.72,7.13,10.72,7.14,-7.14,-7.67,-7.97,3.57,3.58,3.59
235.90,10.65,7.09,10.65,7.09,-7.09,-7.56,-7.99,3.55,3.56,3.56
238.26,10.59,7.04,10.58,7.04,-7.04,-7.46,-8.01,3.54,3.54,3.54
240.64,10.53,7.00,10.52,7.00,-7.00,-7.34,-8.01,3.53,3.53,3.53
243.05,10.46,6.94,10.46,6.95,-6.95,-7.23,-8.00,3.51,3.51,3.51
245.48,10.41,6.91,10.40,6.91,-6.91,-7.11,-7.98,3.50,3.50,3.50
247.93,10.35,6.86,10.34,6.86,-6.86,-7.00,-7.95,3.48,3.48,3.48
250.41,10.29,6.82,10.29,6.82,-6.82,-6.88,-7.90,3.46,3.47,3.47
252.92,10.23,6.77,10.23,6.78,-6.78,-6.75,-7.84,3.45,3.45,3.45
255.45,10.18,6.74,10.17,6.74,-6.73,-6.63,-7.77,3.44,3.44,3.44
258.00,10.12,6.69,10.11,6.69,-6.68,-6.51,-7.69,3.43,3.43,3.42
260.58,10.05,6.63,10.05,6.64,-6.63,-6.38,-7.59,3.41,3.42,3.42
263.19,9.99,6.58,9.98,6.58,-6.58,-6.25,-7.48,3.41,3.40,3.40
265.82,9.92,6.53,9.91,6.52,-6.53,-6.12,-7.36,3.39,3.39,3.39
268.48,9.84,6.46,9.84,6.46,-6.47,-5.99,-7.23,3.37,3.37,3.38
271.16,9.76,6.39,9.76,6.40,-6.41,-5.86,-7.09,3.35,3.35,3.36
273.87,9.68,6.33,9.68,6.33,-6.34,-5.73,-6.94,3.34,3.34,3.35
276.61,9.61,6.27,9.60,6.27,-6.27,-5.60,-6.78,3.34,3.34,3.33
279.38,9.52,6.20,9.51,6.19,-6.19,-5.47,-6.62,3.33,3.33,3.32
282.17,9.42,6.11,9.41,6.11,-6.10,-5.33,-6.45,3.32,3.32,3.31
284.99,9.30,6.00,9.30,6.00,-6.00,-5.20,-6.27,3.30,3.30,3.29
287.84,9.18,5.89,9.17,5.89,-5.89,-5.06,-6.09,3.29,3.28,3.28
290.72,9.04,5.77,9.04,5.77,-5.77,-4.93,-5.91,3.27,3.27,3.27
293.63,8.90,5.64,8.90,5.64,-5.64,-4.79,-5.72,3.26,3.26,3.26
296.57,8.75,5.50,8.74,5.50,-5.50,-4.66,-5.54,3.25,3.25,3.24
299.53,8.58,5.35,8.58,5.35,-5.35,-4.52,-5.34,3.23,3.23,3.23
302.53,8.40,5.18,8.40,5.19,-5.19,-4.38,-5.15,3.20,3.21,3.22
305.55,8.23,5.03,8.22,5.02,-5.03,-4.24,-4.96,3.19,3.19,3.20
308.61,8.05,4.86,8.04,4.86,-4.87,-4.10,-4.77,3.18,3.18,3.18
311.69,7.86,4.68,7.86,4.70,-4.69,-3.96,-4.58,3.16,3.17,3.17
314.81,7.68,4.53,7.67,4.52,-4.52,-3.82,-4.39,3.16,3.15,3.15
317.96,7.49,4.35,7.48,4.34,-4.34,-3.68,-4.19,3.15,3.14,3.14
321.14,7.27,4.15,7.28,4.16,-4.15,-3.54,-4.00,3.11,3.12,3.11
324.35,7.07,3.96,7.07,3.96,-3.97,-3.39,-3.82,3.10,3.10,3.10
327.59,6.86,3.78,6.85,3.77,-3.77,-3.25,-3.63,3.08,3.08,3.08
330.87,6.64,3.57,6.64,3.57,-3.57,-3.10,-3.44,3.06,3.06,3.07
334.18,6.42,3.37,6.42,3.37,-3.37,-2.95,-3.26,3.04,3.05,3.05
337.52,6.20,3.16,6.20,3.16,-3.17,-2.80,-3.07,3.03,3.03,3.04
340.90,5.98,2.96,5.97,2.96,-2.96,-2.65,-2.89,3.02,3.02,3.01
344.30,5.75,2.74,5.74,2.74,-2.74,-2.49,-2.71,3.00,3.00,3.00
347.75,5.51,2.53,5.51,2.53,-2.53,-2.34,-2.53,2.98,2.98,2.98
351.23,5.27,2.31,5.27,2.30,-2.30,-2.18,-2.36,2.96,2.96,2.96
354.74,5.03,2.08,5.02,2.08,-2.08,-2.02,-2.18,2.95,2.95,2.95
358.28,4.78,1.85,4.78,1.85,-1.85,-1.85,-2.01,2.93,2.93,2.93
361.87,4.53,1.62,4.53,1.62,-1.61,-1.69,-1.83,2.92,2.92,2.91
365.49,4.28,1.38,4.28,1.38,-1.38,-1.52,-1.66,2.90,2.90,2.89
369.14,4.03,1.15,4.02,1.15,-1.14,-1.35,-1.49,2.88,2.88,2.87
372.83,3.77,0.90,3.77,0.91,-0.92,-1.17,-1.33,2.85,2.85,2.86
376.56,3.52,0.68,3.52,0.68,-0.69,-1.00,-1.16,2.82,2.82,2.84
380.33,3.28,0.46,3.28,0.46,-0.47,-0.82,-0.99,2.80,2.81,2.82
384.13,3.06,0.25,3.06,0.26,-0.26,-0.63,-0.83,2.79,2.80,2.81
387.97,2.86,0.07,2.85,0.06,-0.06,-0.45,-0.67,2.80,2.80,2.79
391.85,2.65,-0.13,2.64,-0.13,0.15,-0.26,-0.51,2.79,2.79,2.78
395.77,2.44,-0.33,2.43,-0.33,0.34,-0.07,-0.35,2.78,2.77,2.77
399.73,2.22,-0.54,2.23,-0.53,0.53,0.12,-0.19,2.75,2.76,2.75
403.72,2.03,-0.72,2.02,-0.72,0.72,0.32,-0.04,2.75,2.74,2.74
407.76,1.83,-0.91,1.82,-0.91,0.91,0.51,0.11,2.73,2.73,2.73
411.84,1.63,-1.09,1.63,-1.09,1.09,0.70,0.26,2.71,2.72,2.71
415.96,1.44,-1.27,1.44,-1.26,1.26,0.90,0.41,2.70,2.70,2.70
420.12,1.26,-1.43,1.26,-1.43,1.43,1.09,0.56,2.69,2.69,2.69
424.32,1.09,-1.59,1.08,-1.60,1.60,1.28,0.70,2.68,2.68,2.68
428.56,0.92,-1.75,0.92,-1.75,1.75,1.46,0.84,2.67,2.67,2.67
432.85,0.76,-1.89,0.76,-1.90,1.90,1.64,0.97,2.65,2.65,2.65
437.18,0.61,-2.03,0.61,-2.03,2.03,1.81,1.10,2.64,2.64,2.64
441.55,0.47,-2.16,0.47,-2.16,2.16,1.97,1.23,2.62,2.62,2.63
445.96,0.34,-2.27,0.34,-2.27,2.27,2.12,1.35,2.61,2.61,2.61
450.42,0.22,-2.37,0.22,-2.37,2.37,2.26,1.47,2.59,2.59,2.59
454.93,0.12,-2.46,0.11,-2.46,2.46,2.38,1.58,2.57,2.57,2.58
459.48,0.02,-2.54,0.02,-2.54,2.53,2.48,1.69,2.55,2.55,2.56
464.07,-0.06,-2.60,-0.06,-2.60,2.59,2.58,1.79,2.53,2.53,2.53
468.71,-0.12,-2.64,-0.13,-2.64,2.64,2.65,1.89,2.52,2.51,2.51
473.40,-0.17,-2.68,-0.17,-2.67,2.67,2.70,1.98,2.50,2.50,2.50
478.13,-0.21,-2.70,-0.21,-2.70,2.70,2.74,2.06,2.48,2.49,2.48
482.91,-0.23,-2.71,-0.24,-2.71,2.71,2.76,2.13,2.48,2.47,2.47
487.74,-0.25,-2.71,-0.25,-2.71,2.71,2.76,2.20,2.46,2.46,2.45
492.62,-0.25,-2.70,-0.26,-2.70,2.70,2.74,2.26,2.45,2.45,2.44
497.55,-0.25,-2.69,-0.25,-2.69,2.68,2.71,2.31,2.43,2.43,2.43
502.52,-0.24,-2.66,-0.24,-2.66,2.66,2.67,2.35,2.42,2.42,2.42
