frequency,raw,error,smoothed,error_smoothed,equalization,parametric_eq,fixed_band_eq,equalized_raw,equalized_smoothed,target
20.00,-14.29,-16.87,-14.28,-16.86,6.00,6.86,2.37,-8.29,-8.28,2.58
20.20,-14.11,-16.70,-14.11,-16.70,6.00,6.84,2.44,-8.11,-8.11,2.59
20.40,-13.94,-16.53,-13.94,-16.53,6.00,6.81,2.51,-7.94,-7.94,2.60
20.61,-13.76,-16.36,-13.76,-16.36,6.00,6.78,2.58,-7.76,-7.76,2.60
20.81,-13.59,-16.19,-13.59,-16.19,6.00,6.76,2.65,-7.59,-7.59,2.61
21.02,-13.41,-16.01,-13.40,-16.01,6.00,6.73,2.73,-7.41,-7.40,2.61
21.23,-13.20,-15.81,-13.20,-15.81,6.00,6.70,2.81,-7.20,-7.20,2.62
21.44,-12.99,-15.60,-12.99,-15.60,6.00,6.67,2.89,-6.99,-6.99,2.61
21.66,-12.77,-15.39,-12.77,-15.39,6.00,6.64,2.98,-6.77,-6.77,2.61
21.87,-12.56,-15.17,-12.56,-15.18,6.00,6.61,3.07,-6.56,-6.56,2.61
22.09,-12.35,-14.97,-12.34,-14.96,6.00,6.58,3.15,-6.35,-6.34,2.62
22.31,-12.13,-14.75,-12.13,-14.75,6.00,6.54,3.25,-6.13,-6.13,2.62
22.54,-11.91,-14.52,-11.91,-14.52,6.00,6.51,3.34,-5.91,-5.91,2.61
22.76,-11.69,-14.29,-11.69,-14.29,6.00,6.48,3.44,-5.69,-5.69,2.60
22.99,-11.47,-14.07,-11.47,-14.08,6.00,6.44,3.53,-5.47,-5.47,2.60
23.22,-11.27,-13.87,-11.27,-13.87,6.00,6.41,3.64,-5.27,-5.27,2.60
23.45,-11.08,-13.67,-11.08,-13.67,6.00,6.37,3.74,-5.08,-5.08,2.59
23.69,-10.89,-13.48,-10.89,-13.48,6.00,6.33,3.85,-4.89,-4.89,2.59
23.92,-10.69,-13.28,-10.68,-13.27,6.00,6.29,3.95,-4.69,-4.68,2.59
24.16,-10.47,-13.06,-10.47,-13.06,6.00,6.25,4.06,-4.47,-4.47,2.59
24.40,-10.25,-12.83,-10.25,-12.83,6.00,6.21,4.17,-4.25,-4.25,2.59
24.65,-10.02,-12.61,-10.02,-12.61,6.00,6.17,4.29,-4.02,-4.02,2.59
24.89,-9.78,-12.37,-9.79,-12.37,6.00,6.13,4.40,-3.78,-3.79,2.59
25.14,-9.56,-12.14,-9.55,-12.14,6.00,6.09,4.51,-3.56,-3.55,2.59
25.39,-9.31,-11.89,-9.32,-11.90,6.00,6.04,4.63,-3.31,-3.32,2.58
25.65,-9.09,-11.67,-9.09,-11.66,6.00,5.99,4.75,-3.09,-3.09,2.58
25.91,-8.86,-11.44,-8.86,-11.44,6.00,5.95,4.86,-2.86,-2.86,2.58
26.16,-8.65,-11.22,-8.65,-11.23,6.00,5.90,4.98,-2.65,-2.65,2.57
26.43,-8.46,-11.04,-8.46,-11.03,6.00,5.85,5.09,-2.46,-2.46,2.57
26.69,-8.27,-10.84,-8.27,-10.84,6.00,5.80,5.20,-2.27,-2.27,2.57
26.96,-8.08,-10.65,-8.07,-10.64,6.00,5.75,5.32,-2.08,-2.07,2.57
27.23,-7.84,-10.41,-7.84,-10.41,6.00,5.69,5.42,-1.84,-1.84,2.57
27.50,-7.59,-10.16,-7.59,-10.16,6.00,5.64,5.53,-1.59,-1.59,2.57
27.77,-7.34,-9.90,-7.34,-9.91,6.00,5.58,5.63,-1.34,-1.34,2.57
28.05,-7.10,-9.67,-7.10,-9.66,6.00,5.53,5.73,-1.10,-1.10,2.57
28.33,-6.86,-9.42,-6.86,-9.43,6.00,5.47,5.81,-0.86,-0.86,2.57
28.62,-6.63,-9.20,-6.63,-9.20,6.00,5.41,5.90,-0.63,-0.63,2.57
28.90,-6.40,-8.97,-6.40,-8.97,6.00,5.35,5.97,-0.40,-0.40,2.58
29.19,-6.18,-8.75,-6.18,-8.76,6.00,5.28,6.05,-0.18,-0.18,2.57
29.48,-5.97,-8.54,-5.97,-8.55,6.00,5.22,6.10,0.03,0.03,2.57
29.78,-5.76,-8.34,-5.76,-8.34,6.00,5.15,6.16,0.24,0.24,2.58
30.08,-5.54,-8.12,-5.53,-8.11,6.00,5.08,6.19,0.46,0.47,2.58
30.38,-5.29,-7.87,-5.30,-7.88,6.00,5.01,6.23,0.71,0.70,2.58
30.68,-5.05,-7.63,-5.05,-7.63,6.01,4.94,6.24,0.96,0.96,2.58
30.99,-4.80,-7.38,-4.81,-7.38,6.02,4.87,6.25,1.22,1.22,2.58
31.30,-4.57,-7.15,-4.57,-7.15,6.04,4.79,6.24,1.47,1.47,2.58
31.61,-4.34,-6.91,-4.34,-6.91,6.04,4.72,6.23,1.70,1.70,2.57
31.93,-4.10,-6.68,-4.10,-6.67,6.02,4.64,6.20,1.92,1.92,2.57
32.24,-3.86,-6.42,-3.85,-6.42,5.98,4.56,6.16,2.13,2.13,2.56
32.57,-3.61,-6.17,-3.61,-6.17,5.91,4.47,6.11,2.30,2.30,2.56
32.89,-3.36,-5.92,-3.37,-5.92,5.81,4.39,6.05,2.45,2.44,2.56
33.22,-3.15,-5.69,-3.15,-5.70,5.67,4.30,5.98,2.52,2.52,2.55
33.55,-2.95,-5.49,-2.94,-5.49,5.50,4.22,5.90,2.56,2.56,2.54
33.89,-2.75,-5.28,-2.75,-5.28,5.31,4.12,5.81,2.56,2.57,2.53
34.23,-2.54,-5.07,-2.53,-5.06,5.10,4.03,5.72,2.56,2.57,2.53
34.57,-2.32,-4.85,-2.32,-4.85,4.88,3.94,5.61,2.56,2.56,2.53
34.92,-2.09,-4.62,-2.10,-4.63,4.65,3.84,5.50,2.56,2.55,2.53
35.27,-1.90,-4.43,-1.90,-4.42,4.43,3.74,5.38,2.53,2.53,2.52
35.62,-1.70,-4.22,-1.70,-4.22,4.21,3.64,5.26,2.51,2.51,2.52
35.97,-1.51,-4.03,-1.50,-4.02,3.99,3.54,5.14,2.49,2.50,2.52
36.33,-1.28,-3.79,-1.28,-3.80,3.77,3.43,5.01,2.49,2.49,2.52
36.70,-1.05,-3.57,-1.05,-3.56,3.55,3.32,4.88,2.50,2.50,2.52
37.06,-0.82,-3.33,-0.81,-3.32,3.33,3.22,4.74,2.51,2.52,2.51
37.43,-0.58,-3.09,-0.58,-3.09,3.12,3.10,4.61,2.54,2.54,2.51
37.81,-0.35,-2.87,-0.36,-2.87,2.91,2.99,4.47,2.56,2.55,2.52
38.19,-0.15,-2.66,-0.16,-2.68,2.70,2.87,4.33,2.55,2.54,2.51
38.57,0.01,-2.50,0.01,-2.50,2.50,2.76,4.20,2.51,2.52,2.51
38.95,0.17,-2.34,0.19,-2.33,2.30,2.64,4.06,2.48,2.49,2.52
39.34,0.36,-2.15,0.36,-2.16,2.11,2.52,3.92,2.48,2.47,2.51
39.74,0.55,-1.96,0.55,-1.97,1.93,2.39,3.78,2.48,2.48,2.51
40.14,0.74,-1.77,0.76,-1.75,1.76,2.27,3.65,2.50,2.51,2.51
40.54,0.95,-1.55,0.95,-1.55,1.59,2.14,3.51,2.54,2.54,2.50
40.94,1.16,-1.34,1.13,-1.37,1.41,2.02,3.38,2.58,2.54,2.50
41.35,1.27,-1.22,1.27,-1.23,1.24,1.89,3.25,2.51,2.51,2.50
41.76,1.37,-1.11,1.39,-1.10,1.08,1.76,3.12,2.45,2.47,2.48
42.18,1.50,-0.98,1.52,-0.96,0.92,1.63,2.99,2.42,2.44,2.48
42.60,1.69,-0.78,1.69,-0.79,0.77,1.50,2.86,2.46,2.45,2.47
43.03,1.87,-0.60,1.86,-0.61,0.62,1.37,2.73,2.49,2.47,2.47
43.46,2.01,-0.45,2.01,-0.45,0.47,1.24,2.61,2.48,2.48,2.46
43.90,2.15,-0.30,2.15,-0.31,0.31,1.11,2.49,2.46,2.46,2.45
44.33,2.27,-0.17,2.27,-0.17,0.16,0.98,2.36,2.43,2.43,2.45
44.78,2.40,-0.04,2.41,-0.03,0.01,0.86,2.25,2.41,2.42,2.44
45.23,2.54,0.11,2.55,0.12,-0.13,0.73,2.13,2.41,2.43,2.43
45.68,2.70,0.27,2.69,0.26,-0.25,0.61,2.01,2.45,2.44,2.43
46.13,2.83,0.40,2.81,0.38,-0.36,0.49,1.90,2.47,2.45,2.43
46.60,2.90,0.47,2.91,0.48,-0.46,0.37,1.79,2.44,2.44,2.43
47.06,2.97,0.54,2.98,0.55,-0.55,0.26,1.68,2.43,2.44,2.43
47.53,3.04,0.61,3.04,0.61,-0.61,0.15,1.57,2.43,2.43,2.43
48.01,3.11,0.67,3.10,0.66,-0.66,0.05,1.46,2.46,2.44,2.44
48.49,3.12,0.68,3.13,0.69,-0.68,-0.05,1.36,2.44,2.45,2.44
48.97,3.14,0.70,3.14,0.69,-0.69,-0.14,1.25,2.45,2.45,2.44
49.46,3.13,0.68,3.13,0.68,-0.69,-0.23,1.15,2.45,2.44,2.45
49.96,3.11,0.65,3.12,0.66,-0.66,-0.31,1.05,2.45,2.46,2.46
50.46,3.09,0.63,3.09,0.63,-0.63,-0.38,0.95,2.47,2.47,2.46
50.96,3.07,0.60,3.06,0.59,-0.58,-0.44,0.86,2.50,2.49,2.47
51.47,3.01,0.54,3.01,0.54,-0.52,-0.49,0.76,2.49,2.50,2.47
51.99,2.95,0.48,2.94,0.47,-0.45,-0.54,0.67,2.50,2.49,2.48
52.51,2.86,0.39,2.86,0.39,-0.40,-0.57,0.59,2.47,2.47,2.48
53.03,2.78,0.30,2.79,0.32,-0.34,-0.60,0.50,2.44,2.45,2.48
53.56,2.74,0.26,2.74,0.26,-0.29,-0.61,0.42,2.45,2.44,2.48
54.10,2.71,0.22,2.71,0.23,-0.25,-0.62,0.33,2.46,2.46,2.49
54.64,2.70,0.21,2.70,0.22,-0.22,-0.62,0.26,2.48,2.48,2.49
55.18,2.70,0.22,2.71,0.22,-0.21,-0.60,0.18,2.49,2.50,2.49
55.74,2.71,0.24,2.70,0.22,-0.21,-0.58,0.11,2.50,2.49,2.48
56.29,2.69,0.22,2.67,0.20,-0.22,-0.54,0.04,2.47,2.46,2.47
56.86,2.63,0.16,2.66,0.19,-0.22,-0.50,-0.02,2.41,2.44,2.47
57.42,2.64,0.18,2.66,0.20,-0.22,-0.45,-0.08,2.42,2.44,2.46
58.00,2.69,0.24,2.68,0.23,-0.21,-0.38,-0.14,2.48,2.47,2.45
58.58,2.68,0.25,2.67,0.23,-0.18,-0.31,-0.19,2.50,2.49,2.43
59.16,2.63,0.21,2.60,0.18,-0.13,-0.24,-0.24,2.50,2.47,2.42
59.76,2.47,0.07,2.50,0.10,-0.07,-0.15,-0.28,2.40,2.43,2.41
60.35,2.36,-0.02,2.38,-0.00,-0.00,-0.06,-0.32,2.36,2.38,2.38
60.96,2.29,-0.07,2.25,-0.11,0.08,0.03,-0.36,2.37,2.33,2.36
61.57,2.12,-0.21,2.13,-0.20,0.17,0.12,-0.39,2.29,2.30,2.33
62.18,1.97,-0.33,2.00,-0.29,0.27,0.21,-0.41,2.25,2.28,2.30
62.80,1.89,-0.37,1.87,-0.38,0.38,0.30,-0.43,2.27,2.26,2.26
63.43,1.76,-0.45,1.75,-0.46,0.49,0.38,-0.45,2.25,2.25,2.21
64.07,1.62,-0.56,1.62,-0.56,0.60,0.46,-0.46,2.22,2.21,2.18
64.71,1.45,-0.68,1.46,-0.68,0.69,0.54,-0.47,2.15,2.15,2.13
65.35,1.29,-0.80,1.29,-0.80,0.79,0.61,-0.47,2.08,2.08,2.09
66.01,1.14,-0.91,1.13,-0.92,0.87,0.67,-0.46,2.02,2.01,2.05
66.67,1.00,-1.01,1.02,-1.00,0.96,0.74,-0.46,1.96,1.97,2.01
67.33,0.91,-1.07,0.93,-1.05,1.03,0.80,-0.45,1.94,1.96,1.98
68.01,0.88,-1.06,0.86,-1.08,1.10,0.87,-0.43,1.98,1.96,1.94
68.69,0.80,-1.11,0.79,-1.13,1.16,0.94,-0.41,1.96,1.94,1.91
69.37,0.70,-1.18,0.70,-1.18,1.21,1.00,-0.39,1.91,1.91,1.88
70.07,0.58,-1.27,0.61,-1.24,1.26,1.07,-0.37,1.84,1.86,1.85
70.77,0.53,-1.29,0.52,-1.30,1.30,1.14,-0.34,1.83,1.82,1.82
71.48,0.45,-1.34,0.44,-1.35,1.34,1.20,-0.31,1.79,1.78,1.80
72.19,0.36,-1.40,0.38,-1.39,1.38,1.27,-0.27,1.74,1.75,1.76
72.91,0.31,-1.42,0.31,-1.42,1.41,1.33,-0.24,1.72,1.72,1.73
73.64,0.25,-1.44,0.25,-1.45,1.44,1.39,-0.20,1.69,1.68,1.69
74.38,0.20,-1.46,0.20,-1.46,1.46,1.45,-0.16,1.66,1.66,1.66
75.12,0.14,-1.48,0.16,-1.46,1.47,1.51,-0.12,1.61,1.63,1.62
75.87,0.14,-1.44,0.12,-1.46,1.48,1.57,-0.07,1.62,1.60,1.58
76.63,0.08,-1.46,0.07,-1.47,1.48,1.63,-0.03,1.56,1.54,1.54
77.40,0.00,-1.49,0.01,-1.48,1.47,1.68,0.02,1.47,1.48,1.49
78.17,-0.06,-1.51,-0.04,-1.49,1.46,1.73,0.06,1.40,1.43,1.45
78.95,-0.06,-1.46,-0.06,-1.47,1.45,1.78,0.11,1.40,1.39,1.41
79.74,-0.07,-1.44,-0.08,-1.45,1.45,1.83,0.16,1.38,1.36,1.37
80.54,-0.11,-1.43,-0.10,-1.42,1.45,1.87,0.21,1.34,1.35,1.32
81.35,-0.15,-1.43,-0.14,-1.42,1.45,1.91,0.26,1.30,1.31,1.28
82.16,-0.17,-1.41,-0.19,-1.43,1.44,1.95,0.32,1.27,1.25,1.24
82.98,-0.25,-1.44,-0.24,-1.44,1.44,1.99,0.37,1.19,1.20,1.20
83.81,-0.32,-1.47,-0.30,-1.46,1.44,2.02,0.42,1.12,1.14,1.15
84.65,-0.35,-1.47,-0.36,-1.48,1.45,2.05,0.47,1.10,1.09,1.12
85.50,-0.40,-1.48,-0.40,-1.48,1.46,2.08,0.53,1.06,1.06,1.08
86.35,-0.44,-1.47,-0.41,-1.45,1.46,2.11,0.58,1.02,1.05,1.04
87.22,-0.44,-1.43,-0.45,-1.45,1.47,2.13,0.64,1.03,1.01,0.99
88.09,-0.46,-1.41,-0.51,-1.46,1.46,2.15,0.69,1.01,0.96,0.95
88.97,-0.61,-1.52,-0.56,-1.47,1.46,2.17,0.75,0.86,0.90,0.91
89.86,-0.63,-1.50,-0.61,-1.48,1.47,2.19,0.81,0.84,0.86,0.87
90.76,-0.63,-1.45,-0.65,-1.48,1.47,2.20,0.86,0.84,0.82,0.82
91.66,-0.66,-1.45,-0.68,-1.47,1.48,2.21,0.92,0.82,0.80,0.79
92.58,-0.75,-1.50,-0.73,-1.48,1.49,2.22,0.98,0.75,0.76,0.75
93.51,-0.82,-1.52,-0.79,-1.49,1.51,2.23,1.04,0.69,0.72,0.71
94.44,-0.82,-1.49,-0.85,-1.52,1.52,2.24,1.10,0.70,0.66,0.67
95.39,-0.89,-1.52,-0.91,-1.54,1.53,2.24,1.15,0.64,0.62,0.63
96.34,-1.01,-1.60,-0.96,-1.56,1.54,2.24,1.21,0.54,0.58,0.59
97.30,-1.02,-1.58,-1.01,-1.57,1.56,2.24,1.27,0.54,0.55,0.56
98.28,-1.04,-1.55,-1.06,-1.57,1.59,2.24,1.33,0.55,0.52,0.51
99.26,-1.09,-1.56,-1.11,-1.59,1.61,2.24,1.39,0.52,0.49,0.47
100.25,-1.22,-1.65,-1.18,-1.62,1.63,2.24,1.45,0.41,0.45,0.43
101.25,-1.27,-1.66,-1.26,-1.65,1.65,2.23,1.51,0.38,0.39,0.40
102.27,-1.31,-1.66,-1.34,-1.68,1.67,2.22,1.57,0.36,0.33,0.35
103.29,-1.40,-1.70,-1.40,-1.70,1.69,2.22,1.62,0.29,0.29,0.30
104.32,-1.49,-1.74,-1.47,-1.72,1.71,2.21,1.68,0.22,0.24,0.25
105.37,-1.53,-1.74,-1.52,-1.73,1.73,2.20,1.74,0.20,0.20,0.21
106.42,-1.55,-1.71,-1.56,-1.73,1.74,2.19,1.79,0.19,0.18,0.16
107.48,-1.61,-1.72,-1.61,-1.73,1.75,2.17,1.85,0.14,0.14,0.12
108.56,-1.68,-1.75,-1.69,-1.75,1.76,2.16,1.90,0.08,0.07,0.07
109.64,-1.77,-1.79,-1.76,-1.78,1.77,2.15,1.95,-0.00,0.01,0.02
110.74,-1.83,-1.81,-1.81,-1.79,1.78,2.13,2.00,-0.05,-0.04,-0.02
111.85,-1.85,-1.79,-1.85,-1.79,1.79,2.12,2.05,-0.06,-0.06,-0.06
112.97,-1.86,-1.76,-1.88,-1.78,1.79,2.10,2.10,-0.06,-0.08,-0.09
114.10,-1.92,-1.79,-1.92,-1.79,1.80,2.08,2.14,-0.12,-0.12,-0.13
115.24,-1.97,-1.81,-1.97,-1.81,1.80,2.06,2.18,-0.16,-0.17,-0.16
116.39,-2.03,-1.83,-2.02,-1.83,1.81,2.05,2.22,-0.22,-0.21,-0.20
117.55,-2.06,-1.85,-2.04,-1.82,1.82,2.03,2.26,-0.24,-0.22,-0.21
118.73,-2.05,-1.81,-2.05,-1.81,1.83,2.01,2.29,-0.22,-0.22,-0.24
119.92,-2.04,-1.78,-2.07,-1.81,1.84,1.99,2.32,-0.20,-0.23,-0.26
121.12,-2.11,-1.84,-2.11,-1.84,1.85,1.98,2.34,-0.26,-0.26,-0.27
122.33,-2.18,-1.89,-2.16,-1.87,1.86,1.96,2.36,-0.32,-0.31,-0.29
123.55,-2.21,-1.91,-2.20,-1.90,1.87,1.94,2.38,-0.34,-0.33,-0.30
124.79,-2.21,-1.89,-2.21,-1.89,1.88,1.92,2.40,-0.33,-0.33,-0.32
126.03,-2.20,-1.87,-2.21,-1.88,1.90,1.90,2.41,-0.30,-0.31,-0.33
127.29,-2.22,-1.87,-2.24,-1.89,1.92,1.88,2.42,-0.30,-0.32,-0.34
128.57,-2.28,-1.92,-2.28,-1.93,1.93,1.87,2.42,-0.34,-0.35,-0.36
129.85,-2.36,-1.99,-2.33,-1.96,1.95,1.85,2.42,-0.40,-0.37,-0.37
131.15,-2.37,-1.99,-2.37,-1.98,1.98,1.83,2.42,-0.39,-0.39,-0.38
132.46,-2.38,-1.97,-2.40,-2.00,2.00,1.82,2.41,-0.38,-0.40,-0.40
133.79,-2.44,-2.02,-2.43,-2.01,2.02,1.80,2.41,-0.42,-0.41,-0.42
135.12,-2.47,-2.03,-2.47,-2.04,2.03,1.78,2.39,-0.43,-0.44,-0.44
136.48,-2.52,-2.07,-2.51,-2.06,2.04,1.77,2.38,-0.48,-0.47,-0.45
137.84,-2.54,-2.07,-2.53,-2.07,2.05,1.75,2.36,-0.49,-0.49,-0.47
139.22,-2.54,-2.05,-2.54,-2.05,2.05,1.74,2.35,-0.49,-0.49,-0.49
140.61,-2.54,-2.03,-2.53,-2.03,2.04,1.73,2.32,-0.49,-0.49,-0.51
142.02,-2.53,-2.01,-2.55,-2.02,2.04,1.71,2.30,-0.49,-0.51,-0.52
143.44,-2.57,-2.02,-2.57,-2.02,2.04,1.70,2.28,-0.53,-0.53,-0.55
144.87,-2.62,-2.04,-2.60,-2.02,2.03,1.69,2.25,-0.59,-0.57,-0.58
146.32,-2.63,-2.02,-2.63,-2.02,2.02,1.68,2.23,-0.61,-0.60,-0.60
147.78,-2.63,-1.99,-2.65,-2.02,2.01,1.67,2.20,-0.62,-0.65,-0.64
149.26,-2.69,-2.01,-2.68,-2.01,1.99,1.66,2.18,-0.70,-0.70,-0.68
150.75,-2.73,-2.01,-2.71,-1.99,1.96,1.65,2.15,-0.77,-0.75,-0.72
152.26,-2.73,-1.95,-2.73,-1.96,1.93,1.64,2.12,-0.80,-0.80,-0.77
153.78,-2.73,-1.90,-2.73,-1.90,1.90,1.64,2.10,-0.83,-0.83,-0.83
155.32,-2.73,-1.84,-2.73,-1.84,1.87,1.63,2.07,-0.86,-0.86,-0.89
156.88,-2.73,-1.79,-2.75,-1.80,1.83,1.63,2.05,-0.89,-0.91,-0.94
158.44,-2.80,-1.79,-2.78,-1.78,1.80,1.62,2.02,-0.99,-0.98,-1.01
160.03,-2.82,-1.76,-2.83,-1.78,1.78,1.62,2.00,-1.04,-1.05,-1.06
161.63,-2.89,-1.79,-2.88,-1.77,1.76,1.62,1.97,-1.13,-1.12,-1.10
163.24,-2.91,-1.76,-2.90,-1.76,1.74,1.61,1.95,-1.17,-1.16,-1.15
164.88,-2.92,-1.74,-2.92,-1.74,1.73,1.61,1.93,-1.19,-1.19,-1.18
166.53,-2.93,-1.72,-2.93,-1.72,1.72,1.61,1.91,-1.21,-1.20,-1.21
168.19,-2.93,-1.70,-2.93,-1.71,1.71,1.61,1.89,-1.22,-1.22,-1.23
169.87,-2.94,-1.70,-2.94,-1.70,1.71,1.61,1.87,-1.23,-1.23,-1.23
171.57,-2.95,-1.71,-2.95,-1.71,1.70,1.62,1.86,-1.24,-1.24,-1.24
173.29,-2.95,-1.71,-2.95,-1.72,1.72,1.62,1.84,-1.23,-1.24,-1.24
175.02,-2.96,-1.73,-2.95,-1.72,1.74,1.62,1.83,-1.22,-1.21,-1.23
176.77,-2.96,-1.75,-2.96,-1.75,1.77,1.63,1.82,-1.18,-1.19,-1.21
178.54,-2.96,-1.76,-2.98,-1.78,1.81,1.63,1.81,-1.14,-1.16,-1.20
180.32,-3.03,-1.86,-3.02,-1.84,1.86,1.64,1.80,-1.17,-1.16,-1.17
182.13,-3.05,-1.89,-3.07,-1.91,1.90,1.65,1.79,-1.15,-1.17,-1.16
183.95,-3.14,-2.01,-3.11,-1.97,1.93,1.65,1.78,-1.21,-1.18,-1.13
185.79,-3.12,-1.99,-3.12,-1.99,1.96,1.66,1.78,-1.16,-1.16,-1.13
187.65,-3.11,-1.99,-3.12,-2.00,1.98,1.67,1.77,-1.13,-1.14,-1.12
189.52,-3.09,-1.98,-3.09,-1.98,1.98,1.68,1.77,-1.10,-1.11,-1.11
191.42,-3.08,-1.96,-3.08,-1.97,1.98,1.69,1.77,-1.10,-1.10,-1.12
193.33,-3.07,-1.96,-3.06,-1.95,1.96,1.70,1.77,-1.11,-1.10,-1.11
195.27,-3.05,-1.94,-3.05,-1.94,1.94,1.71,1.77,-1.11,-1.11,-1.11
197.22,-3.04,-1.92,-3.04,-1.92,1.92,1.72,1.78,-1.12,-1.12,-1.12
199.19,-3.03,-1.91,-3.03,-1.90,1.90,1.73,1.78,-1.13,-1.13,-1.12
201.18,-3.02,-1.89,-3.01,-1.88,1.89,1.74,1.78,-1.13,-1.12,-1.13
203.19,-3.01,-1.87,-3.01,-1.87,1.89,1.75,1.79,-1.12,-1.12,-1.14
205.23,-3.01,-1.86,-3.02,-1.87,1.89,1.77,1.80,-1.12,-1.14,-1.15
207.28,-3.05,-1.89,-3.05,-1.89,1.89,1.78,1.80,-1.16,-1.16,-1.16
209.35,-3.10,-1.93,-3.08,-1.90,1.90,1.79,1.81,-1.19,-1.17,-1.17
211.44,-3.11,-1.92,-3.11,-1.92,1.92,1.80,1.82,-1.19,-1.19,-1.19
213.56,-3.12,-1.92,-3.14,-1.94,1.94,1.82,1.83,-1.18,-1.21,-1.20
215.69,-3.18,-1.96,-3.17,-1.95,1.95,1.83,1.83,-1.23,-1.22,-1.22
217.85,-3.22,-1.99,-3.20,-1.97,1.96,1.84,1.84,-1.26,-1.24,-1.23
220.03,-3.22,-1.97,-3.23,-1.98,1.97,1.86,1.85,-1.25,-1.26,-1.25
222.23,-3.23,-1.98,-3.23,-1.98,1.97,1.87,1.86,-1.26,-1.26,-1.25
224.45,-3.23,-1.97,-3.23,-1.97,1.96,1.88,1.87,-1.26,-1.26,-1.26
226.70,-3.23,-1.96,-3.23,-1.96,1.96,1.89,1.88,-1.27,-1.27,-1.27
228.96,-3.22,-1.94,-3.22,-1.95,1.95,1.91,1.88,-1.27,-1.27,-1.27
231.25,-3.21,-1.94,-3.21,-1.94,1.94,1.92,1.89,-1.27,-1.27,-1.27
233.57,-3.21,-1.93,-3.20,-1.92,1.93,1.93,1.89,-1.27,-1.27,-1.28
235.90,-3.19,-1.91,-3.19,-1.91,1.93,1.94,1.90,-1.26,-1.26,-1.27
238.26,-3.18,-1.91,-3.18,-1.92,1.93,1.95,1.90,-1.25,-1.25,-1.27
240.64,-3.18,-1.92,-3.19,-1.93,1.94,1.96,1.90,-1.24,-1.26,-1.26
243.05,-3.21,-1.96,-3.20,-1.95,1.94,1.97,1.90,-1.27,-1.26,-1.25
245.48,-3.22,-1.97,-3.20,-1.96,1.94,1.98,1.90,-1.28,-1.27,-1.25
247.93,-3.19,-1.95,-3.19,-1.95,1.94,1.99,1.90,-1.25,-1.26,-1.24
250.41,-3.17,-1.93,-3.17,-1.94,1.93,2.00,1.90,-1.24,-1.24,-1.24
252.92,-3.16,-1.93,-3.16,-1.92,1.92,2.01,1.89,-1.23,-1.23,-1.23
255.45,-3.15,-1.91,-3.15,-1.91,1.91,2.01,1.89,-1.23,-1.23,-1.24
258.00,-3.14,-1.90,-3.14,-1.90,1.90,2.02,1.88,-1.24,-1.23,-1.24
260.58,-3.13,-1.88,-3.13,-1.88,1.89,2.03,1.87,-1.24,-1.24,-1.25
263.19,-3.13,-1.88,-3.13,-1.88,1.88,2.03,1.86,-1.25,-1.25,-1.25
265.82,-3.13,-1.87,-3.13,-1.88,1.88,2.03,1.85,-1.25,-1.25,-1.25
268.48,-3.14,-1.88,-3.13,-1.88,1.88,2.04,1.84,-1.26,-1.26,-1.26
271.16,-3.14,-1.88,-3.14,-1.88,1.87,2.04,1.82,-1.26,-1.27,-1.26
273.87,-3.14,-1.87,-3.14,-1.88,1.87,2.04,1.81,-1.26,-1.27,-1.27
276.61,-3.15,-1.88,-3.14,-1.87,1.87,2.04,1.80,-1.27,-1.27,-1.27
279.38,-3.14,-1.87,-3.14,-1.87,1.87,2.04,1.78,-1.26,-1.27,-1.27
282.17,-3.14,-1.87,-3.14,-1.87,1.87,2.04,1.76,-1.27,-1.27,-1.27
284.99,-3.14,-1.88,-3.13,-1.87,1.87,2.04,1.75,-1.27,-1.26,-1.26
287.84,-3.13,-1.87,-3.13,-1.87,1.87,2.03,1.73,-1.26,-1.26,-1.26
290.72,-3.12,-1.86,-3.12,-1.87,1.86,2.03,1.71,-1.26,-1.26,-1.26
293.63,-3.11,-1.86,-3.11,-1.86,1.86,2.02,1.70,-1.25,-1.25,-1.25
296.57,-3.09,-1.85,-3.09,-1.85,1.85,2.02,1.68,-1.24,-1.24,-1.24
299.53,-3.08,-1.84,-3.08,-1.84,1.84,2.01,1.66,-1.24,-1.24,-1.24
302.53,-3.07,-1.83,-3.07,-1.83,1.83,2.00,1.65,-1.24,-1.24,-1.24
305.55,-3.06,-1.82,-3.06,-1.82,1.82,1.99,1.63,-1.24,-1.24,-1.24
308.61,-3.05,-1.81,-3.05,-1.81,1.81,1.98,1.62,-1.24,-1.24,-1.24
311.69,-3.04,-1.80,-3.04,-1.80,1.80,1.97,1.60,-1.24,-1.24,-1.24
314.81,-3.04,-1.78,-3.04,-1.79,1.79,1.96,1.59,-1.25,-1.25,-1.26
317.96,-3.04,-1.78,-3.04,-1.78,1.78,1.95,1.58,-1.26,-1.26,-1.26
321.14,-3.04,-1.77,-3.04,-1.77,1.77,1.94,1.57,-1.27,-1.27,-1.27
324.35,-3.04,-1.77,-3.04,-1.76,1.76,1.93,1.56,-1.28,-1.28,-1.27
327.59,-3.04,-1.76,-3.04,-1.75,1.75,1.91,1.55,-1.29,-1.29,-1.28
330.87,-3.04,-1.74,-3.04,-1.74,1.75,1.90,1.54,-1.29,-1.29,-1.30
334.18,-3.04,-1.73,-3.04,-1.73,1.74,1.88,1.53,-1.30,-1.30,-1.31
337.52,-3.04,-1.72,-3.04,-1.72,1.73,1.87,1.52,-1.31,-1.31,-1.32
340.90,-3.04,-1.72,-3.04,-1.72,1.72,1.85,1.52,-1.32,-1.32,-1.32
344.30,-3.05,-1.72,-3.04,-1.71,1.71,1.84,1.52,-1.34,-1.34,-1.33
347.75,-3.05,-1.70,-3.05,-1.70,1.68,1.82,1.51,-1.37,-1.37,-1.35
351.23,-3.04,-1.67,-3.04,-1.68,1.65,1.80,1.51,-1.38,-1.39,-1.36
354.74,-3.04,-1.66,-3.02,-1.64,1.62,1.79,1.51,-1.41,-1.40,-1.38
358.28,-2.98,-1.59,-2.99,-1.60,1.59,1.77,1.51,-1.38,-1.39,-1.39
361.87,-2.95,-1.55,-2.95,-1.55,1.57,1.75,1.51,-1.38,-1.39,-1.40
365.49,-2.93,-1.51,-2.92,-1.51,1.54,1.73,1.52,-1.39,-1.38,-1.42
369.14,-2.92,-1.49,-2.92,-1.49,1.52,1.72,1.52,-1.40,-1.40,-1.43
372.83,-2.92,-1.48,-2.93,-1.49,1.51,1.70,1.53,-1.41,-1.43,-1.44
376.56,-2.97,-1.52,-2.96,-1.51,1.50,1.68,1.53,-1.47,-1.46,-1.45
380.33,-2.99,-1.52,-2.98,-1.51,1.49,1.66,1.54,-1.50,-1.49,-1.46
384.13,-2.99,-1.51,-2.99,-1.51,1.48,1.65,1.55,-1.50,-1.50,-1.48
387.97,-2.98,-1.49,-2.98,-1.50,1.49,1.63,1.56,-1.49,-1.50,-1.49
391.85,-2.98,-1.48,-2.98,-1.48,1.49,1.61,1.57,-1.49,-1.49,-1.50
395.77,-2.98,-1.47,-2.97,-1.47,1.49,1.60,1.58,-1.49,-1.49,-1.51
399.73,-2.98,-1.46,-2.99,-1.47,1.49,1.58,1.59,-1.49,-1.50,-1.52
403.72,-3.00,-1.47,-3.01,-1.48,1.48,1.56,1.61,-1.51,-1.53,-1.53
407.76,-3.06,-1.51,-3.05,-1.50,1.49,1.55,1.62,-1.57,-1.56,-1.55
411.84,-3.08,-1.52,-3.07,-1.51,1.50,1.53,1.63,-1.58,-1.58,-1.56
415.96,-3.09,-1.52,-3.08,-1.51,1.51,1.52,1.64,-1.58,-1.58,-1.57
420.12,-3.08,-1.51,-3.08,-1.51,1.52,1.50,1.66,-1.56,-1.56,-1.57
424.32,-3.08,-1.49,-3.10,-1.51,1.53,1.49,1.67,-1.55,-1.57,-1.58
428.56,-3.12,-1.53,-3.11,-1.53,1.54,1.48,1.68,-1.58,-1.58,-1.58
432.85,-3.14,-1.56,-3.13,-1.55,1.53,1.46,1.69,-1.61,-1.59,-1.58
437.18,-3.12,-1.55,-3.12,-1.56,1.53,1.45,1.70,-1.59,-1.59,-1.57
441.55,-3.09,-1.54,-3.09,-1.54,1.52,1.44,1.71,-1.57,-1.57,-1.55
445.96,-3.04,-1.51,-3.04,-1.52,1.51,1.42,1.72,-1.53,-1.53,-1.53
450.42,-2.99,-1.49,-2.98,-1.49,1.50,1.41,1.72,-1.49,-1.48,-1.50
454.93,-2.93,-1.47,-2.93,-1.47,1.49,1.39,1.73,-1.44,-1.43,-1.46
459.48,-2.87,-1.45,-2.88,-1.46,1.48,1.38,1.73,-1.39,-1.40,-1.42
464.07,-2.85,-1.46,-2.85,-1.47,1.47,1.36,1.73,-1.38,-1.38,-1.39
468.71,-2.84,-1.49,-2.82,-1.47,1.46,1.34,1.73,-1.37,-1.36,-1.35
473.40,-2.79,-1.48,-2.79,-1.48,1.46,1.32,1.73,-1.33,-1.33,-1.31
478.13,-2.74,-1.47,-2.74,-1.47,1.46,1.30,1.72,-1.28,-1.28,-1.27
