frequency,raw,error,smoothed,error_smoothed,equalization,parametric_eq,fixed_band_eq,equalized_raw,equalized_smoothed,target
20.00,-4.86,-10.01,-4.86,-10.01,6.00,5.28,2.78,1.14,1.14,5.15
20.20,-4.82,-9.95,-4.83,-9.95,6.00,5.32,2.86,1.18,1.17,5.13
20.40,-4.79,-9.89,-4.79,-9.89,6.00,5.35,2.94,1.21,1.21,5.10
20.61,-4.75,-9.83,-4.75,-9.83,6.00,5.39,3.02,1.25,1.25,5.08
20.81,-4.71,-9.77,-4.71,-9.77,6.00,5.43,3.11,1.29,1.29,5.06
21.02,-4.67,-9.70,-4.67,-9.70,6.00,5.46,3.20,1.33,1.33,5.03
21.23,-4.63,-9.64,-4.63,-9.64,6.00,5.50,3.29,1.37,1.37,5.01
21.44,-4.59,-9.58,-4.60,-9.58,6.00,5.53,3.38,1.41,1.40,4.99
21.66,-4.56,-9.53,-4.56,-9.53,6.00,5.56,3.48,1.44,1.44,4.97
21.87,-4.54,-9.49,-4.53,-9.48,6.00,5.59,3.58,1.46,1.47,4.95
22.09,-4.50,-9.43,-4.51,-9.43,6.00,5.63,3.68,1.50,1.49,4.93
22.31,-4.47,-9.38,-4.48,-9.38,6.00,5.66,3.78,1.53,1.52,4.91
22.54,-4.45,-9.33,-4.44,-9.32,6.00,5.69,3.89,1.55,1.56,4.88
22.76,-4.40,-9.26,-4.41,-9.26,6.00,5.72,4.00,1.60,1.59,4.86
22.99,-4.37,-9.21,-4.37,-9.20,6.00,5.74,4.11,1.63,1.63,4.84
23.22,-4.32,-9.14,-4.32,-9.14,6.00,5.77,4.22,1.68,1.68,4.82
23.45,-4.27,-9.08,-4.27,-9.08,6.00,5.80,4.34,1.73,1.73,4.81
23.69,-4.22,-9.01,-4.22,-9.00,6.00,5.83,4.46,1.78,1.78,4.79
23.92,-4.16,-8.94,-4.16,-8.94,6.00,5.85,4.58,1.84,1.84,4.77
24.16,-4.11,-8.87,-4.12,-8.87,6.00,5.87,4.71,1.89,1.88,4.75
24.40,-4.07,-8.81,-4.07,-8.81,6.00,5.90,4.83,1.93,1.93,4.74
24.65,-4.03,-8.77,-4.03,-8.76,6.00,5.92,4.96,1.97,1.97,4.73
24.89,-3.98,-8.69,-3.99,-8.70,6.00,5.94,5.09,2.02,2.01,4.71
25.14,-3.95,-8.65,-3.95,-8.65,6.00,5.96,5.22,2.05,2.05,4.70
25.39,-3.90,-8.59,-3.90,-8.59,6.00,5.98,5.36,2.10,2.10,4.69
25.65,-3.86,-8.54,-3.86,-8.54,6.00,6.00,5.49,2.14,2.14,4.68
25.91,-3.80,-8.47,-3.80,-8.47,6.00,6.01,5.62,2.20,2.20,4.67
26.16,-3.75,-8.41,-3.75,-8.40,6.00,6.03,5.76,2.25,2.25,4.66
26.43,-3.68,-8.32,-3.68,-8.33,6.00,6.04,5.89,2.32,2.32,4.64
26.69,-3.62,-8.25,-3.62,-8.25,6.00,6.05,6.02,2.38,2.38,4.63
26.96,-3.55,-8.17,-3.55,-8.17,6.00,6.06,6.15,2.45,2.45,4.62
27.23,-3.49,-8.10,-3.50,-8.10,6.00,6.07,6.28,2.51,2.50,4.61
27.50,-3.44,-8.04,-3.44,-8.04,6.00,6.08,6.41,2.56,2.56,4.60
27.77,-3.40,-8.00,-3.40,-7.99,6.00,6.09,6.53,2.60,2.60,4.60
28.05,-3.35,-7.94,-3.36,-7.94,6.00,6.10,6.65,2.65,2.64,4.59
28.33,-3.32,-7.90,-3.32,-7.90,6.00,6.10,6.76,2.68,2.68,4.57
28.62,-3.28,-7.86,-3.28,-7.85,6.00,6.11,6.86,2.72,2.72,4.57
28.90,-3.25,-7.81,-3.25,-7.82,6.00,6.11,6.96,2.75,2.75,4.56
29.19,-3.22,-7.78,-3.22,-7.78,6.00,6.11,7.05,2.78,2.78,4.56
29.48,-3.18,-7.73,-3.19,-7.74,6.00,6.11,7.14,2.82,2.81,4.55
29.78,-3.15,-7.70,-3.15,-7.70,6.00,6.11,7.21,2.85,2.85,4.55
30.08,-3.11,-7.65,-3.11,-7.65,6.00,6.11,7.27,2.89,2.89,4.54
30.38,-3.07,-7.61,-3.07,-7.60,6.00,6.10,7.33,2.93,2.93,4.54
30.68,-3.02,-7.55,-3.02,-7.55,6.00,6.10,7.37,2.98,2.98,4.53
30.99,-2.97,-7.49,-2.97,-7.49,6.00,6.10,7.41,3.03,3.03,4.52
31.30,-2.92,-7.44,-2.92,-7.43,6.00,6.09,7.43,3.08,3.08,4.51
31.61,-2.86,-7.36,-2.87,-7.37,6.00,6.09,7.44,3.14,3.13,4.50
31.93,-2.81,-7.30,-2.81,-7.31,6.00,6.08,7.44,3.19,3.19,4.49
32.24,-2.76,-7.25,-2.76,-7.24,6.00,6.07,7.43,3.24,3.24,4.49
32.57,-2.70,-7.18,-2.71,-7.19,6.00,6.07,7.41,3.30,3.29,4.48
32.89,-2.66,-7.13,-2.66,-7.13,6.00,6.06,7.38,3.34,3.34,4.47
33.22,-2.61,-7.07,-2.61,-7.07,6.00,6.06,7.34,3.39,3.39,4.46
33.55,-2.57,-7.02,-2.58,-7.02,6.00,6.05,7.29,3.43,3.42,4.44
33.89,-2.54,-6.97,-2.54,-6.97,6.00,6.04,7.24,3.46,3.46,4.43
34.23,-2.50,-6.92,-2.50,-6.93,6.00,6.04,7.18,3.50,3.50,4.42
34.57,-2.46,-6.88,-2.46,-6.88,6.00,6.03,7.11,3.54,3.54,4.42
34.92,-2.42,-6.83,-2.42,-6.83,6.00,6.03,7.04,3.58,3.58,4.41
35.27,-2.38,-6.78,-2.38,-6.78,6.00,6.03,6.96,3.62,3.62,4.40
35.62,-2.33,-6.73,-2.33,-6.72,6.00,6.02,6.89,3.67,3.67,4.39
35.97,-2.28,-6.66,-2.28,-6.67,6.00,6.02,6.80,3.72,3.72,4.38
36.33,-2.23,-6.61,-2.23,-6.61,6.00,6.01,6.72,3.77,3.77,4.38
36.70,-2.19,-6.56,-2.19,-6.56,6.00,6.01,6.63,3.81,3.81,4.37
37.06,-2.15,-6.51,-2.15,-6.51,6.00,6.01,6.55,3.85,3.85,4.35
37.43,-2.12,-6.47,-2.12,-6.47,6.00,6.00,6.46,3.88,3.88,4.35
37.81,-2.09,-6.43,-2.09,-6.43,6.00,6.00,6.38,3.91,3.91,4.34
38.19,-2.06,-6.40,-2.07,-6.40,6.00,5.99,6.29,3.94,3.93,4.34
38.57,-2.05,-6.38,-2.05,-6.37,6.00,5.98,6.21,3.95,3.95,4.32
38.95,-2.02,-6.34,-2.02,-6.34,6.00,5.98,6.13,3.98,3.98,4.32
39.34,-2.00,-6.31,-2.00,-6.31,6.00,5.97,6.05,4.00,4.00,4.31
39.74,-1.97,-6.28,-1.97,-6.28,6.00,5.96,5.98,4.03,4.03,4.31
40.14,-1.95,-6.24,-1.95,-6.25,6.00,5.95,5.90,4.05,4.05,4.29
40.54,-1.93,-6.22,-1.93,-6.21,6.00,5.94,5.84,4.07,4.07,4.29
40.94,-1.90,-6.18,-1.90,-6.18,6.00,5.93,5.77,4.10,4.10,4.28
41.35,-1.88,-6.15,-1.88,-6.15,6.01,5.92,5.71,4.13,4.12,4.27
41.76,-1.86,-6.12,-1.86,-6.12,6.01,5.90,5.65,4.15,4.15,4.26
42.18,-1.84,-6.10,-1.84,-6.09,6.00,5.89,5.59,4.16,4.17,4.25
42.60,-1.81,-6.05,-1.82,-6.06,6.00,5.88,5.54,4.19,4.18,4.24
43.03,-1.79,-6.03,-1.79,-6.02,5.98,5.86,5.50,4.19,4.20,4.24
43.46,-1.76,-5.98,-1.76,-5.99,5.97,5.84,5.45,4.20,4.20,4.22
43.90,-1.73,-5.95,-1.73,-5.95,5.94,5.82,5.42,4.21,4.21,4.22
44.33,-1.70,-5.91,-1.70,-5.91,5.91,5.81,5.38,4.21,4.21,4.21
44.78,-1.67,-5.87,-1.67,-5.87,5.88,5.79,5.35,4.20,4.21,4.20
45.23,-1.63,-5.82,-1.64,-5.83,5.84,5.76,5.33,4.20,4.20,4.19
45.68,-1.61,-5.80,-1.61,-5.79,5.80,5.74,5.30,4.18,4.19,4.19
46.13,-1.57,-5.75,-1.57,-5.75,5.76,5.72,5.28,4.18,4.18,4.18
46.60,-1.54,-5.72,-1.54,-5.72,5.72,5.70,5.27,4.18,4.18,4.18
47.06,-1.51,-5.68,-1.51,-5.68,5.69,5.67,5.26,4.17,4.17,4.17
47.53,-1.49,-5.65,-1.49,-5.65,5.66,5.65,5.25,4.16,4.17,4.16
48.01,-1.46,-5.62,-1.46,-5.62,5.63,5.63,5.25,4.16,4.16,4.16
48.49,-1.44,-5.59,-1.45,-5.60,5.60,5.60,5.25,4.16,4.15,4.15
48.97,-1.43,-5.58,-1.43,-5.57,5.57,5.57,5.25,4.14,4.14,4.14
49.46,-1.41,-5.55,-1.41,-5.55,5.54,5.55,5.26,4.13,4.13,4.14
49.96,-1.39,-5.52,-1.39,-5.52,5.51,5.52,5.27,4.12,4.13,4.13
50.46,-1.36,-5.48,-1.36,-5.49,5.49,5.49,5.28,4.12,4.12,4.12
50.96,-1.34,-5.46,-1.34,-5.46,5.46,5.47,5.29,4.12,4.11,4.11
51.47,-1.32,-5.43,-1.32,-5.43,5.43,5.44,5.31,4.10,4.11,4.11
51.99,-1.30,-5.40,-1.30,-5.40,5.39,5.41,5.33,4.09,4.10,4.10
52.51,-1.27,-5.36,-1.28,-5.36,5.36,5.38,5.35,4.09,4.09,4.09
53.03,-1.25,-5.33,-1.25,-5.33,5.33,5.35,5.37,4.08,4.08,4.08
53.56,-1.23,-5.30,-1.23,-5.30,5.30,5.32,5.39,4.07,4.07,4.07
54.10,-1.20,-5.26,-1.21,-5.27,5.27,5.29,5.41,4.07,4.06,4.06
54.64,-1.19,-5.24,-1.19,-5.24,5.24,5.26,5.43,4.05,4.05,4.05
55.18,-1.17,-5.21,-1.17,-5.21,5.21,5.23,5.45,4.04,4.04,4.04
55.74,-1.16,-5.19,-1.16,-5.19,5.19,5.20,5.47,4.03,4.03,4.03
56.29,-1.15,-5.17,-1.15,-5.16,5.16,5.17,5.48,4.01,4.02,4.02
56.86,-1.13,-5.14,-1.13,-5.14,5.14,5.14,5.50,4.01,4.01,4.01
57.42,-1.12,-5.12,-1.12,-5.12,5.12,5.11,5.51,4.00,4.00,3.99
58.00,-1.11,-5.10,-1.11,-5.10,5.10,5.08,5.52,3.99,3.99,3.99
58.58,-1.10,-5.08,-1.10,-5.08,5.07,5.05,5.52,3.97,3.98,3.98
59.16,-1.08,-5.05,-1.08,-5.05,5.05,5.02,5.52,3.97,3.97,3.97
59.76,-1.07,-5.02,-1.07,-5.03,5.03,4.99,5.52,3.96,3.96,3.95
60.35,-1.06,-5.01,-1.06,-5.01,5.00,4.96,5.51,3.94,3.94,3.95
60.96,-1.05,-4.98,-1.05,-4.98,4.98,4.93,5.49,3.93,3.93,3.93
61.57,-1.04,-4.96,-1.04,-4.96,4.96,4.89,5.47,3.92,3.92,3.92
62.18,-1.02,-4.92,-1.03,-4.93,4.93,4.86,5.45,3.91,3.91,3.90
62.80,-1.01,-4.90,-1.02,-4.91,4.91,4.83,5.42,3.90,3.90,3.89
63.43,-1.01,-4.89,-1.01,-4.88,4.89,4.80,5.38,3.88,3.88,3.88
64.07,-1.00,-4.87,-1.00,-4.86,4.86,4.77,5.34,3.86,3.86,3.86
64.71,-0.99,-4.84,-1.00,-4.84,4.84,4.74,5.30,3.85,3.84,3.85
65.35,-0.99,-4.82,-0.99,-4.82,4.81,4.71,5.24,3.82,3.82,3.83
66.01,-0.98,-4.79,-0.98,-4.79,4.78,4.68,5.19,3.80,3.81,3.81
66.67,-0.96,-4.75,-0.96,-4.75,4.75,4.64,5.12,3.79,3.79,3.79
67.33,-0.94,-4.71,-0.95,-4.72,4.72,4.61,5.06,3.78,3.77,3.77
68.01,-0.94,-4.69,-0.93,-4.69,4.69,4.58,4.99,3.75,3.76,3.75
68.69,-0.92,-4.65,-0.92,-4.65,4.66,4.55,4.91,3.73,3.73,3.73
69.37,-0.91,-4.62,-0.91,-4.62,4.62,4.51,4.84,3.71,3.71,3.71
70.07,-0.90,-4.59,-0.90,-4.59,4.59,4.48,4.76,3.69,3.69,3.69
70.77,-0.89,-4.56,-0.89,-4.55,4.55,4.44,4.67,3.66,3.67,3.66
71.48,-0.87,-4.51,-0.88,-4.52,4.52,4.41,4.59,3.65,3.64,3.64
72.19,-0.87,-4.49,-0.87,-4.48,4.48,4.37,4.50,3.61,3.62,3.62
72.91,-0.85,-4.45,-0.85,-4.44,4.44,4.34,4.42,3.59,3.59,3.59
73.64,-0.84,-4.40,-0.84,-4.40,4.40,4.30,4.33,3.56,3.56,3.56
74.38,-0.82,-4.36,-0.82,-4.35,4.35,4.26,4.24,3.53,3.53,3.53
75.12,-0.80,-4.31,-0.80,-4.31,4.31,4.22,4.15,3.50,3.50,3.51
75.87,-0.78,-4.25,-0.78,-4.26,4.25,4.18,4.06,3.47,3.47,3.47
76.63,-0.76,-4.21,-0.76,-4.20,4.20,4.14,3.97,3.44,3.44,3.44
77.40,-0.74,-4.15,-0.74,-4.15,4.14,4.09,3.89,3.40,3.40,3.41
78.17,-0.72,-4.09,-0.72,-4.09,4.09,4.05,3.80,3.36,3.37,3.37
78.95,-0.69,-4.02,-0.70,-4.03,4.03,4.00,3.72,3.34,3.33,3.33
79.74,-0.68,-3.97,-0.68,-3.97,3.97,3.96,3.63,3.29,3.29,3.29
80.54,-0.66,-3.91,-0.66,-3.91,3.91,3.91,3.55,3.25,3.25,3.25
81.35,-0.64,-3.85,-0.65,-3.85,3.86,3.86,3.47,3.21,3.21,3.21
82.16,-0.63,-3.80,-0.63,-3.80,3.80,3.81,3.39,3.17,3.17,3.17
82.98,-0.62,-3.75,-0.62,-3.75,3.75,3.76,3.31,3.12,3.12,3.13
83.81,-0.61,-3.69,-0.61,-3.69,3.69,3.71,3.24,3.08,3.08,3.08
84.65,-0.61,-3.64,-0.60,-3.64,3.64,3.65,3.17,3.03,3.03,3.03
85.50,-0.59,-3.58,-0.59,-3.58,3.58,3.60,3.10,2.99,2.99,2.99
86.35,-0.58,-3.53,-0.58,-3.53,3.53,3.54,3.03,2.95,2.95,2.95
87.22,-0.57,-3.48,-0.57,-3.48,3.48,3.49,2.96,2.91,2.91,2.91
88.09,-0.56,-3.43,-0.56,-3.43,3.42,3.43,2.90,2.86,2.86,2.86
88.97,-0.55,-3.37,-0.55,-3.37,3.37,3.37,2.83,2.82,2.82,2.82
89.86,-0.54,-3.31,-0.54,-3.32,3.32,3.31,2.77,2.78,2.78,2.77
90.76,-0.53,-3.27,-0.53,-3.26,3.27,3.25,2.72,2.73,2.73,2.74
91.66,-0.52,-3.21,-0.52,-3.21,3.21,3.19,2.66,2.69,2.69,2.69
92.58,-0.51,-3.16,-0.51,-3.16,3.16,3.13,2.61,2.65,2.65,2.65
93.51,-0.50,-3.11,-0.50,-3.11,3.11,3.07,2.56,2.60,2.61,2.61
94.44,-0.48,-3.05,-0.48,-3.05,3.05,3.01,2.51,2.57,2.57,2.57
95.39,-0.47,-2.99,-0.47,-2.99,3.00,2.95,2.46,2.53,2.53,2.52
96.34,-0.46,-2.94,-0.46,-2.94,2.94,2.89,2.41,2.48,2.48,2.48
97.30,-0.45,-2.88,-0.45,-2.89,2.88,2.83,2.37,2.43,2.43,2.43
98.28,-0.44,-2.84,-0.44,-2.83,2.83,2.77,2.33,2.39,2.39,2.39
99.26,-0.42,-2.77,-0.42,-2.77,2.77,2.71,2.29,2.35,2.34,2.35
100.25,-0.41,-2.71,-0.41,-2.71,2.71,2.65,2.25,2.30,2.30,2.30
101.25,-0.40,-2.65,-0.40,-2.65,2.65,2.59,2.21,2.25,2.25,2.25
102.27,-0.39,-2.59,-0.39,-2.59,2.59,2.53,2.18,2.20,2.20,2.20
103.29,-0.38,-2.53,-0.38,-2.53,2.53,2.47,2.14,2.15,2.15,2.15
104.32,-0.37,-2.47,-0.37,-2.47,2.47,2.41,2.11,2.10,2.10,2.10
105.37,-0.36,-2.41,-0.36,-2.41,2.41,2.35,2.08,2.05,2.05,2.05
106.42,-0.35,-2.35,-0.35,-2.35,2.35,2.29,2.05,2.00,2.00,2.00
107.48,-0.34,-2.29,-0.34,-2.29,2.29,2.24,2.02,1.95,1.95,1.95
108.56,-0.33,-2.23,-0.33,-2.23,2.23,2.18,1.99,1.90,1.90,1.90
109.64,-0.31,-2.16,-0.32,-2.17,2.17,2.12,1.96,1.86,1.85,1.85
110.74,-0.30,-2.11,-0.30,-2.10,2.11,2.07,1.93,1.80,1.81,1.80
111.85,-0.29,-2.05,-0.29,-2.04,2.04,2.01,1.91,1.75,1.76,1.75
112.97,-0.27,-1.98,-0.28,-1.98,1.98,1.96,1.88,1.71,1.71,1.71
114.10,-0.27,-1.93,-0.27,-1.92,1.92,1.90,1.85,1.65,1.66,1.66
115.24,-0.25,-1.86,-0.25,-1.86,1.86,1.85,1.83,1.61,1.61,1.61
116.39,-0.24,-1.80,-0.24,-1.80,1.80,1.79,1.80,1.56,1.56,1.56
117.55,-0.23,-1.75,-0.23,-1.74,1.75,1.74,1.78,1.51,1.52,1.51
118.73,-0.22,-1.69,-0.22,-1.69,1.69,1.69,1.75,1.47,1.47,1.47
119.92,-0.20,-1.63,-0.20,-1.63,1.63,1.64,1.73,1.43,1.43,1.43
121.12,-0.19,-1.57,-0.19,-1.58,1.58,1.59,1.70,1.39,1.38,1.38
122.33,-0.18,-1.53,-0.18,-1.52,1.52,1.54,1.68,1.34,1.34,1.35
123.55,-0.17,-1.47,-0.17,-1.47,1.47,1.49,1.65,1.30,1.30,1.30
124.79,-0.15,-1.42,-0.16,-1.42,1.42,1.45,1.62,1.26,1.26,1.26
126.03,-0.14,-1.36,-0.14,-1.36,1.36,1.40,1.60,1.22,1.22,1.22
127.29,-0.13,-1.32,-0.13,-1.31,1.31,1.35,1.57,1.18,1.18,1.19
128.57,-0.11,-1.26,-0.11,-1.26,1.26,1.31,1.54,1.15,1.15,1.15
129.85,-0.10,-1.21,-0.10,-1.21,1.21,1.27,1.51,1.11,1.11,1.11
131.15,-0.09,-1.17,-0.09,-1.16,1.17,1.22,1.49,1.08,1.08,1.07
132.46,-0.08,-1.12,-0.08,-1.12,1.13,1.18,1.46,1.04,1.04,1.04
133.79,-0.07,-1.08,-0.07,-1.08,1.09,1.14,1.43,1.01,1.01,1.01
135.12,-0.07,-1.05,-0.07,-1.05,1.05,1.10,1.40,0.98,0.98,0.98
136.48,-0.06,-1.01,-0.06,-1.01,1.01,1.06,1.37,0.95,0.95,0.95
137.84,-0.06,-0.99,-0.06,-0.98,0.98,1.03,1.34,0.92,0.92,0.93
139.22,-0.05,-0.95,-0.05,-0.95,0.95,0.99,1.31,0.90,0.90,0.90
140.61,-0.05,-0.92,-0.05,-0.92,0.92,0.95,1.28,0.87,0.87,0.87
142.02,-0.04,-0.89,-0.05,-0.90,0.89,0.92,1.25,0.85,0.85,0.85
143.44,-0.04,-0.87,-0.04,-0.87,0.87,0.89,1.22,0.83,0.83,0.83
144.87,-0.04,-0.85,-0.03,-0.84,0.84,0.85,1.19,0.80,0.81,0.80
146.32,-0.02,-0.81,-0.03,-0.82,0.82,0.82,1.16,0.80,0.79,0.79
147.78,-0.02,-0.79,-0.02,-0.79,0.79,0.79,1.13,0.77,0.77,0.77
149.26,-0.01,-0.76,-0.01,-0.76,0.77,0.76,1.10,0.75,0.75,0.75
150.75,-0.01,-0.74,-0.01,-0.74,0.74,0.74,1.07,0.73,0.73,0.73
152.26,-0.00,-0.72,-0.00,-0.72,0.71,0.71,1.04,0.71,0.71,0.72
153.78,0.01,-0.69,0.01,-0.69,0.68,0.68,1.01,0.69,0.69,0.70
155.32,0.03,-0.66,0.03,-0.66,0.65,0.66,0.98,0.68,0.68,0.69
156.88,0.05,-0.63,0.05,-0.63,0.63,0.64,0.95,0.67,0.68,0.68
158.44,0.07,-0.60,0.07,-0.60,0.60,0.61,0.92,0.67,0.67,0.67
160.03,0.09,-0.57,0.08,-0.57,0.58,0.59,0.89,0.67,0.66,0.65
161.63,0.09,-0.55,0.09,-0.55,0.56,0.57,0.86,0.65,0.65,0.64
163.24,0.09,-0.54,0.09,-0.54,0.55,0.55,0.84,0.64,0.64,0.63
164.88,0.09,-0.53,0.08,-0.54,0.55,0.54,0.81,0.64,0.63,0.62
166.53,0.07,-0.55,0.07,-0.55,0.55,0.52,0.78,0.62,0.62,0.61
168.19,0.05,-0.56,0.05,-0.56,0.56,0.50,0.75,0.61,0.61,0.61
169.87,0.02,-0.58,0.02,-0.57,0.57,0.49,0.73,0.59,0.59,0.60
171.57,-0.00,-0.58,-0.00,-0.59,0.58,0.47,0.70,0.58,0.58,0.58
173.29,-0.02,-0.59,-0.02,-0.59,0.58,0.46,0.68,0.56,0.56,0.57
175.02,-0.03,-0.60,-0.03,-0.59,0.58,0.45,0.65,0.55,0.55,0.57
176.77,-0.04,-0.59,-0.03,-0.59,0.57,0.43,0.63,0.53,0.54,0.55
178.54,-0.02,-0.57,-0.03,-0.57,0.56,0.42,0.60,0.54,0.53,0.54
180.32,-0.01,-0.54,-0.01,-0.54,0.54,0.41,0.58,0.53,0.52,0.53
182.13,-0.00,-0.52,0.00,-0.51,0.51,0.40,0.56,0.51,0.52,0.51
183.95,0.02,-0.48,0.02,-0.48,0.49,0.39,0.53,0.50,0.51,0.50
185.79,0.04,-0.45,0.03,-0.45,0.46,0.39,0.51,0.50,0.49,0.49
187.65,0.05,-0.42,0.05,-0.43,0.43,0.38,0.49,0.48,0.48,0.47
189.52,0.05,-0.41,0.05,-0.41,0.41,0.37,0.47,0.46,0.46,0.46
191.42,0.06,-0.39,0.06,-0.39,0.39,0.36,0.44,0.45,0.45,0.45
193.33,0.06,-0.38,0.06,-0.38,0.38,0.36,0.42,0.44,0.44,0.44
195.27,0.06,-0.37,0.05,-0.37,0.37,0.35,0.40,0.43,0.42,0.42
197.22,0.04,-0.36,0.05,-0.36,0.36,0.35,0.38,0.40,0.40,0.40
199.19,0.04,-0.35,0.04,-0.35,0.35,0.34,0.36,0.39,0.39,0.39
201.18,0.03,-0.34,0.03,-0.35,0.35,0.34,0.34,0.38,0.37,0.37
203.19,0.02,-0.34,0.02,-0.34,0.34,0.33,0.32,0.36,0.36,0.36
205.23,-0.00,-0.34,0.00,-0.34,0.34,0.33,0.30,0.34,0.34,0.34
207.28,-0.00,-0.33,-0.01,-0.34,0.33,0.33,0.29,0.33,0.32,0.33
209.35,-0.02,-0.33,-0.02,-0.33,0.33,0.33,0.27,0.31,0.31,0.31
211.44,-0.02,-0.31,-0.02,-0.32,0.32,0.32,0.25,0.30,0.30,0.29
213.56,-0.03,-0.32,-0.03,-0.32,0.32,0.32,0.23,0.28,0.28,0.28
215.69,-0.04,-0.31,-0.04,-0.31,0.31,0.32,0.22,0.27,0.27,0.27
217.85,-0.05,-0.31,-0.05,-0.30,0.30,0.32,0.20,0.25,0.25,0.26
220.03,-0.05,-0.29,-0.05,-0.30,0.30,0.32,0.19,0.25,0.24,0.24
222.23,-0.06,-0.29,-0.06,-0.29,0.29,0.31,0.17,0.23,0.23,0.23
224.45,-0.06,-0.29,-0.06,-0.29,0.29,0.31,0.16,0.23,0.23,0.23
226.70,-0.07,-0.29,-0.07,-0.28,0.28,0.31,0.15,0.21,0.22,0.22
228.96,-0.06,-0.27,-0.07,-0.28,0.28,0.31,0.14,0.22,0.21,0.21
231.25,-0.07,-0.28,-0.07,-0.28,0.28,0.31,0.13,0.21,0.21,0.21
233.57,-0.07,-0.28,-0.07,-0.27,0.28,0.31,0.12,0.21,0.21,0.21
235.90,-0.07,-0.28,-0.07,-0.28,0.28,0.31,0.11,0.20,0.21,0.20
238.26,-0.06,-0.27,-0.07,-0.28,0.28,0.31,0.10,0.21,0.21,0.21
240.64,-0.07,-0.28,-0.07,-0.27,0.28,0.31,0.09,0.20,0.21,0.21
243.05,-0.06,-0.27,-0.06,-0.28,0.28,0.31,0.09,0.21,0.21,0.21
245.48,-0.06,-0.27,-0.06,-0.28,0.28,0.31,0.08,0.21,0.21,0.21
247.93,-0.06,-0.28,-0.06,-0.27,0.27,0.31,0.08,0.21,0.22,0.22
250.41,-0.05,-0.27,-0.06,-0.27,0.27,0.31,0.08,0.22,0.22,0.22
252.92,-0.05,-0.27,-0.05,-0.27,0.27,0.32,0.08,0.22,0.22,0.22
255.45,-0.05,-0.27,-0.05,-0.27,0.27,0.32,0.08,0.22,0.22,0.22
258.00,-0.04,-0.27,-0.04,-0.27,0.27,0.32,0.08,0.22,0.22,0.23
260.58,-0.03,-0.26,-0.04,-0.26,0.26,0.32,0.08,0.23,0.23,0.23
263.19,-0.03,-0.25,-0.03,-0.26,0.26,0.32,0.09,0.23,0.23,0.22
265.82,-0.03,-0.26,-0.03,-0.25,0.25,0.32,0.09,0.22,0.23,0.23
268.48,-0.03,-0.26,-0.03,-0.25,0.25,0.32,0.09,0.22,0.22,0.22
271.16,-0.02,-0.24,-0.03,-0.25,0.25,0.33,0.10,0.23,0.22,0.22
273.87,-0.03,-0.25,-0.02,-0.24,0.25,0.33,0.11,0.22,0.22,0.22
276.61,-0.02,-0.25,-0.02,-0.24,0.25,0.33,0.12,0.23,0.22,0.22
279.38,-0.02,-0.24,-0.03,-0.25,0.25,0.33,0.13,0.23,0.22,0.22
282.17,-0.03,-0.25,-0.03,-0.25,0.25,0.33,0.14,0.22,0.22,0.22
284.99,-0.03,-0.26,-0.03,-0.25,0.25,0.34,0.15,0.22,0.22,0.22
287.84,-0.03,-0.25,-0.03,-0.25,0.25,0.34,0.16,0.22,0.22,0.22
290.72,-0.02,-0.25,-0.03,-0.26,0.25,0.34,0.17,0.23,0.22,0.23
293.63,-0.03,-0.26,-0.03,-0.26,0.26,0.35,0.18,0.22,0.23,0.23
296.57,-0.03,-0.27,-0.03,-0.26,0.26,0.35,0.20,0.23,0.23,0.23
299.53,-0.02,-0.25,-0.03,-0.26,0.26,0.35,0.21,0.24,0.23,0.23
302.53,-0.02,-0.26,-0.02,-0.26,0.26,0.35,0.22,0.24,0.24,0.24
305.55,-0.02,-0.27,-0.02,-0.26,0.27,0.36,0.24,0.24,0.25,0.25
308.61,-0.01,-0.27,-0.01,-0.27,0.27,0.36,0.25,0.26,0.26,0.25
311.69,-0.01,-0.27,-0.01,-0.27,0.28,0.37,0.27,0.27,0.26,0.26
314.81,-0.01,-0.28,-0.01,-0.28,0.28,0.37,0.29,0.27,0.27,0.27
317.96,-0.01,-0.29,-0.01,-0.29,0.29,0.37,0.30,0.28,0.28,0.28
321.14,-0.01,-0.30,-0.01,-0.30,0.30,0.38,0.32,0.29,0.29,0.29
324.35,-0.01,-0.31,-0.01,-0.31,0.31,0.38,0.34,0.29,0.29,0.30
327.59,-0.01,-0.32,-0.01,-0.31,0.31,0.39,0.35,0.30,0.30,0.30
330.87,-0.01,-0.31,-0.01,-0.32,0.32,0.39,0.37,0.31,0.30,0.30
334.18,-0.02,-0.33,-0.01,-0.32,0.32,0.40,0.39,0.30,0.31,0.31
337.52,-0.01,-0.32,-0.01,-0.33,0.33,0.40,0.41,0.31,0.31,0.31
340.90,-0.01,-0.33,-0.01,-0.33,0.33,0.41,0.43,0.32,0.31,0.32
344.30,-0.01,-0.33,-0.01,-0.33,0.33,0.41,0.45,0.32,0.32,0.32
347.75,-0.02,-0.34,-0.02,-0.33,0.33,0.42,0.47,0.31,0.31,0.32
351.23,-0.01,-0.33,-0.02,-0.33,0.33,0.42,0.49,0.32,0.31,0.31
354.74,-0.02,-0.33,-0.02,-0.33,0.33,0.43,0.51,0.31,0.31,0.31
358.28,-0.02,-0.32,-0.02,-0.33,0.33,0.44,0.53,0.31,0.31,0.30
361.87,-0.03,-0.33,-0.03,-0.33,0.33,0.44,0.55,0.30,0.30,0.30
365.49,-0.03,-0.33,-0.04,-0.33,0.34,0.45,0.57,0.30,0.30,0.30
369.14,-0.04,-0.34,-0.04,-0.34,0.34,0.46,0.60,0.30,0.30,0.30
372.83,-0.05,-0.35,-0.04,-0.35,0.34,0.47,0.62,0.29,0.30,0.30
376.56,-0.04,-0.35,-0.05,-0.35,0.35,0.47,0.64,0.31,0.30,0.31
380.33,-0.05,-0.36,-0.05,-0.36,0.36,0.48,0.66,0.30,0.31,0.31
384.13,-0.05,-0.36,-0.05,-0.36,0.36,0.49,0.69,0.31,0.31,0.30
387.97,-0.06,-0.38,-0.06,-0.37,0.37,0.50,0.71,0.31,0.31,0.31
391.85,-0.06,-0.37,-0.06,-0.38,0.37,0.51,0.73,0.31,0.31,0.31
395.77,-0.06,-0.38,-0.06,-0.38,0.38,0.52,0.76,0.32,0.32,0.32
399.73,-0.05,-0.38,-0.05,-0.38,0.38,0.53,0.78,0.33,0.33,0.33
403.72,-0.05,-0.38,-0.05,-0.39,0.39,0.54,0.81,0.34,0.33,0.33
407.76,-0.05,-0.39,-0.05,-0.39,0.39,0.55,0.83,0.34,0.34,0.34
411.84,-0.05,-0.40,-0.05,-0.40,0.40,0.56,0.85,0.35,0.35,0.35
415.96,-0.05,-0.41,-0.05,-0.41,0.41,0.57,0.88,0.35,0.35,0.36
420.12,-0.05,-0.41,-0.05,-0.42,0.42,0.58,0.90,0.36,0.36,0.36
424.32,-0.06,-0.43,-0.06,-0.43,0.43,0.59,0.93,0.37,0.37,0.37
428.56,-0.07,-0.45,-0.07,-0.45,0.45,0.61,0.95,0.38,0.38,0.38
432.85,-0.08,-0.47,-0.08,-0.47,0.47,0.62,0.97,0.39,0.39,0.39
437.18,-0.09,-0.49,-0.09,-0.49,0.49,0.63,1.00,0.40,0.40,0.40
441.55,-0.11,-0.52,-0.11,-0.52,0.52,0.65,1.02,0.41,0.41,0.41
445.96,-0.14,-0.56,-0.14,-0.55,0.55,0.66,1.04,0.41,0.42,0.41
450.42,-0.16,-0.59,-0.16,-0.59,0.59,0.67,1.06,0.43,0.42,0.42
454.93,-0.19,-0.63,-0.19,-0.63,0.62,0.69,1.08,0.43,0.43,0.43
459.48,-0.22,-0.66,-0.22,-0.66,0.66,0.70,1.10,0.44,0.44,0.44
464.07,-0.25,-0.70,-0.25,-0.70,0.70,0.72,1.12,0.45,0.45,0.45
468.71,-0.28,-0.74,-0.28,-0.74,0.74,0.74,1.14,0.46,0.46,0.46
473.40,-0.31,-0.78,-0.31,-0.78,0.79,0.75,1.15,0.47,0.47,0.47
478.13,-0.34,-0.82,-0.35,-0.83,0.83,0.77,1.17,0.49,0.48,0.48
482.91,-0.38,-0.88,-0.38,-0.88,0.87,0.79,1.18,0.49,0.49,0.50
487.74,-0.41,-0.92,-0.41,-0.92,0.92,0.81,1.19,0.51,0.51,0.51
492.62,-0.43,-0.96,-0.44,-0.96,0.96,0.83,1.20,0.53,0.53,0.53
497.55,-0.46,-1.00,-0.46,-1.01,1.01,0.85,1.21,0.55,0.54,0.54
502.52,-0.50,-1.06,-0.50,-1.06,1.06,0.87,1.22,0.56,0.56,0.56
507.55,-0.53,-1.11,-0.53,-1.11,1.11,0.89,1.23,0.58,0.58,0.58
512.62,-0.57,-1.17,-0.57,-1.16,1.17,0.91,1.24,0.59,0.60,0.60
517.75,-0.60,-1.21,-0.61,-1.22,1.23,0.93,1.24,0.62,0.62,0.61
522.93,-0.65,-1.28,-0.65,-1.28,1.29,0.96,1.25,0.64,0.64,0.63
