frequency,raw,error,smoothed,error_smoothed,equalization,parametric_eq,fixed_band_eq,equalized_raw,equalized_smoothed,target
20.00,-6.60,-8.85,-6.60,-8.86,6.00,6.01,2.79,-0.60,-0.60,2.25
20.20,-6.54,-8.80,-6.54,-8.80,6.00,6.01,2.87,-0.54,-0.54,2.26
20.40,-6.48,-8.75,-6.48,-8.75,6.00,6.01,2.95,-0.48,-0.48,2.27
20.61,-6.42,-8.69,-6.42,-8.70,6.00,6.01,3.03,-0.42,-0.42,2.27
20.81,-6.36,-8.64,-6.36,-8.64,6.00,6.01,3.12,-0.36,-0.36,2.28
21.02,-6.30,-8.58,-6.30,-8.59,6.00,6.01,3.21,-0.30,-0.30,2.28
21.23,-6.25,-8.54,-6.26,-8.54,6.00,6.01,3.30,-0.25,-0.26,2.29
21.44,-6.21,-8.50,-6.21,-8.50,6.00,6.01,3.39,-0.21,-0.21,2.29
21.66,-6.17,-8.46,-6.17,-8.46,6.00,6.01,3.49,-0.17,-0.17,2.29
21.87,-6.12,-8.41,-6.12,-8.42,6.00,6.01,3.59,-0.12,-0.12,2.29
22.09,-6.07,-8.37,-6.07,-8.37,6.00,6.01,3.69,-0.07,-0.07,2.30
22.31,-6.01,-8.31,-6.01,-8.31,6.00,6.01,3.79,-0.01,-0.01,2.30
22.54,-5.95,-8.24,-5.95,-8.24,6.00,6.01,3.90,0.05,0.05,2.29
22.76,-5.89,-8.17,-5.89,-8.17,6.00,6.01,4.01,0.11,0.11,2.28
22.99,-5.83,-8.11,-5.84,-8.11,6.00,6.01,4.12,0.17,0.16,2.28
23.22,-5.79,-8.07,-5.79,-8.07,6.00,6.01,4.24,0.21,0.21,2.28
23.45,-5.76,-8.03,-5.76,-8.03,6.00,6.01,4.35,0.24,0.24,2.27
23.69,-5.72,-7.99,-5.72,-7.99,6.00,6.01,4.47,0.28,0.28,2.27
23.92,-5.68,-7.95,-5.68,-7.94,6.00,6.00,4.60,0.32,0.32,2.27
24.16,-5.62,-7.89,-5.62,-7.88,6.00,6.00,4.72,0.38,0.38,2.26
24.40,-5.55,-7.82,-5.55,-7.82,6.00,6.00,4.85,0.45,0.45,2.26
24.65,-5.48,-7.75,-5.48,-7.75,6.00,6.00,4.98,0.52,0.52,2.26
24.89,-5.41,-7.67,-5.41,-7.67,6.00,6.00,5.11,0.59,0.59,2.26
25.14,-5.34,-7.60,-5.34,-7.60,6.00,6.00,5.24,0.66,0.66,2.26
25.39,-5.27,-7.52,-5.27,-7.52,6.00,6.00,5.38,0.73,0.73,2.25
25.65,-5.20,-7.45,-5.20,-7.45,6.00,6.00,5.51,0.80,0.80,2.25
25.91,-5.13,-7.38,-5.14,-7.39,6.00,6.00,5.65,0.87,0.86,2.25
26.16,-5.10,-7.35,-5.11,-7.36,6.00,6.00,5.78,0.90,0.89,2.25
26.43,-5.10,-7.35,-5.10,-7.35,6.00,6.00,5.92,0.90,0.90,2.25
26.69,-5.09,-7.34,-5.10,-7.34,6.00,6.00,6.05,0.91,0.90,2.25
26.96,-5.09,-7.34,-5.08,-7.33,6.00,6.00,6.18,0.91,0.92,2.25
27.23,-5.04,-7.29,-5.04,-7.29,6.00,6.00,6.31,0.96,0.96,2.25
27.50,-4.99,-7.24,-4.99,-7.24,6.00,5.99,6.44,1.01,1.01,2.25
27.77,-4.93,-7.18,-4.94,-7.18,6.00,5.99,6.57,1.07,1.06,2.24
28.05,-4.88,-7.13,-4.89,-7.13,6.00,5.99,6.69,1.12,1.11,2.24
28.33,-4.85,-7.09,-4.85,-7.09,6.00,5.99,6.80,1.15,1.15,2.24
28.62,-4.81,-7.05,-4.81,-7.06,6.00,5.99,6.91,1.19,1.19,2.24
28.90,-4.77,-7.02,-4.78,-7.03,6.00,5.99,7.01,1.23,1.22,2.25
29.19,-4.75,-7.00,-4.75,-7.00,6.00,5.99,7.11,1.25,1.25,2.25
29.48,-4.73,-6.98,-4.73,-6.99,6.00,5.99,7.19,1.27,1.27,2.25
29.78,-4.71,-6.97,-4.71,-6.96,6.00,5.99,7.27,1.29,1.29,2.26
30.08,-4.67,-6.93,-4.67,-6.92,6.00,5.98,7.33,1.33,1.33,2.26
30.38,-4.61,-6.87,-4.61,-6.87,6.00,5.98,7.40,1.39,1.39,2.26
30.68,-4.55,-6.81,-4.55,-6.81,6.00,5.98,7.44,1.45,1.45,2.25
30.99,-4.49,-6.75,-4.51,-6.76,6.00,5.98,7.48,1.51,1.49,2.25
31.30,-4.49,-6.74,-4.49,-6.74,6.00,5.98,7.50,1.51,1.51,2.25
31.61,-4.49,-6.74,-4.49,-6.74,6.00,5.98,7.52,1.51,1.51,2.25
31.93,-4.49,-6.74,-4.49,-6.74,6.00,5.97,7.52,1.51,1.51,2.25
32.24,-4.49,-6.73,-4.49,-6.73,6.00,5.97,7.52,1.51,1.51,2.24
32.57,-4.48,-6.72,-4.49,-6.72,6.00,5.97,7.50,1.52,1.51,2.23
32.89,-4.47,-6.71,-4.47,-6.70,6.00,5.97,7.48,1.53,1.53,2.23
33.22,-4.43,-6.65,-4.42,-6.65,6.00,5.97,7.44,1.57,1.58,2.22
33.55,-4.37,-6.59,-4.37,-6.59,6.00,5.97,7.40,1.63,1.63,2.22
33.89,-4.31,-6.52,-4.32,-6.53,6.00,5.96,7.34,1.69,1.68,2.21
34.23,-4.29,-6.50,-4.30,-6.50,6.00,5.96,7.29,1.71,1.70,2.21
34.57,-4.29,-6.50,-4.29,-6.49,6.00,5.96,7.22,1.71,1.71,2.20
34.92,-4.29,-6.49,-4.29,-6.49,6.00,5.96,7.16,1.71,1.71,2.20
35.27,-4.29,-6.49,-4.29,-6.49,6.00,5.95,7.08,1.71,1.71,2.20
35.62,-4.29,-6.49,-4.29,-6.49,6.00,5.95,7.00,1.71,1.71,2.20
35.97,-4.29,-6.49,-4.29,-6.49,6.00,5.95,6.92,1.71,1.71,2.20
36.33,-4.29,-6.49,-4.30,-6.49,6.00,5.95,6.84,1.71,1.70,2.19
36.70,-4.29,-6.48,-4.29,-6.48,6.00,5.94,6.76,1.71,1.71,2.19
37.06,-4.29,-6.48,-4.28,-6.47,6.00,5.94,6.68,1.71,1.72,2.19
37.43,-4.26,-6.45,-4.26,-6.45,6.00,5.94,6.59,1.74,1.74,2.19
37.81,-4.23,-6.42,-4.24,-6.43,6.00,5.93,6.51,1.77,1.76,2.19
38.19,-4.21,-6.40,-4.21,-6.40,6.00,5.93,6.43,1.79,1.79,2.19
38.57,-4.20,-6.39,-4.20,-6.39,6.00,5.93,6.35,1.80,1.80,2.19
38.95,-4.19,-6.39,-4.19,-6.38,6.00,5.92,6.27,1.81,1.81,2.19
39.34,-4.19,-6.38,-4.19,-6.38,6.00,5.92,6.19,1.81,1.81,2.19
39.74,-4.19,-6.38,-4.19,-6.38,6.00,5.92,6.12,1.81,1.81,2.19
40.14,-4.19,-6.38,-4.19,-6.38,6.00,5.91,6.05,1.81,1.81,2.18
40.54,-4.19,-6.37,-4.19,-6.37,6.00,5.91,5.99,1.81,1.81,2.18
40.94,-4.19,-6.37,-4.19,-6.37,6.00,5.91,5.92,1.81,1.81,2.18
41.35,-4.19,-6.36,-4.19,-6.36,6.00,5.90,5.86,1.81,1.81,2.17
41.76,-4.19,-6.35,-4.19,-6.35,6.00,5.90,5.81,1.81,1.81,2.16
42.18,-4.19,-6.35,-4.19,-6.35,6.00,5.89,5.76,1.81,1.81,2.15
42.60,-4.19,-6.34,-4.19,-6.34,6.00,5.89,5.71,1.81,1.81,2.15
43.03,-4.19,-6.34,-4.19,-6.34,6.00,5.89,5.66,1.81,1.81,2.14
43.46,-4.19,-6.33,-4.19,-6.33,6.00,5.88,5.62,1.81,1.81,2.14
43.90,-4.19,-6.32,-4.19,-6.32,6.00,5.88,5.59,1.81,1.81,2.13
44.33,-4.19,-6.31,-4.19,-6.31,6.00,5.87,5.56,1.81,1.81,2.12
44.78,-4.19,-6.31,-4.19,-6.30,6.00,5.87,5.53,1.81,1.81,2.12
45.23,-4.19,-6.30,-4.19,-6.30,6.00,5.86,5.51,1.81,1.81,2.11
45.68,-4.19,-6.30,-4.19,-6.30,6.00,5.86,5.49,1.81,1.81,2.10
46.13,-4.20,-6.31,-4.22,-6.32,6.00,5.85,5.48,1.80,1.78,2.11
46.60,-4.25,-6.35,-4.25,-6.35,6.00,5.85,5.47,1.75,1.75,2.10
47.06,-4.29,-6.40,-4.28,-6.38,6.00,5.84,5.46,1.71,1.72,2.11
47.53,-4.29,-6.40,-4.30,-6.40,6.00,5.84,5.46,1.71,1.70,2.11
48.01,-4.29,-6.41,-4.30,-6.41,6.00,5.84,5.46,1.71,1.70,2.11
48.49,-4.29,-6.41,-4.29,-6.41,6.00,5.83,5.46,1.71,1.71,2.12
48.97,-4.29,-6.41,-4.29,-6.41,6.00,5.83,5.47,1.71,1.71,2.12
49.46,-4.29,-6.41,-4.29,-6.41,6.00,5.82,5.48,1.71,1.71,2.12
49.96,-4.29,-6.43,-4.31,-6.44,6.00,5.82,5.50,1.71,1.69,2.13
50.46,-4.34,-6.48,-4.34,-6.48,6.00,5.82,5.51,1.66,1.66,2.14
50.96,-4.39,-6.54,-4.37,-6.52,6.00,5.81,5.53,1.61,1.63,2.15
51.47,-4.39,-6.54,-4.39,-6.54,6.00,5.81,5.55,1.61,1.61,2.15
51.99,-4.39,-6.54,-4.39,-6.54,6.00,5.81,5.58,1.61,1.61,2.15
52.51,-4.40,-6.55,-4.40,-6.55,6.00,5.81,5.60,1.60,1.60,2.15
53.03,-4.41,-6.56,-4.45,-6.60,6.00,5.81,5.63,1.59,1.55,2.15
53.56,-4.51,-6.66,-4.51,-6.66,6.00,5.81,5.65,1.49,1.49,2.15
54.10,-4.59,-6.75,-4.56,-6.72,6.00,5.81,5.68,1.41,1.44,2.16
54.64,-4.59,-6.75,-4.60,-6.76,6.00,5.81,5.70,1.41,1.40,2.16
55.18,-4.60,-6.76,-4.61,-6.77,6.00,5.82,5.73,1.40,1.39,2.16
55.74,-4.61,-6.76,-4.62,-6.77,6.00,5.82,5.75,1.39,1.38,2.15
56.29,-4.64,-6.79,-4.65,-6.80,6.00,5.83,5.77,1.36,1.35,2.15
56.86,-4.68,-6.83,-4.68,-6.82,6.00,5.84,5.79,1.32,1.32,2.15
57.42,-4.69,-6.83,-4.69,-6.83,6.00,5.85,5.81,1.31,1.31,2.13
58.00,-4.69,-6.81,-4.66,-6.78,6.00,5.87,5.82,1.31,1.34,2.12
58.58,-4.59,-6.70,-4.60,-6.71,6.00,5.88,5.83,1.41,1.40,2.11
59.16,-4.51,-6.61,-4.54,-6.64,6.00,5.90,5.84,1.49,1.46,2.10
59.76,-4.49,-6.57,-4.48,-6.56,6.00,5.93,5.84,1.51,1.52,2.08
60.35,-4.44,-6.50,-4.42,-6.48,6.00,5.95,5.83,1.56,1.58,2.06
60.96,-4.35,-6.39,-4.36,-6.39,6.00,5.98,5.82,1.65,1.64,2.03
61.57,-4.28,-6.29,-4.29,-6.29,6.00,6.01,5.81,1.72,1.72,2.01
62.18,-4.22,-6.19,-4.23,-6.20,6.00,6.04,5.79,1.78,1.77,1.97
62.80,-4.20,-6.14,-4.20,-6.14,6.00,6.06,5.76,1.80,1.80,1.94
63.43,-4.19,-6.08,-4.19,-6.08,6.00,6.09,5.73,1.81,1.81,1.89
64.07,-4.19,-6.05,-4.19,-6.04,5.99,6.11,5.69,1.80,1.80,1.85
64.71,-4.19,-6.00,-4.20,-6.00,5.99,6.12,5.64,1.79,1.79,1.81
65.35,-4.21,-5.98,-4.22,-5.98,5.98,6.12,5.59,1.77,1.76,1.77
66.01,-4.24,-5.97,-4.25,-5.97,5.98,6.10,5.54,1.74,1.73,1.73
66.67,-4.28,-5.97,-4.27,-5.96,5.99,6.07,5.48,1.70,1.72,1.69
67.33,-4.30,-5.96,-4.29,-5.95,6.00,6.02,5.42,1.70,1.71,1.66
68.01,-4.29,-5.91,-4.32,-5.94,6.01,5.95,5.35,1.71,1.68,1.62
68.69,-4.36,-5.95,-4.38,-5.97,6.00,5.86,5.27,1.63,1.62,1.59
69.37,-4.43,-5.99,-4.42,-5.98,5.96,5.76,5.20,1.52,1.53,1.56
70.07,-4.48,-6.01,-4.43,-5.96,5.88,5.63,5.12,1.40,1.44,1.53
70.77,-4.35,-5.85,-4.39,-5.89,5.77,5.50,5.04,1.41,1.38,1.49
71.48,-4.25,-5.72,-4.26,-5.73,5.63,5.36,4.96,1.37,1.37,1.47
72.19,-4.11,-5.55,-4.05,-5.49,5.46,5.20,4.87,1.35,1.41,1.44
72.91,-3.80,-5.20,-3.81,-5.21,5.28,5.05,4.79,1.48,1.47,1.40
73.64,-3.52,-4.89,-3.57,-4.94,5.06,4.88,4.70,1.54,1.49,1.37
74.38,-3.36,-4.70,-3.40,-4.73,4.83,4.72,4.61,1.47,1.44,1.33
75.12,-3.31,-4.61,-3.30,-4.59,4.59,4.55,4.53,1.28,1.29,1.30
75.87,-3.22,-4.47,-3.19,-4.44,4.35,4.38,4.44,1.13,1.16,1.25
76.63,-3.03,-4.25,-3.01,-4.22,4.12,4.21,4.35,1.09,1.11,1.21
77.40,-2.77,-3.94,-2.78,-3.94,3.90,4.03,4.27,1.13,1.12,1.17
78.17,-2.50,-3.63,-2.54,-3.67,3.69,3.86,4.18,1.19,1.15,1.13
78.95,-2.35,-3.43,-2.34,-3.43,3.49,3.69,4.10,1.14,1.15,1.08
79.74,-2.21,-3.25,-2.20,-3.24,3.31,3.51,4.02,1.10,1.10,1.04
80.54,-2.10,-3.09,-2.11,-3.10,3.14,3.35,3.94,1.04,1.04,0.99
81.35,-2.03,-2.98,-2.03,-2.98,3.01,3.19,3.86,0.98,0.98,0.95
82.16,-1.98,-2.89,-1.99,-2.90,2.91,3.05,3.79,0.92,0.91,0.91
82.98,-1.98,-2.85,-1.98,-2.85,2.83,2.91,3.72,0.85,0.86,0.87
83.81,-1.98,-2.81,-1.98,-2.81,2.78,2.80,3.65,0.80,0.81,0.83
84.65,-1.98,-2.78,-1.98,-2.77,2.75,2.70,3.58,0.77,0.77,0.80
85.50,-1.98,-2.74,-1.98,-2.73,2.72,2.63,3.51,0.74,0.75,0.75
86.35,-1.98,-2.69,-1.98,-2.69,2.70,2.58,3.45,0.72,0.72,0.71
87.22,-1.99,-2.66,-2.00,-2.67,2.69,2.55,3.39,0.70,0.69,0.67
88.09,-2.04,-2.67,-2.04,-2.67,2.68,2.54,3.33,0.63,0.63,0.62
88.97,-2.09,-2.68,-2.10,-2.68,2.67,2.55,3.27,0.57,0.57,0.59
89.86,-2.16,-2.71,-2.14,-2.68,2.66,2.57,3.22,0.50,0.52,0.54
90.76,-2.17,-2.67,-2.17,-2.67,2.67,2.59,3.17,0.49,0.50,0.50
91.66,-2.17,-2.64,-2.19,-2.66,2.67,2.63,3.12,0.49,0.47,0.46
92.58,-2.22,-2.65,-2.23,-2.65,2.66,2.66,3.07,0.44,0.43,0.43
93.51,-2.29,-2.67,-2.28,-2.67,2.66,2.69,3.03,0.37,0.37,0.38
94.44,-2.34,-2.69,-2.34,-2.68,2.65,2.72,2.99,0.31,0.32,0.34
95.39,-2.37,-2.68,-2.37,-2.67,2.66,2.75,2.95,0.28,0.29,0.31
96.34,-2.38,-2.65,-2.37,-2.64,2.66,2.77,2.91,0.28,0.29,0.27
97.30,-2.38,-2.61,-2.40,-2.63,2.67,2.79,2.87,0.29,0.27,0.23
98.28,-2.43,-2.62,-2.46,-2.65,2.68,2.80,2.84,0.24,0.22,0.18
99.26,-2.55,-2.70,-2.53,-2.68,2.68,2.81,2.81,0.13,0.15,0.15
100.25,-2.62,-2.73,-2.60,-2.71,2.68,2.81,2.78,0.05,0.07,0.11
101.25,-2.64,-2.71,-2.65,-2.71,2.67,2.81,2.75,0.03,0.03,0.07
102.27,-2.65,-2.67,-2.66,-2.68,2.66,2.81,2.73,0.01,0.00,0.02
103.29,-2.67,-2.65,-2.67,-2.65,2.65,2.80,2.70,-0.03,-0.03,-0.03
104.32,-2.69,-2.62,-2.69,-2.62,2.62,2.78,2.68,-0.07,-0.07,-0.07
105.37,-2.71,-2.60,-2.71,-2.60,2.60,2.77,2.66,-0.11,-0.12,-0.11
106.42,-2.73,-2.57,-2.74,-2.57,2.58,2.75,2.64,-0.16,-0.16,-0.16
107.48,-2.76,-2.55,-2.75,-2.54,2.57,2.73,2.62,-0.20,-0.18,-0.21
108.56,-2.78,-2.52,-2.78,-2.52,2.56,2.70,2.60,-0.22,-0.21,-0.26
109.64,-2.80,-2.50,-2.84,-2.53,2.57,2.67,2.58,-0.23,-0.27,-0.31
110.74,-2.91,-2.57,-2.91,-2.57,2.57,2.65,2.56,-0.34,-0.34,-0.34
111.85,-3.02,-2.64,-2.99,-2.61,2.58,2.62,2.54,-0.44,-0.41,-0.38
112.97,-3.05,-2.63,-3.05,-2.63,2.58,2.58,2.53,-0.47,-0.47,-0.42
114.10,-3.06,-2.61,-3.07,-2.61,2.58,2.55,2.51,-0.48,-0.49,-0.46
115.24,-3.06,-2.58,-3.06,-2.58,2.57,2.52,2.49,-0.49,-0.49,-0.48
116.39,-3.06,-2.54,-3.06,-2.54,2.56,2.49,2.47,-0.51,-0.50,-0.52
117.55,-3.05,-2.51,-3.06,-2.51,2.53,2.45,2.46,-0.52,-0.52,-0.54
118.73,-3.05,-2.49,-3.05,-2.49,2.50,2.42,2.44,-0.55,-0.55,-0.56
119.92,-3.04,-2.46,-3.05,-2.47,2.47,2.38,2.42,-0.57,-0.58,-0.58
121.12,-3.04,-2.45,-3.04,-2.44,2.44,2.35,2.40,-0.60,-0.60,-0.60
122.33,-3.03,-2.42,-3.03,-2.42,2.41,2.31,2.38,-0.62,-0.62,-0.61
123.55,-3.02,-2.40,-3.02,-2.40,2.39,2.28,2.36,-0.63,-0.63,-0.63
124.79,-3.01,-2.37,-3.01,-2.37,2.37,2.24,2.34,-0.65,-0.65,-0.64
126.03,-3.00,-2.35,-3.00,-2.35,2.35,2.21,2.31,-0.65,-0.66,-0.66
127.29,-3.00,-2.33,-3.00,-2.33,2.34,2.17,2.29,-0.67,-0.66,-0.67
128.57,-2.99,-2.31,-2.99,-2.31,2.32,2.14,2.26,-0.67,-0.67,-0.68
129.85,-2.99,-2.30,-3.00,-2.30,2.32,2.10,2.24,-0.68,-0.68,-0.70
131.15,-3.00,-2.29,-3.02,-2.31,2.31,2.07,2.21,-0.69,-0.71,-0.71
132.46,-3.06,-2.33,-3.05,-2.32,2.31,2.04,2.18,-0.75,-0.74,-0.73
133.79,-3.08,-2.34,-3.07,-2.32,2.31,2.00,2.16,-0.77,-0.75,-0.74
135.12,-3.07,-2.31,-3.08,-2.32,2.32,1.97,2.13,-0.75,-0.76,-0.76
136.48,-3.07,-2.30,-3.09,-2.31,2.32,1.94,2.10,-0.75,-0.76,-0.77
137.84,-3.11,-2.32,-3.11,-2.32,2.33,1.91,2.07,-0.79,-0.78,-0.79
139.22,-3.14,-2.33,-3.14,-2.33,2.32,1.88,2.04,-0.82,-0.81,-0.81
140.61,-3.16,-2.33,-3.16,-2.33,2.32,1.85,2.01,-0.85,-0.84,-0.83
142.02,-3.16,-2.31,-3.16,-2.31,2.30,1.82,1.97,-0.86,-0.86,-0.85
143.44,-3.16,-2.29,-3.16,-2.29,2.29,1.79,1.94,-0.88,-0.88,-0.88
144.87,-3.16,-2.26,-3.16,-2.26,2.26,1.77,1.91,-0.90,-0.90,-0.90
146.32,-3.16,-2.23,-3.16,-2.23,2.24,1.74,1.88,-0.93,-0.93,-0.93
147.78,-3.16,-2.20,-3.16,-2.20,2.20,1.72,1.85,-0.96,-0.96,-0.96
149.26,-3.16,-2.16,-3.16,-2.16,2.16,1.69,1.82,-1.01,-1.01,-1.00
150.75,-3.16,-2.12,-3.16,-2.12,2.11,1.67,1.79,-1.05,-1.05,-1.05
152.26,-3.16,-2.06,-3.16,-2.06,2.06,1.65,1.76,-1.10,-1.10,-1.10
153.78,-3.16,-2.01,-3.16,-2.01,2.01,1.63,1.73,-1.16,-1.16,-1.15
155.32,-3.16,-1.95,-3.16,-1.95,1.95,1.61,1.70,-1.21,-1.21,-1.22
156.88,-3.16,-1.89,-3.16,-1.89,1.89,1.59,1.67,-1.27,-1.27,-1.27
158.44,-3.16,-1.83,-3.16,-1.84,1.84,1.57,1.65,-1.33,-1.33,-1.33
160.03,-3.16,-1.78,-3.16,-1.78,1.78,1.55,1.62,-1.39,-1.39,-1.38
161.63,-3.16,-1.74,-3.17,-1.74,1.72,1.53,1.60,-1.44,-1.44,-1.42
163.24,-3.16,-1.69,-3.16,-1.69,1.68,1.52,1.57,-1.48,-1.48,-1.47
164.88,-3.16,-1.66,-3.14,-1.63,1.65,1.50,1.55,-1.51,-1.49,-1.50
166.53,-3.10,-1.57,-3.13,-1.60,1.62,1.49,1.53,-1.48,-1.50,-1.53
168.19,-3.11,-1.56,-3.13,-1.58,1.61,1.48,1.50,-1.50,-1.52,-1.55
169.87,-3.17,-1.61,-3.15,-1.59,1.61,1.47,1.48,-1.57,-1.55,-1.56
171.57,-3.19,-1.63,-3.19,-1.62,1.61,1.46,1.46,-1.58,-1.58,-1.57
173.29,-3.20,-1.64,-3.20,-1.64,1.62,1.44,1.45,-1.58,-1.58,-1.56
175.02,-3.20,-1.65,-3.20,-1.65,1.64,1.44,1.43,-1.56,-1.56,-1.55
176.77,-3.20,-1.67,-3.20,-1.67,1.67,1.43,1.41,-1.53,-1.54,-1.54
178.54,-3.20,-1.68,-3.20,-1.68,1.69,1.42,1.40,-1.51,-1.52,-1.52
180.32,-3.20,-1.71,-3.20,-1.70,1.70,1.41,1.38,-1.50,-1.50,-1.50
182.13,-3.20,-1.72,-3.20,-1.72,1.71,1.41,1.37,-1.49,-1.49,-1.48
183.95,-3.19,-1.74,-3.19,-1.73,1.72,1.40,1.36,-1.47,-1.47,-1.46
185.79,-3.17,-1.72,-3.18,-1.73,1.72,1.40,1.34,-1.45,-1.46,-1.45
187.65,-3.16,-1.72,-3.16,-1.72,1.72,1.39,1.33,-1.45,-1.44,-1.44
189.52,-3.14,-1.71,-3.15,-1.71,1.71,1.39,1.32,-1.43,-1.44,-1.44
191.42,-3.13,-1.69,-3.13,-1.70,1.70,1.39,1.32,-1.43,-1.43,-1.44
193.33,-3.12,-1.69,-3.12,-1.68,1.68,1.39,1.31,-1.44,-1.43,-1.43
195.27,-3.10,-1.67,-3.11,-1.67,1.67,1.39,1.30,-1.43,-1.44,-1.43
197.22,-3.09,-1.65,-3.09,-1.65,1.65,1.39,1.29,-1.44,-1.44,-1.45
199.19,-3.08,-1.64,-3.08,-1.63,1.64,1.39,1.29,-1.44,-1.44,-1.45
201.18,-3.07,-1.61,-3.07,-1.61,1.62,1.39,1.28,-1.45,-1.45,-1.46
203.19,-3.06,-1.59,-3.07,-1.60,1.60,1.39,1.28,-1.46,-1.46,-1.47
205.23,-3.06,-1.58,-3.07,-1.59,1.58,1.39,1.28,-1.48,-1.49,-1.48
207.28,-3.06,-1.57,-3.06,-1.57,1.55,1.39,1.27,-1.51,-1.51,-1.49
209.35,-3.06,-1.56,-3.05,-1.55,1.53,1.39,1.27,-1.53,-1.52,-1.50
211.44,-3.02,-1.51,-3.02,-1.51,1.50,1.39,1.27,-1.52,-1.52,-1.52
213.56,-2.98,-1.46,-2.99,-1.47,1.48,1.40,1.27,-1.50,-1.52,-1.53
215.69,-2.97,-1.43,-2.98,-1.43,1.46,1.40,1.26,-1.52,-1.52,-1.54
217.85,-2.98,-1.43,-2.98,-1.42,1.43,1.40,1.26,-1.55,-1.54,-1.55
220.03,-2.98,-1.41,-2.98,-1.41,1.42,1.40,1.26,-1.57,-1.56,-1.57
222.23,-2.98,-1.40,-2.98,-1.41,1.40,1.41,1.26,-1.58,-1.58,-1.58
224.45,-2.98,-1.40,-2.98,-1.40,1.39,1.41,1.26,-1.59,-1.59,-1.59
226.70,-2.98,-1.39,-2.98,-1.39,1.38,1.41,1.26,-1.60,-1.60,-1.59
228.96,-2.98,-1.38,-2.98,-1.38,1.38,1.41,1.25,-1.60,-1.60,-1.60
231.25,-2.97,-1.38,-2.97,-1.37,1.37,1.41,1.25,-1.60,-1.60,-1.60
233.57,-2.96,-1.36,-2.96,-1.36,1.36,1.42,1.25,-1.60,-1.60,-1.60
235.90,-2.95,-1.35,-2.95,-1.35,1.35,1.42,1.24,-1.60,-1.60,-1.60
238.26,-2.93,-1.34,-2.93,-1.34,1.34,1.42,1.24,-1.59,-1.59,-1.60
240.64,-2.91,-1.33,-2.92,-1.33,1.33,1.42,1.24,-1.58,-1.59,-1.58
243.05,-2.90,-1.33,-2.90,-1.32,1.32,1.42,1.23,-1.58,-1.58,-1.58
245.48,-2.88,-1.31,-2.88,-1.31,1.30,1.42,1.23,-1.58,-1.57,-1.57
247.93,-2.85,-1.28,-2.86,-1.29,1.29,1.42,1.22,-1.56,-1.57,-1.57
250.41,-2.84,-1.28,-2.84,-1.28,1.28,1.41,1.21,-1.57,-1.56,-1.56
252.92,-2.82,-1.26,-2.82,-1.26,1.26,1.41,1.20,-1.56,-1.56,-1.56
255.45,-2.81,-1.25,-2.81,-1.25,1.25,1.41,1.20,-1.56,-1.56,-1.56
258.00,-2.80,-1.24,-2.80,-1.24,1.24,1.40,1.19,-1.56,-1.56,-1.57
260.58,-2.79,-1.22,-2.79,-1.22,1.23,1.40,1.18,-1.56,-1.57,-1.57
263.19,-2.79,-1.22,-2.79,-1.22,1.22,1.39,1.17,-1.57,-1.57,-1.58
265.82,-2.79,-1.21,-2.79,-1.22,1.22,1.39,1.15,-1.58,-1.58,-1.58
268.48,-2.80,-1.22,-2.80,-1.21,1.21,1.38,1.14,-1.59,-1.58,-1.58
271.16,-2.80,-1.22,-2.80,-1.22,1.21,1.37,1.13,-1.59,-1.59,-1.59
273.87,-2.80,-1.21,-2.81,-1.22,1.21,1.36,1.12,-1.59,-1.59,-1.59
276.61,-2.81,-1.22,-2.81,-1.21,1.21,1.36,1.10,-1.60,-1.59,-1.59
279.38,-2.81,-1.21,-2.81,-1.22,1.21,1.35,1.09,-1.60,-1.59,-1.60
282.17,-2.80,-1.21,-2.81,-1.22,1.21,1.33,1.08,-1.59,-1.59,-1.59
284.99,-2.80,-1.22,-2.80,-1.21,1.21,1.32,1.06,-1.59,-1.59,-1.58
287.84,-2.79,-1.21,-2.79,-1.21,1.21,1.31,1.05,-1.58,-1.58,-1.59
290.72,-2.78,-1.20,-2.78,-1.20,1.21,1.30,1.03,-1.58,-1.58,-1.58
293.63,-2.77,-1.20,-2.77,-1.19,1.20,1.28,1.02,-1.57,-1.57,-1.57
296.57,-2.75,-1.19,-2.76,-1.19,1.19,1.27,1.00,-1.57,-1.57,-1.57
299.53,-2.74,-1.17,-2.74,-1.18,1.17,1.25,0.99,-1.57,-1.57,-1.57
302.53,-2.73,-1.17,-2.74,-1.18,1.15,1.24,0.98,-1.58,-1.59,-1.56
305.55,-2.72,-1.16,-2.72,-1.15,1.14,1.22,0.96,-1.59,-1.58,-1.56
308.61,-2.71,-1.15,-2.68,-1.11,1.12,1.21,0.95,-1.59,-1.56,-1.57
311.69,-2.61,-1.04,-2.65,-1.08,1.11,1.19,0.94,-1.50,-1.54,-1.57
314.81,-2.63,-1.05,-2.65,-1.07,1.10,1.17,0.92,-1.53,-1.55,-1.58
317.96,-2.68,-1.10,-2.66,-1.08,1.09,1.15,0.91,-1.59,-1.57,-1.58
321.14,-2.70,-1.11,-2.70,-1.10,1.09,1.14,0.90,-1.62,-1.61,-1.59
324.35,-2.70,-1.11,-2.71,-1.11,1.08,1.12,0.89,-1.62,-1.62,-1.60
327.59,-2.70,-1.09,-2.70,-1.10,1.08,1.10,0.88,-1.62,-1.62,-1.61
330.87,-2.70,-1.08,-2.70,-1.08,1.08,1.08,0.87,-1.62,-1.62,-1.62
334.18,-2.70,-1.07,-2.70,-1.07,1.08,1.06,0.86,-1.62,-1.62,-1.63
337.52,-2.70,-1.06,-2.71,-1.07,1.08,1.04,0.85,-1.63,-1.63,-1.64
340.90,-2.71,-1.07,-2.71,-1.06,1.07,1.02,0.84,-1.65,-1.64,-1.64
344.30,-2.71,-1.06,-2.71,-1.05,1.05,1.00,0.83,-1.66,-1.66,-1.66
347.75,-2.71,-1.03,-2.71,-1.04,1.03,0.98,0.83,-1.68,-1.68,-1.68
351.23,-2.70,-1.01,-2.71,-1.02,1.01,0.96,0.82,-1.70,-1.71,-1.69
354.74,-2.70,-1.00,-2.70,-1.00,0.98,0.94,0.81,-1.73,-1.72,-1.70
358.28,-2.68,-0.97,-2.67,-0.95,0.94,0.92,0.81,-1.74,-1.72,-1.71
361.87,-2.62,-0.90,-2.63,-0.91,0.91,0.90,0.80,-1.71,-1.72,-1.72
365.49,-2.59,-0.85,-2.60,-0.86,0.88,0.88,0.80,-1.72,-1.72,-1.74
369.14,-2.58,-0.83,-2.58,-0.82,0.84,0.86,0.80,-1.74,-1.73,-1.76
372.83,-2.57,-0.81,-2.57,-0.80,0.81,0.84,0.79,-1.76,-1.76,-1.77
376.56,-2.56,-0.78,-2.57,-0.79,0.79,0.82,0.79,-1.77,-1.78,-1.78
380.33,-2.56,-0.77,-2.56,-0.77,0.77,0.80,0.79,-1.79,-1.79,-1.79
384.13,-2.55,-0.75,-2.55,-0.75,0.75,0.79,0.79,-1.80,-1.80,-1.80
387.97,-2.54,-0.73,-2.55,-0.74,0.73,0.77,0.79,-1.81,-1.81,-1.81
391.85,-2.54,-0.72,-2.55,-0.72,0.71,0.75,0.79,-1.83,-1.83,-1.82
395.77,-2.54,-0.71,-2.54,-0.71,0.69,0.73,0.79,-1.85,-1.85,-1.83
399.73,-2.53,-0.69,-2.51,-0.67,0.66,0.71,0.79,-1.87,-1.85,-1.84
403.72,-2.47,-0.62,-2.48,-0.62,0.63,0.69,0.79,-1.84,-1.86,-1.86
407.76,-2.44,-0.57,-2.47,-0.59,0.59,0.67,0.79,-1.85,-1.87,-1.88
411.84,-2.45,-0.57,-2.44,-0.56,0.56,0.66,0.79,-1.90,-1.89,-1.89
415.96,-2.45,-0.55,-2.42,-0.52,0.52,0.64,0.79,-1.93,-1.90,-1.90
420.12,-2.37,-0.47,-2.39,-0.48,0.49,0.62,0.79,-1.88,-1.90,-1.90
424.32,-2.33,-0.42,-2.35,-0.44,0.46,0.60,0.79,-1.87,-1.89,-1.91
428.56,-2.33,-0.42,-2.32,-0.42,0.44,0.59,0.79,-1.90,-1.89,-1.91
432.85,-2.32,-0.42,-2.32,-0.41,0.41,0.57,0.79,-1.91,-1.90,-1.90
437.18,-2.29,-0.40,-2.30,-0.41,0.39,0.55,0.79,-1.90,-1.91,-1.89
441.55,-2.26,-0.39,-2.26,-0.39,0.37,0.54,0.79,-1.90,-1.89,-1.87
445.96,-2.21,-0.36,-2.21,-0.36,0.35,0.52,0.79,-1.86,-1.86,-1.85
450.42,-2.16,-0.34,-2.16,-0.34,0.34,0.51,0.79,-1.83,-1.83,-1.82
454.93,-2.10,-0.32,-2.10,-0.31,0.33,0.49,0.79,-1.77,-1.77,-1.78
459.48,-2.04,-0.30,-2.04,-0.29,0.32,0.47,0.78,-1.72,-1.72,-1.74
464.07,-1.98,-0.27,-2.00,-0.29,0.31,0.46,0.78,-1.67,-1.69,-1.71
468.71,-1.96,-0.29,-1.98,-0.31,0.30,0.44,0.78,-1.66,-1.68,-1.67
473.40,-1.99,-0.36,-1.96,-0.32,0.30,0.43,0.77,-1.70,-1.66,-1.64
478.13,-1.93,-0.34,-1.93,-0.33,0.29,0.41,0.76,-1.64,-1.64,-1.60
