frequency,raw
20.00,-13.88
20.20,-13.76
20.40,-13.64
20.61,-13.53
20.81,-13.42
21.02,-13.31
21.23,-13.19
21.44,-13.08
21.66,-12.97
21.87,-12.86
22.09,-12.75
22.31,-12.64
22.54,-12.52
22.76,-12.40
22.99,-12.30
23.22,-12.21
23.45,-12.10
23.69,-12.00
23.92,-11.89
24.16,-11.79
24.40,-11.68
24.65,-11.58
24.89,-11.48
25.14,-11.37
25.39,-11.27
25.65,-11.18
25.91,-11.08
26.16,-10.97
26.43,-10.87
26.69,-10.76
26.96,-10.65
27.23,-10.57
27.50,-10.47
27.77,-10.37
28.05,-10.30
28.33,-10.20
28.62,-10.11
28.90,-10.04
29.19,-9.95
29.48,-9.87
29.78,-9.79
30.08,-9.69
30.38,-9.62
30.68,-9.54
30.99,-9.44
31.30,-9.36
31.61,-9.27
31.93,-9.17
32.24,-9.08
32.57,-8.98
32.89,-8.88
33.22,-8.77
33.55,-8.67
33.89,-8.56
34.23,-8.46
34.57,-8.36
34.92,-8.25
35.27,-8.14
35.62,-8.05
35.97,-7.94
36.33,-7.84
36.70,-7.74
37.06,-7.62
37.43,-7.51
37.81,-7.42
38.19,-7.31
38.57,-7.21
38.95,-7.12
39.34,-7.02
39.74,-6.93
40.14,-6.84
40.54,-6.75
40.94,-6.66
41.35,-6.57
41.76,-6.47
42.18,-6.39
42.60,-6.30
43.03,-6.21
43.46,-6.12
43.90,-6.03
44.33,-5.93
44.78,-5.85
45.23,-5.76
45.68,-5.64
46.13,-5.53
46.60,-5.44
47.06,-5.34
47.53,-5.24
48.01,-5.15
48.49,-5.06
48.97,-4.97
49.46,-4.89
49.96,-4.79
50.46,-4.70
50.96,-4.61
51.47,-4.54
51.99,-4.48
52.51,-4.42
53.03,-4.35
53.56,-4.29
54.10,-4.22
54.64,-4.17
55.18,-4.13
55.74,-4.09
56.29,-4.02
56.86,-3.96
57.42,-3.92
58.00,-3.88
58.58,-3.83
59.16,-3.77
59.76,-3.71
60.35,-3.66
60.96,-3.61
61.57,-3.54
62.18,-3.47
62.80,-3.41
63.43,-3.34
64.07,-3.29
64.71,-3.22
65.35,-3.13
66.01,-3.05
66.67,-2.98
67.33,-2.90
68.01,-2.85
68.69,-2.79
69.37,-2.72
70.07,-2.64
70.77,-2.57
71.48,-2.51
72.19,-2.45
72.91,-2.39
73.64,-2.34
74.38,-2.29
75.12,-2.26
75.87,-2.25
76.63,-2.23
77.40,-2.22
78.17,-2.20
78.95,-2.19
79.74,-2.17
80.54,-2.15
81.35,-2.13
82.16,-2.11
82.98,-2.10
83.81,-2.08
84.65,-2.06
85.50,-2.04
86.35,-2.03
87.22,-2.01
88.09,-2.01
88.97,-2.01
89.86,-1.99
90.76,-1.98
91.66,-1.96
92.58,-1.95
93.51,-1.95
94.44,-1.94
95.39,-1.93
96.34,-1.91
97.30,-1.90
98.28,-1.88
99.26,-1.86
100.25,-1.84
101.25,-1.82
102.27,-1.81
103.29,-1.79
104.32,-1.79
105.37,-1.78
106.42,-1.78
107.48,-1.80
108.56,-1.80
109.64,-1.80
110.74,-1.80
111.85,-1.80
112.97,-1.79
114.10,-1.78
115.24,-1.78
116.39,-1.77
117.55,-1.76
118.73,-1.76
119.92,-1.75
121.12,-1.74
122.33,-1.73
123.55,-1.72
124.79,-1.72
126.03,-1.73
127.29,-1.75
128.57,-1.77
129.85,-1.79
131.15,-1.82
132.46,-1.85
133.79,-1.88
135.12,-1.91
136.48,-1.94
137.84,-1.97
139.22,-2.00
140.61,-2.02
142.02,-2.05
143.44,-2.07
144.87,-2.08
146.32,-2.08
147.78,-2.07
149.26,-2.06
150.75,-2.03
152.26,-2.03
153.78,-2.03
155.32,-2.04
156.88,-2.06
158.44,-2.08
160.03,-2.10
161.63,-2.11
163.24,-2.14
164.88,-2.17
166.53,-2.19
168.19,-2.20
169.87,-2.21
171.57,-2.22
173.29,-2.24
175.02,-2.24
176.77,-2.26
178.54,-2.27
180.32,-2.28
182.13,-2.29
183.95,-2.29
185.79,-2.29
187.65,-2.29
189.52,-2.29
191.42,-2.30
193.33,-2.32
195.27,-2.34
197.22,-2.35
199.19,-2.37
201.18,-2.38
203.19,-2.40
205.23,-2.41
207.28,-2.41
209.35,-2.41
211.44,-2.40
213.56,-2.40
215.69,-2.40
217.85,-2.38
220.03,-2.38
222.23,-2.38
224.45,-2.37
226.70,-2.38
228.96,-2.38
231.25,-2.38
233.57,-2.38
235.90,-2.40
238.26,-2.40
240.64,-2.42
243.05,-2.45
245.48,-2.47
247.93,-2.48
250.41,-2.50
252.92,-2.51
255.45,-2.52
258.00,-2.52
260.58,-2.50
263.19,-2.49
265.82,-2.47
268.48,-2.45
271.16,-2.44
273.87,-2.45
276.61,-2.46
279.38,-2.47
282.17,-2.49
284.99,-2.51
287.84,-2.53
290.72,-2.55
293.63,-2.58
296.57,-2.59
299.53,-2.60
302.53,-2.62
305.55,-2.62
308.61,-2.63
311.69,-2.62
314.81,-2.61
317.96,-2.59
321.14,-2.56
324.35,-2.54
327.59,-2.51
330.87,-2.49
334.18,-2.47
337.52,-2.45
340.90,-2.45
344.30,-2.45
347.75,-2.45
351.23,-2.46
354.74,-2.47
358.28,-2.48
361.87,-2.50
365.49,-2.51
369.14,-2.52
372.83,-2.54
376.56,-2.55
380.33,-2.55
384.13,-2.55
387.97,-2.56
391.85,-2.55
395.77,-2.55
399.73,-2.54
403.72,-2.51
407.76,-2.47
411.84,-2.45
415.96,-2.44
420.12,-2.44
424.32,-2.43
428.56,-2.44
432.85,-2.45
437.18,-2.46
441.55,-2.47
445.96,-2.49
450.42,-2.50
454.93,-2.51
459.48,-2.52
464.07,-2.53
468.71,-2.54
473.40,-2.54
478.13,-2.55
482.91,-2.55
487.74,-2.55
492.62,-2.53
497.55,-2.52
502.52,-2.50
507.55,-2.47
512.62,-2.46
517.75,-2.44
522.93,-2.43
528.16,-2.41
533.44,-2.39
538.77,-2.36
544.16,-2.34
549.60,-2.32
555.10,-2.30
560.65,-2.27
566.25,-2.25
571.92,-2.21
577.64,-2.16
583.41,-2.12
589.25,-2.06
595.14,-2.01
601.09,-1.96
607.10,-1.92
613.17,-1.87
619.30,-1.83
625.50,-1.78
631.75,-1.74
638.07,-1.71
644.45,-1.68
650.89,-1.65
657.40,-1.63
663.98,-1.62
670.62,-1.62
677.32,-1.62
684.10,-1.63
690.94,-1.63
697.85,-1.63
704.83,-1.63
711.87,-1.62
718.99,-1.62
726.18,-1.61
733.44,-1.60
740.78,-1.59
748.19,-1.57
755.67,-1.56
763.23,-1.54
770.86,-1.51
778.57,-1.49
786.35,-1.46
794.22,-1.44
802.16,-1.41
810.18,-1.39
818.28,-1.36
826.46,-1.34
834.73,-1.31
843.08,-1.29
851.51,-1.26
860.02,-1.24
868.62,-1.22
877.31,-1.20
886.08,-1.18
894.94,-1.17
903.89,-1.14
912.93,-1.11
922.06,-1.06
931.28,-1.03
940.59,-0.98
950.00,-0.93
959.50,-0.87
969.09,-0.82
978.78,-0.76
988.57,-0.69
998.46,-0.62
1008.44,-0.57
1018.53,-0.50
1028.71,-0.44
1039.00,-0.40
1049.39,-0.35
1059.88,-0.30
1070.48,-0.26
1081.19,-0.22
1092.00,-0.17
1102.92,-0.12
1113.95,-0.07
1125.09,-0.00
1136.34,0.07
1147.70,0.13
1159.18,0.21
1170.77,0.27
1182.48,0.35
1194.30,0.42
1206.25,0.51
1218.31,0.60
1230.49,0.68
1242.80,0.75
1255.22,0.84
1267.78,0.92
1280.45,1.02
1293.26,1.10
1306.19,1.20
1319.25,1.29
1332.45,1.41
1345.77,1.53
1359.23,1.65
1372.82,1.77
1386.55,1.90
1400.41,2.03
1414.42,2.16
1428.56,2.29
1442.85,2.42
1457.28,2.55
1471.85,2.70
1486.57,2.85
1501.43,3.01
1516.45,3.15
1531.61,3.31
1546.93,3.47
1562.40,3.66
1578.02,3.85
1593.80,4.05
1609.74,4.26
1625.84,4.51
1642.10,4.78
1658.52,5.08
1675.10,5.39
1691.85,5.73
1708.77,6.10
1725.86,6.50
1743.12,6.91
1760.55,7.34
1778.15,7.78
1795.94,8.24
1813.90,8.71
1832.03,9.18
1850.36,9.65
1868.86,10.11
1887.55,10.54
1906.42,10.99
1925.49,11.41
1944.74,11.80
1964.19,12.18
1983.83,12.54
2003.67,12.87
2023.71,13.17
2043.94,13.43
2064.38,13.68
2085.03,13.88
2105.88,14.09
2126.94,14.26
2148.20,14.43
2169.69,14.57
2191.38,14.68
2213.30,14.79
2235.43,14.88
2257.78,14.95
2280.36,15.01
2303.17,15.06
2326.20,15.10
2349.46,15.13
2372.95,15.14
2396.68,15.16
2420.65,15.14
2444.86,15.10
2469.31,15.07
2494.00,15.02
2518.94,14.96
2544.13,14.90
2569.57,14.82
2595.27,14.73
2621.22,14.62
2647.43,14.50
2673.90,14.37
2700.64,14.23
2727.65,14.08
2754.93,13.93
2782.48,13.77
2810.30,13.60
2838.40,13.42
2866.79,13.23
2895.46,13.03
2924.41,12.80
2953.65,12.56
2983.19,12.31
3013.02,12.06
3043.15,11.82
3073.58,11.57
3104.32,11.36
3135.36,11.14
3166.72,10.93
3198.38,10.74
3230.37,10.55
3262.67,10.39
3295.30,10.27
3328.25,10.16
3361.53,10.08
3395.15,10.03
3429.10,10.01
3463.39,10.01
3498.03,10.04
3533.01,10.09
3568.34,10.15
3604.02,10.21
3640.06,10.26
3676.46,10.31
3713.22,10.34
3750.36,10.37
3787.86,10.40
3825.74,10.42
3864.00,10.41
3902.64,10.37
3941.66,10.31
3981.08,10.22
4020.89,10.10
4061.10,9.97
4101.71,9.82
4142.73,9.65
4184.15,9.48
4226.00,9.29
4268.26,9.11
4310.94,8.94
4354.05,8.78
4397.59,8.60
4441.56,8.43
4485.98,8.26
4530.84,8.10
4576.15,7.93
4621.91,7.75
4668.13,7.59
4714.81,7.45
4761.96,7.30
4809.58,7.17
4857.67,7.06
4906.25,6.95
4955.31,6.86
5004.87,6.79
5054.91,6.76
5105.46,6.71
5156.52,6.69
5208.08,6.68
5260.16,6.66
5312.77,6.66
5365.89,6.66
5419.55,6.68
5473.75,6.71
5528.49,6.73
5583.77,6.75
5639.61,6.76
5696.00,6.76
5752.96,6.75
5810.49,6.75
5868.60,6.75
5927.28,6.76
5986.56,6.75
6046.42,6.76
6106.89,6.77
6167.96,6.77
6229.64,6.80
6291.93,6.81
6354.85,6.85
6418.40,6.89
6482.58,6.97
6547.41,7.03
6612.88,7.11
6679.01,7.21
6745.80,7.33
6813.26,7.47
6881.39,7.61
6950.21,7.79
7019.71,7.97
7089.91,8.17
7160.81,8.38
7232.41,8.60
7304.74,8.80
7377.79,9.00
7451.56,9.17
7526.08,9.31
7601.34,9.39
7677.35,9.43
7754.13,9.39
7831.67,9.28
7909.98,9.10
7989.08,8.84
8068.98,8.51
8149.67,8.12
8231.16,7.70
8313.47,7.24
8396.61,6.76
8480.57,6.26
8565.38,5.78
8651.03,5.31
8737.54,4.87
8824.92,4.45
8913.17,4.05
9002.30,3.69
9092.32,3.35
9183.25,3.04
9275.08,2.76
9367.83,2.50
9461.51,2.29
9556.12,2.10
9651.68,1.94
9748.20,1.79
9845.68,1.66
9944.14,1.56
10043.58,1.47
10144.02,1.37
10245.46,1.27
10347.91,1.13
10451.39,0.96
10555.91,0.74
10661.46,0.46
10768.08,0.13
10875.76,-0.24
10984.52,-0.68
11094.36,-1.13
11205.31,-1.60
11317.36,-2.06
11430.53,-2.49
11544.84,-2.89
11660.29,-3.25
11776.89,-3.55
11894.66,-3.80
12013.60,-4.01
12133.74,-4.19
12255.08,-4.35
12377.63,-4.51
12501.41,-4.67
12626.42,-4.85
12752.68,-5.04
12880.21,-5.27
13009.01,-5.51
13139.10,-5.80
13270.49,-6.14
13403.20,-6.51
13537.23,-6.91
13672.60,-7.38
13809.33,-7.87
13947.42,-8.38
14086.90,-8.91
14227.77,-9.42
14370.04,-9.90
14513.74,-10.33
14658.88,-10.69
14805.47,-10.96
14953.52,-11.14
15103.06,-11.19
15254.09,-11.13
15406.63,-10.96
15560.70,-10.70
15716.30,-10.38
15873.47,-10.00
16032.20,-9.61
16192.52,-9.25
16354.45,-8.94
16517.99,-8.70
16683.17,-8.54
16850.01,-8.48
17018.51,-8.54
17188.69,-8.66
17360.58,-8.87
17534.18,-9.15
17709.53,-9.50
17886.62,-9.87
18065.49,-10.17
18246.14,-10.48
18428.60,-10.81
18612.89,-11.16
18799.02,-11.55
18987.01,-11.95
19176.88,-12.38
19368.65,-12.83
19562.33,-13.30
19757.96,-13.80
19955.54,-14.31
