frequency,raw,error,smoothed,error_smoothed,equalization,parametric_eq,fixed_band_eq,equalized_raw,equalized_smoothed,target
20.00,-10.03,-10.98,-10.04,-10.99,6.00,4.98,2.10,-4.03,-4.04,0.95
20.20,-9.83,-10.79,-9.83,-10.79,6.00,5.09,2.16,-3.83,-3.83,0.96
20.40,-9.63,-10.60,-9.63,-10.59,6.00,5.19,2.22,-3.63,-3.63,0.97
20.61,-9.45,-10.42,-9.43,-10.41,6.00,5.29,2.29,-3.45,-3.43,0.97
20.81,-9.24,-10.22,-9.24,-10.22,6.00,5.38,2.36,-3.24,-3.24,0.98
21.02,-9.05,-10.03,-9.07,-10.06,6.00,5.48,2.43,-3.05,-3.07,0.98
21.23,-8.93,-9.92,-8.93,-9.92,6.00,5.57,2.50,-2.93,-2.93,0.99
21.44,-8.81,-9.80,-8.81,-9.80,6.00,5.66,2.57,-2.81,-2.81,0.99
21.66,-8.71,-9.69,-8.71,-9.69,6.00,5.74,2.65,-2.71,-2.71,0.99
21.87,-8.58,-9.57,-8.58,-9.57,6.00,5.82,2.72,-2.58,-2.58,0.99
22.09,-8.43,-9.43,-8.43,-9.42,6.00,5.90,2.80,-2.43,-2.43,1.00
22.31,-8.25,-9.25,-8.25,-9.25,6.00,5.97,2.89,-2.25,-2.25,1.00
22.54,-8.07,-9.05,-8.06,-9.05,6.00,6.03,2.97,-2.07,-2.06,0.99
22.76,-7.87,-8.85,-7.88,-8.86,6.00,6.09,3.06,-1.87,-1.88,0.98
22.99,-7.70,-8.67,-7.71,-8.69,6.00,6.13,3.14,-1.70,-1.71,0.98
23.22,-7.59,-8.56,-7.58,-8.55,6.00,6.18,3.23,-1.59,-1.58,0.98
23.45,-7.47,-8.44,-7.47,-8.44,6.00,6.21,3.32,-1.47,-1.47,0.96
23.69,-7.37,-8.33,-7.37,-8.33,6.00,6.23,3.42,-1.37,-1.37,0.96
23.92,-7.25,-8.22,-7.25,-8.21,6.00,6.25,3.51,-1.25,-1.25,0.96
24.16,-7.11,-8.08,-7.11,-8.07,6.00,6.26,3.61,-1.11,-1.11,0.96
24.40,-6.95,-7.92,-6.96,-7.93,6.00,6.25,3.71,-0.95,-0.96,0.96
24.65,-6.81,-7.77,-6.81,-7.77,6.00,6.24,3.81,-0.81,-0.81,0.96
24.89,-6.65,-7.61,-6.65,-7.61,6.00,6.23,3.91,-0.65,-0.65,0.96
25.14,-6.48,-7.44,-6.48,-7.44,6.00,6.20,4.01,-0.48,-0.48,0.96
25.39,-6.30,-7.25,-6.30,-7.26,6.00,6.16,4.11,-0.30,-0.30,0.95
25.65,-6.13,-7.08,-6.13,-7.08,6.00,6.12,4.21,-0.13,-0.13,0.95
25.91,-5.96,-6.91,-5.96,-6.91,6.00,6.07,4.31,0.04,0.04,0.95
26.16,-5.81,-6.76,-5.82,-6.77,6.01,6.01,4.41,0.19,0.19,0.95
26.43,-5.70,-6.65,-5.70,-6.65,6.02,5.95,4.51,0.32,0.32,0.95
26.69,-5.58,-6.53,-5.58,-6.53,6.02,5.88,4.61,0.44,0.44,0.95
26.96,-5.48,-6.42,-5.47,-6.42,6.02,5.80,4.71,0.55,0.55,0.95
27.23,-5.35,-6.29,-5.35,-6.29,6.01,5.72,4.80,0.66,0.66,0.95
27.50,-5.22,-6.16,-5.22,-6.16,5.98,5.64,4.89,0.76,0.76,0.95
27.77,-5.08,-6.03,-5.08,-6.03,5.93,5.55,4.98,0.84,0.84,0.95
28.05,-4.95,-5.90,-4.95,-5.90,5.86,5.45,5.06,0.90,0.90,0.94
28.33,-4.82,-5.77,-4.83,-5.77,5.77,5.36,5.14,0.95,0.94,0.94
28.62,-4.71,-5.65,-4.70,-5.65,5.66,5.26,5.21,0.95,0.96,0.94
28.90,-4.57,-5.53,-4.57,-5.52,5.54,5.16,5.28,0.96,0.96,0.95
29.19,-4.43,-5.39,-4.44,-5.39,5.40,5.06,5.34,0.96,0.96,0.95
29.48,-4.29,-5.24,-4.29,-5.25,5.26,4.96,5.39,0.96,0.96,0.95
29.78,-4.15,-5.11,-4.15,-5.10,5.11,4.85,5.44,0.97,0.96,0.96
30.08,-4.01,-4.97,-4.01,-4.97,4.98,4.75,5.47,0.97,0.97,0.96
30.38,-3.88,-4.83,-3.88,-4.83,4.84,4.65,5.50,0.97,0.97,0.96
30.68,-3.75,-4.70,-3.75,-4.70,4.71,4.54,5.52,0.96,0.96,0.96
30.99,-3.62,-4.57,-3.62,-4.57,4.57,4.44,5.53,0.95,0.95,0.96
31.30,-3.49,-4.44,-3.49,-4.44,4.43,4.34,5.53,0.94,0.94,0.95
31.61,-3.36,-4.31,-3.36,-4.31,4.29,4.24,5.52,0.93,0.93,0.95
31.93,-3.23,-4.18,-3.22,-4.17,4.15,4.14,5.50,0.92,0.93,0.95
32.24,-3.08,-4.02,-3.08,-4.02,4.02,4.04,5.47,0.93,0.94,0.94
32.57,-2.94,-3.87,-2.93,-3.87,3.89,3.94,5.44,0.95,0.96,0.94
32.89,-2.78,-3.72,-2.80,-3.73,3.77,3.85,5.39,0.99,0.97,0.94
33.22,-2.68,-3.61,-2.69,-3.62,3.66,3.75,5.34,0.97,0.96,0.93
33.55,-2.61,-3.54,-2.61,-3.53,3.54,3.66,5.28,0.93,0.93,0.92
33.89,-2.54,-3.46,-2.54,-3.45,3.43,3.57,5.21,0.89,0.89,0.91
34.23,-2.46,-3.37,-2.45,-3.36,3.32,3.48,5.14,0.86,0.87,0.91
34.57,-2.34,-3.25,-2.35,-3.26,3.21,3.40,5.06,0.86,0.86,0.91
34.92,-2.25,-3.15,-2.24,-3.15,3.11,3.31,4.98,0.87,0.87,0.91
35.27,-2.12,-3.02,-2.10,-3.00,3.02,3.23,4.89,0.91,0.92,0.91
35.62,-1.98,-2.88,-1.97,-2.87,2.94,3.15,4.80,0.97,0.97,0.90
35.97,-1.83,-2.74,-1.88,-2.78,2.87,3.07,4.70,1.03,0.99,0.90
36.33,-1.85,-2.74,-1.85,-2.75,2.80,3.00,4.60,0.95,0.95,0.90
36.70,-1.86,-2.76,-1.84,-2.74,2.73,2.92,4.50,0.86,0.88,0.90
37.06,-1.85,-2.75,-1.83,-2.73,2.66,2.85,4.40,0.81,0.83,0.89
37.43,-1.76,-2.66,-1.77,-2.67,2.59,2.78,4.29,0.83,0.82,0.89
37.81,-1.68,-2.57,-1.67,-2.57,2.53,2.71,4.19,0.85,0.85,0.90
38.19,-1.56,-2.45,-1.55,-2.44,2.45,2.64,4.08,0.89,0.90,0.90
38.57,-1.43,-2.32,-1.42,-2.32,2.35,2.58,3.98,0.93,0.93,0.89
38.95,-1.29,-2.19,-1.32,-2.21,2.24,2.52,3.87,0.95,0.93,0.90
39.34,-1.22,-2.12,-1.23,-2.13,2.13,2.46,3.77,0.90,0.90,0.90
39.74,-1.18,-2.07,-1.16,-2.05,2.02,2.40,3.66,0.85,0.86,0.89
40.14,-1.09,-1.98,-1.06,-1.95,1.93,2.34,3.56,0.84,0.87,0.89
40.54,-0.96,-1.84,-0.95,-1.84,1.86,2.28,3.46,0.90,0.91,0.89
40.94,-0.82,-1.71,-0.87,-1.75,1.80,2.23,3.36,0.98,0.94,0.88
41.35,-0.82,-1.71,-0.83,-1.71,1.76,2.17,3.26,0.93,0.93,0.88
41.76,-0.85,-1.72,-0.84,-1.71,1.73,2.12,3.16,0.87,0.89,0.87
42.18,-0.86,-1.73,-0.86,-1.72,1.70,2.07,3.07,0.84,0.84,0.86
42.60,-0.86,-1.72,-0.87,-1.73,1.69,2.03,2.97,0.82,0.82,0.86
43.03,-0.86,-1.72,-0.87,-1.72,1.70,1.98,2.88,0.83,0.83,0.86
43.46,-0.86,-1.72,-0.86,-1.71,1.72,1.93,2.79,0.86,0.86,0.85
43.90,-0.86,-1.70,-0.86,-1.70,1.74,1.89,2.70,0.87,0.87,0.84
44.33,-0.86,-1.70,-0.86,-1.69,1.73,1.85,2.62,0.87,0.87,0.83
44.78,-0.86,-1.69,-0.88,-1.71,1.71,1.80,2.53,0.85,0.83,0.83
45.23,-0.90,-1.73,-0.94,-1.76,1.69,1.76,2.45,0.78,0.75,0.82
45.68,-0.98,-1.80,-0.96,-1.77,1.67,1.73,2.37,0.68,0.71,0.82
46.13,-0.96,-1.78,-0.86,-1.68,1.65,1.69,2.29,0.68,0.79,0.82
46.60,-0.71,-1.52,-0.73,-1.54,1.62,1.65,2.21,0.91,0.89,0.82
47.06,-0.51,-1.32,-0.66,-1.48,1.58,1.62,2.14,1.07,0.92,0.82
47.53,-0.68,-1.50,-0.67,-1.49,1.54,1.58,2.07,0.86,0.87,0.82
48.01,-0.84,-1.67,-0.71,-1.54,1.50,1.55,1.99,0.65,0.79,0.83
48.49,-0.71,-1.54,-0.72,-1.55,1.46,1.52,1.92,0.76,0.74,0.83
48.97,-0.57,-1.41,-0.62,-1.46,1.44,1.49,1.86,0.86,0.81,0.83
49.46,-0.53,-1.37,-0.53,-1.37,1.42,1.46,1.79,0.89,0.89,0.84
49.96,-0.50,-1.35,-0.52,-1.37,1.40,1.43,1.73,0.90,0.88,0.85
50.46,-0.52,-1.38,-0.53,-1.38,1.38,1.40,1.66,0.85,0.85,0.85
50.96,-0.55,-1.42,-0.51,-1.37,1.35,1.37,1.60,0.79,0.83,0.86
51.47,-0.47,-1.34,-0.48,-1.34,1.31,1.35,1.54,0.84,0.84,0.87
51.99,-0.40,-1.26,-0.42,-1.29,1.28,1.32,1.49,0.89,0.86,0.87
52.51,-0.38,-1.24,-0.38,-1.24,1.26,1.30,1.43,0.88,0.88,0.87
53.03,-0.36,-1.23,-0.37,-1.24,1.23,1.27,1.38,0.87,0.87,0.87
53.56,-0.36,-1.23,-0.35,-1.23,1.21,1.25,1.32,0.85,0.86,0.87
54.10,-0.34,-1.22,-0.31,-1.18,1.20,1.23,1.27,0.85,0.89,0.88
54.64,-0.26,-1.13,-0.28,-1.16,1.20,1.20,1.22,0.94,0.92,0.88
55.18,-0.25,-1.12,-0.30,-1.18,1.21,1.18,1.17,0.97,0.91,0.88
55.74,-0.38,-1.25,-0.34,-1.21,1.23,1.16,1.13,0.85,0.90,0.87
56.29,-0.43,-1.30,-0.39,-1.25,1.26,1.14,1.08,0.82,0.87,0.87
56.86,-0.39,-1.25,-0.45,-1.31,1.27,1.13,1.04,0.89,0.83,0.87
57.42,-0.46,-1.31,-0.48,-1.33,1.29,1.11,1.00,0.84,0.82,0.85
58.00,-0.56,-1.41,-0.49,-1.33,1.31,1.09,0.96,0.75,0.82,0.84
58.58,-0.49,-1.32,-0.51,-1.34,1.32,1.07,0.92,0.83,0.81,0.83
59.16,-0.46,-1.27,-0.50,-1.31,1.32,1.06,0.89,0.87,0.83,0.82
59.76,-0.49,-1.30,-0.48,-1.28,1.32,1.04,0.85,0.82,0.83,0.80
60.35,-0.51,-1.29,-0.50,-1.28,1.30,1.03,0.82,0.79,0.80,0.78
60.96,-0.52,-1.28,-0.53,-1.29,1.28,1.01,0.79,0.76,0.75,0.75
61.57,-0.54,-1.27,-0.55,-1.27,1.26,1.00,0.76,0.71,0.71,0.73
62.18,-0.56,-1.26,-0.56,-1.25,1.23,0.99,0.73,0.66,0.67,0.69
62.80,-0.56,-1.22,-0.57,-1.22,1.20,0.97,0.70,0.63,0.63,0.66
63.43,-0.56,-1.17,-0.57,-1.18,1.17,0.96,0.68,0.61,0.61,0.61
64.07,-0.56,-1.14,-0.56,-1.14,1.15,0.95,0.66,0.59,0.59,0.57
64.71,-0.56,-1.09,-0.55,-1.08,1.13,0.94,0.63,0.57,0.58,0.53
65.35,-0.56,-1.05,-0.57,-1.06,1.11,0.93,0.61,0.54,0.54,0.49
66.01,-0.56,-1.01,-0.63,-1.08,1.08,0.92,0.60,0.51,0.45,0.45
66.67,-0.72,-1.13,-0.68,-1.09,1.04,0.91,0.58,0.32,0.37,0.41
67.33,-0.75,-1.13,-0.71,-1.09,1.01,0.90,0.56,0.26,0.30,0.38
68.01,-0.67,-1.01,-0.71,-1.05,0.99,0.89,0.55,0.33,0.28,0.34
68.69,-0.65,-0.96,-0.63,-0.94,0.97,0.88,0.53,0.32,0.34,0.31
69.37,-0.60,-0.88,-0.60,-0.87,0.95,0.88,0.52,0.35,0.36,0.28
70.07,-0.54,-0.79,-0.62,-0.87,0.93,0.87,0.51,0.39,0.31,0.25
70.77,-0.70,-0.92,-0.67,-0.89,0.91,0.86,0.50,0.20,0.24,0.21
71.48,-0.76,-0.96,-0.73,-0.92,0.89,0.85,0.49,0.12,0.15,0.19
72.19,-0.76,-0.92,-0.78,-0.93,0.87,0.85,0.48,0.10,0.09,0.16
72.91,-0.76,-0.89,-0.77,-0.89,0.85,0.84,0.47,0.09,0.08,0.12
73.64,-0.76,-0.85,-0.76,-0.85,0.85,0.84,0.47,0.08,0.09,0.09
74.38,-0.76,-0.82,-0.76,-0.82,0.84,0.83,0.46,0.08,0.08,0.05
75.12,-0.76,-0.78,-0.77,-0.78,0.83,0.83,0.46,0.06,0.06,0.02
75.87,-0.80,-0.77,-0.80,-0.77,0.81,0.82,0.45,0.02,0.02,-0.03
76.63,-0.84,-0.77,-0.85,-0.78,0.79,0.82,0.45,-0.05,-0.06,-0.07
77.40,-0.90,-0.79,-0.90,-0.79,0.76,0.82,0.44,-0.15,-0.14,-0.11
78.17,-0.96,-0.81,-0.95,-0.79,0.73,0.81,0.44,-0.24,-0.22,-0.15
78.95,-0.96,-0.76,-0.97,-0.77,0.70,0.81,0.44,-0.26,-0.27,-0.20
79.74,-0.96,-0.72,-0.96,-0.71,0.69,0.81,0.43,-0.27,-0.27,-0.24
80.54,-0.93,-0.64,-0.91,-0.62,0.68,0.81,0.43,-0.25,-0.23,-0.29
81.35,-0.88,-0.55,-0.90,-0.57,0.68,0.80,0.43,-0.21,-0.22,-0.33
82.16,-0.89,-0.51,-0.95,-0.57,0.66,0.80,0.43,-0.22,-0.29,-0.37
82.98,-1.07,-0.65,-1.05,-0.64,0.64,0.80,0.43,-0.42,-0.41,-0.42
83.81,-1.20,-0.75,-1.18,-0.72,0.63,0.80,0.43,-0.58,-0.55,-0.46
84.65,-1.26,-0.77,-1.24,-0.74,0.61,0.80,0.42,-0.65,-0.62,-0.49
85.50,-1.22,-0.68,-1.19,-0.66,0.61,0.80,0.42,-0.61,-0.58,-0.53
86.35,-1.10,-0.53,-1.15,-0.57,0.61,0.80,0.42,-0.50,-0.54,-0.58
87.22,-1.08,-0.46,-1.14,-0.52,0.60,0.80,0.42,-0.49,-0.54,-0.62
88.09,-1.22,-0.56,-1.18,-0.52,0.58,0.80,0.42,-0.65,-0.60,-0.67
88.97,-1.26,-0.56,-1.25,-0.55,0.56,0.80,0.43,-0.70,-0.69,-0.70
89.86,-1.30,-0.56,-1.32,-0.57,0.55,0.80,0.43,-0.76,-0.77,-0.75
90.76,-1.35,-0.56,-1.36,-0.58,0.55,0.81,0.43,-0.81,-0.82,-0.79
91.66,-1.42,-0.59,-1.41,-0.57,0.56,0.81,0.43,-0.87,-0.85,-0.83
92.58,-1.45,-0.59,-1.44,-0.57,0.56,0.81,0.43,-0.89,-0.88,-0.87
93.51,-1.45,-0.54,-1.49,-0.58,0.56,0.81,0.43,-0.89,-0.93,-0.91
94.44,-1.52,-0.57,-1.53,-0.57,0.56,0.82,0.43,-0.97,-0.97,-0.95
95.39,-1.59,-0.60,-1.54,-0.55,0.55,0.82,0.43,-1.04,-0.98,-0.99
96.34,-1.54,-0.52,-1.56,-0.54,0.55,0.82,0.44,-0.99,-1.01,-1.03
97.30,-1.55,-0.48,-1.60,-0.53,0.56,0.83,0.44,-0.98,-1.04,-1.07
98.28,-1.69,-0.58,-1.67,-0.56,0.58,0.83,0.44,-1.11,-1.08,-1.12
99.26,-1.77,-0.62,-1.75,-0.60,0.61,0.83,0.44,-1.16,-1.14,-1.15
100.25,-1.83,-0.64,-1.82,-0.63,0.64,0.84,0.45,-1.20,-1.19,-1.19
101.25,-1.86,-0.62,-1.89,-0.65,0.66,0.84,0.45,-1.20,-1.23,-1.23
102.27,-1.96,-0.68,-1.98,-0.70,0.66,0.85,0.45,-1.30,-1.32,-1.28
103.29,-2.09,-0.76,-2.07,-0.74,0.67,0.85,0.46,-1.42,-1.40,-1.33
104.32,-2.16,-0.78,-2.13,-0.75,0.68,0.86,0.46,-1.48,-1.44,-1.38
105.37,-2.12,-0.69,-2.11,-0.69,0.70,0.87,0.47,-1.42,-1.41,-1.42
106.42,-2.06,-0.60,-2.08,-0.61,0.71,0.87,0.47,-1.36,-1.38,-1.47
107.48,-2.08,-0.56,-2.11,-0.60,0.71,0.88,0.48,-1.37,-1.41,-1.52
108.56,-2.21,-0.65,-2.24,-0.67,0.70,0.89,0.48,-1.52,-1.54,-1.57
109.64,-2.41,-0.79,-2.38,-0.76,0.68,0.89,0.49,-1.72,-1.69,-1.62
110.74,-2.51,-0.86,-2.47,-0.81,0.68,0.90,0.49,-1.83,-1.78,-1.66
111.85,-2.45,-0.76,-2.45,-0.76,0.69,0.91,0.50,-1.76,-1.76,-1.70
112.97,-2.40,-0.66,-2.40,-0.67,0.72,0.92,0.51,-1.68,-1.69,-1.73
114.10,-2.34,-0.56,-2.38,-0.61,0.73,0.92,0.51,-1.60,-1.65,-1.77
115.24,-2.44,-0.64,-2.44,-0.64,0.73,0.93,0.52,-1.72,-1.71,-1.80
116.39,-2.55,-0.72,-2.57,-0.74,0.71,0.94,0.53,-1.84,-1.86,-1.84
117.55,-2.70,-0.84,-2.68,-0.82,0.71,0.95,0.54,-1.99,-1.98,-1.86
118.73,-2.76,-0.88,-2.69,-0.80,0.72,0.96,0.55,-2.05,-1.97,-1.88
119.92,-2.64,-0.73,-2.65,-0.75,0.75,0.97,0.55,-1.88,-1.90,-1.90
121.12,-2.53,-0.61,-2.60,-0.68,0.79,0.98,0.56,-1.74,-1.81,-1.92
122.33,-2.63,-0.70,-2.63,-0.69,0.81,0.99,0.57,-1.83,-1.82,-1.93
123.55,-2.72,-0.77,-2.74,-0.79,0.80,1.00,0.58,-1.92,-1.93,-1.95
124.79,-2.88,-0.92,-2.84,-0.88,0.79,1.01,0.60,-2.09,-2.05,-1.97
126.03,-2.89,-0.91,-2.88,-0.90,0.78,1.02,0.61,-2.12,-2.10,-1.98
127.29,-2.83,-0.84,-2.85,-0.86,0.77,1.03,0.62,-2.06,-2.08,-1.99
128.57,-2.78,-0.78,-2.76,-0.75,0.77,1.04,0.63,-2.01,-1.99,-2.01
129.85,-2.69,-0.67,-2.72,-0.69,0.78,1.06,0.65,-1.91,-1.94,-2.02
131.15,-2.67,-0.64,-2.73,-0.69,0.78,1.07,0.66,-1.89,-1.94,-2.04
132.46,-2.80,-0.75,-2.76,-0.71,0.78,1.08,0.67,-2.02,-1.98,-2.06
133.79,-2.86,-0.79,-2.84,-0.77,0.78,1.09,0.69,-2.08,-2.06,-2.07
135.12,-2.88,-0.78,-2.93,-0.84,0.78,1.10,0.71,-2.09,-2.15,-2.09
136.48,-2.98,-0.88,-2.99,-0.88,0.79,1.12,0.72,-2.20,-2.20,-2.10
137.84,-3.06,-0.94,-3.02,-0.89,0.80,1.13,0.74,-2.26,-2.22,-2.12
139.22,-3.00,-0.86,-2.98,-0.84,0.82,1.14,0.76,-2.19,-2.16,-2.14
140.61,-2.90,-0.74,-2.93,-0.77,0.83,1.16,0.77,-2.08,-2.10,-2.16
142.02,-2.83,-0.65,-2.91,-0.72,0.84,1.17,0.79,-2.00,-2.07,-2.18
143.44,-2.99,-0.79,-2.95,-0.74,0.83,1.18,0.81,-2.16,-2.11,-2.21
144.87,-3.05,-0.82,-3.05,-0.82,0.82,1.20,0.83,-2.24,-2.24,-2.24
146.32,-3.12,-0.86,-3.16,-0.90,0.80,1.21,0.86,-2.32,-2.36,-2.26
147.78,-3.25,-0.96,-3.20,-0.90,0.80,1.23,0.88,-2.46,-2.40,-2.30
149.26,-3.20,-0.87,-3.20,-0.86,0.79,1.24,0.90,-2.41,-2.40,-2.33
150.75,-3.14,-0.77,-3.15,-0.76,0.78,1.26,0.93,-2.36,-2.36,-2.38
152.26,-3.07,-0.64,-3.10,-0.66,0.76,1.27,0.95,-2.32,-2.34,-2.43
153.78,-3.11,-0.62,-3.15,-0.66,0.72,1.29,0.98,-2.38,-2.43,-2.49
155.32,-3.24,-0.68,-3.25,-0.70,0.69,1.31,1.00,-2.55,-2.56,-2.55
156.88,-3.41,-0.81,-3.31,-0.70,0.66,1.32,1.03,-2.75,-2.65,-2.60
158.44,-3.34,-0.68,-3.34,-0.68,0.66,1.34,1.06,-2.69,-2.68,-2.66
160.03,-3.25,-0.54,-3.36,-0.64,0.66,1.35,1.09,-2.59,-2.69,-2.72
161.63,-3.41,-0.66,-3.39,-0.62,0.67,1.37,1.12,-2.74,-2.71,-2.76
163.24,-3.51,-0.71,-3.48,-0.68,0.68,1.39,1.15,-2.83,-2.80,-2.81
164.88,-3.56,-0.73,-3.59,-0.75,0.70,1.41,1.18,-2.87,-2.89,-2.84
166.53,-3.64,-0.78,-3.64,-0.77,0.72,1.42,1.22,-2.92,-2.91,-2.87
168.19,-3.67,-0.79,-3.63,-0.75,0.76,1.44,1.25,-2.91,-2.87,-2.89
169.87,-3.63,-0.74,-3.64,-0.74,0.82,1.46,1.29,-2.82,-2.82,-2.89
171.57,-3.61,-0.70,-3.70,-0.80,0.87,1.48,1.33,-2.73,-2.83,-2.90
173.29,-3.80,-0.91,-3.80,-0.90,0.92,1.49,1.36,-2.88,-2.88,-2.90
175.02,-3.99,-1.11,-3.90,-1.01,0.96,1.51,1.40,-3.03,-2.94,-2.88
176.77,-3.93,-1.06,-3.95,-1.08,1.00,1.53,1.44,-2.94,-2.96,-2.87
178.54,-3.90,-1.05,-3.93,-1.08,1.03,1.55,1.48,-2.87,-2.90,-2.86
180.32,-3.89,-1.06,-3.90,-1.07,1.06,1.57,1.53,-2.83,-2.84,-2.83
182.13,-3.89,-1.08,-3.88,-1.06,1.08,1.59,1.57,-2.81,-2.80,-2.82
183.95,-3.88,-1.09,-3.85,-1.05,1.08,1.61,1.62,-2.80,-2.76,-2.79
185.79,-3.77,-0.99,-3.84,-1.06,1.08,1.63,1.66,-2.69,-2.76,-2.78
187.65,-3.84,-1.07,-3.86,-1.08,1.09,1.65,1.71,-2.76,-2.77,-2.78
189.52,-3.92,-1.15,-3.88,-1.11,1.10,1.67,1.76,-2.82,-2.77,-2.77
191.42,-3.92,-1.15,-3.89,-1.12,1.13,1.69,1.80,-2.80,-2.76,-2.77
193.33,-3.85,-1.09,-3.90,-1.13,1.15,1.71,1.85,-2.70,-2.75,-2.76
195.27,-3.88,-1.12,-3.95,-1.18,1.18,1.73,1.90,-2.71,-2.77,-2.77
197.22,-4.06,-1.29,-4.00,-1.22,1.20,1.75,1.95,-2.86,-2.79,-2.78
199.19,-4.09,-1.32,-4.05,-1.27,1.23,1.77,2.01,-2.87,-2.82,-2.78
201.18,-4.00,-1.22,-4.07,-1.28,1.25,1.79,2.06,-2.75,-2.82,-2.79
203.19,-4.06,-1.27,-4.06,-1.26,1.29,1.81,2.11,-2.78,-2.77,-2.80
205.23,-4.11,-1.31,-4.09,-1.28,1.33,1.83,2.16,-2.79,-2.76,-2.81
207.28,-4.12,-1.31,-4.16,-1.34,1.36,1.85,2.21,-2.76,-2.79,-2.82
209.35,-4.22,-1.40,-4.22,-1.39,1.40,1.87,2.26,-2.82,-2.82,-2.83
211.44,-4.30,-1.46,-4.30,-1.45,1.44,1.89,2.31,-2.87,-2.86,-2.85
213.56,-4.36,-1.51,-4.38,-1.52,1.48,1.91,2.36,-2.89,-2.91,-2.86
215.69,-4.45,-1.58,-4.43,-1.55,1.52,1.94,2.41,-2.93,-2.90,-2.87
217.85,-4.46,-1.58,-4.46,-1.57,1.57,1.96,2.46,-2.89,-2.88,-2.88
220.03,-4.45,-1.56,-4.49,-1.59,1.61,1.98,2.51,-2.84,-2.87,-2.90
222.23,-4.52,-1.62,-4.53,-1.62,1.65,2.00,2.55,-2.87,-2.88,-2.91
224.45,-4.60,-1.69,-4.60,-1.68,1.69,2.02,2.59,-2.92,-2.91,-2.91
226.70,-4.67,-1.75,-4.67,-1.75,1.73,2.04,2.63,-2.95,-2.94,-2.92
228.96,-4.72,-1.80,-4.71,-1.79,1.77,2.07,2.67,-2.95,-2.94,-2.93
231.25,-4.75,-1.83,-4.74,-1.82,1.83,2.09,2.70,-2.93,-2.92,-2.92
233.57,-4.74,-1.81,-4.79,-1.86,1.88,2.11,2.73,-2.87,-2.91,-2.93
235.90,-4.84,-1.92,-4.84,-1.91,1.93,2.13,2.76,-2.92,-2.91,-2.93
238.26,-4.91,-1.99,-4.90,-1.98,1.97,2.15,2.78,-2.95,-2.93,-2.92
240.64,-4.94,-2.04,-4.95,-2.04,2.01,2.18,2.80,-2.94,-2.95,-2.91
243.05,-4.97,-2.07,-4.97,-2.06,2.04,2.20,2.82,-2.94,-2.93,-2.90
245.48,-4.98,-2.09,-4.98,-2.08,2.07,2.22,2.83,-2.92,-2.91,-2.90
247.93,-4.96,-2.07,-4.99,-2.10,2.10,2.24,2.83,-2.86,-2.89,-2.89
250.41,-5.02,-2.14,-5.00,-2.11,2.14,2.27,2.83,-2.89,-2.86,-2.89
252.92,-5.02,-2.14,-5.02,-2.13,2.17,2.29,2.83,-2.86,-2.85,-2.88
255.45,-5.02,-2.14,-5.07,-2.18,2.19,2.31,2.82,-2.83,-2.88,-2.89
258.00,-5.13,-2.24,-5.11,-2.22,2.23,2.33,2.81,-2.91,-2.89,-2.89
260.58,-5.20,-2.31,-5.18,-2.28,2.26,2.36,2.79,-2.94,-2.91,-2.90
263.19,-5.20,-2.31,-5.24,-2.34,2.31,2.38,2.77,-2.89,-2.93,-2.90
265.82,-5.27,-2.37,-5.26,-2.36,2.36,2.40,2.75,-2.92,-2.90,-2.90
268.48,-5.30,-2.40,-5.28,-2.38,2.40,2.43,2.72,-2.90,-2.88,-2.91
271.16,-5.30,-2.39,-5.34,-2.43,2.45,2.45,2.69,-2.86,-2.90,-2.91
273.87,-5.38,-2.47,-5.40,-2.48,2.48,2.47,2.65,-2.90,-2.92,-2.91
276.61,-5.49,-2.58,-5.46,-2.54,2.52,2.50,2.62,-2.97,-2.94,-2.92
279.38,-5.51,-2.59,-5.51,-2.59,2.56,2.52,2.58,-2.96,-2.95,-2.92
282.17,-5.51,-2.60,-5.51,-2.60,2.60,2.55,2.53,-2.92,-2.91,-2.91
284.99,-5.50,-2.60,-5.53,-2.62,2.64,2.57,2.49,-2.87,-2.89,-2.91
287.84,-5.54,-2.63,-5.57,-2.66,2.68,2.60,2.44,-2.86,-2.89,-2.91
290.72,-5.66,-2.76,-5.62,-2.72,2.72,2.63,2.39,-2.94,-2.89,-2.90
293.63,-5.67,-2.78,-5.66,-2.76,2.77,2.66,2.34,-2.91,-2.89,-2.89
296.57,-5.66,-2.78,-5.69,-2.80,2.82,2.69,2.29,-2.85,-2.87,-2.89
299.53,-5.72,-2.84,-5.74,-2.85,2.87,2.72,2.24,-2.86,-2.87,-2.89
302.53,-5.80,-2.92,-5.81,-2.93,2.92,2.75,2.19,-2.88,-2.89,-2.88
305.55,-5.91,-3.03,-5.88,-2.99,2.97,2.78,2.14,-2.95,-2.91,-2.88
308.61,-5.92,-3.04,-5.92,-3.04,3.01,2.82,2.09,-2.92,-2.91,-2.89
311.69,-5.91,-3.03,-5.95,-3.06,3.04,2.85,2.04,-2.87,-2.91,-2.89
314.81,-5.97,-3.08,-5.96,-3.06,3.07,2.89,1.99,-2.90,-2.89,-2.90
317.96,-6.00,-3.10,-5.99,-3.08,3.10,2.94,1.94,-2.91,-2.89,-2.90
321.14,-6.00,-3.09,-6.03,-3.12,3.12,2.98,1.89,-2.89,-2.91,-2.91
324.35,-6.05,-3.14,-6.06,-3.15,3.14,3.03,1.84,-2.92,-2.92,-2.91
327.59,-6.12,-3.20,-6.09,-3.17,3.17,3.09,1.79,-2.96,-2.93,-2.93
330.87,-6.12,-3.19,-6.12,-3.19,3.21,3.14,1.74,-2.92,-2.92,-2.94
334.18,-6.14,-3.20,-6.16,-3.21,3.25,3.20,1.70,-2.89,-2.91,-2.95
337.52,-6.20,-3.24,-6.23,-3.27,3.30,3.26,1.65,-2.90,-2.93,-2.96
340.90,-6.32,-3.36,-6.32,-3.36,3.35,3.32,1.61,-2.97,-2.97,-2.96
344.30,-6.44,-3.47,-6.40,-3.42,3.40,3.37,1.57,-3.05,-3.00,-2.97
347.75,-6.44,-3.45,-6.45,-3.46,3.43,3.43,1.52,-3.01,-3.02,-3.00
351.23,-6.44,-3.44,-6.49,-3.48,3.47,3.47,1.48,-2.98,-3.03,-3.01
354.74,-6.53,-3.52,-6.51,-3.49,3.49,3.50,1.44,-3.05,-3.02,-3.02
358.28,-6.55,-3.53,-6.53,-3.50,3.50,3.51,1.41,-3.06,-3.03,-3.03
361.87,-6.51,-3.47,-6.53,-3.49,3.49,3.51,1.37,-3.03,-3.04,-3.04
365.49,-6.50,-3.44,-6.51,-3.45,3.47,3.49,1.33,-3.04,-3.04,-3.06
369.14,-6.49,-3.42,-6.50,-3.43,3.44,3.45,1.30,-3.06,-3.06,-3.07
372.83,-6.48,-3.40,-6.49,-3.40,3.39,3.40,1.26,-3.09,-3.09,-3.08
376.56,-6.47,-3.38,-6.46,-3.37,3.34,3.33,1.23,-3.13,-3.12,-3.09
380.33,-6.40,-3.30,-6.41,-3.30,3.29,3.26,1.20,-3.11,-3.12,-3.10
384.13,-6.35,-3.24,-6.35,-3.23,3.23,3.18,1.17,-3.12,-3.12,-3.12
387.97,-6.27,-3.15,-6.30,-3.17,3.18,3.09,1.14,-3.09,-3.12,-3.13
391.85,-6.25,-3.12,-6.24,-3.10,3.13,3.01,1.11,-3.12,-3.11,-3.14
395.77,-6.21,-3.07,-6.18,-3.03,3.08,2.93,1.08,-3.14,-3.10,-3.15
399.73,-6.11,-2.96,-6.17,-3.01,3.02,2.85,1.06,-3.09,-3.15,-3.16
403.72,-6.12,-2.96,-6.15,-2.98,2.96,2.77,1.03,-3.16,-3.19,-3.17
407.76,-6.20,-3.01,-6.12,-2.93,2.90,2.69,1.01,-3.31,-3.22,-3.19
411.84,-6.05,-2.85,-6.10,-2.90,2.83,2.61,0.98,-3.22,-3.26,-3.20
415.96,-5.97,-2.76,-6.00,-2.79,2.77,2.54,0.96,-3.20,-3.23,-3.21
420.12,-5.96,-2.75,-5.88,-2.66,2.71,2.46,0.93,-3.26,-3.17,-3.21
424.32,-5.72,-2.50,-5.82,-2.60,2.64,2.39,0.91,-3.08,-3.18,-3.22
428.56,-5.73,-2.51,-5.75,-2.53,2.57,2.31,0.88,-3.16,-3.18,-3.22
432.85,-5.76,-2.55,-5.67,-2.46,2.49,2.24,0.86,-3.27,-3.18,-3.21
437.18,-5.59,-2.38,-5.63,-2.43,2.40,2.16,0.83,-3.18,-3.23,-3.20
441.55,-5.49,-2.31,-5.53,-2.34,2.30,2.08,0.81,-3.20,-3.23,-3.19
445.96,-5.44,-2.28,-5.39,-2.23,2.18,2.00,0.79,-3.26,-3.21,-3.17
450.42,-5.23,-2.10,-5.24,-2.10,2.05,1.92,0.76,-3.18,-3.18,-3.14
454.93,-5.01,-1.92,-5.02,-1.92,1.90,1.84,0.73,-3.12,-3.12,-3.10
459.48,-4.77,-1.71,-4.77,-1.71,1.73,1.75,0.71,-3.04,-3.05,-3.06
464.07,-4.53,-1.51,-4.55,-1.52,1.55,1.66,0.68,-2.99,-3.00,-3.03
468.71,-4.33,-1.35,-4.32,-1.33,1.36,1.57,0.65,-2.97,-2.96,-2.99
