frequency,raw,error,smoothed,error_smoothed,equalization,parametric_eq,fixed_band_eq,equalized_raw,equalized_smoothed,target
20.00,-1.79,-4.82,-1.79,-4.82,4.82,4.61,1.58,3.03,3.03,3.03
20.20,-1.77,-4.79,-1.77,-4.80,4.80,4.60,1.63,3.03,3.03,3.02
20.40,-1.76,-4.78,-1.75,-4.78,4.78,4.58,1.67,3.02,3.02,3.02
20.61,-1.74,-4.75,-1.74,-4.75,4.75,4.56,1.72,3.01,3.02,3.01
20.81,-1.72,-4.73,-1.72,-4.73,4.72,4.54,1.78,3.01,3.01,3.01
21.02,-1.70,-4.71,-1.70,-4.70,4.70,4.52,1.83,3.00,3.00,3.01
21.23,-1.68,-4.67,-1.68,-4.67,4.66,4.50,1.88,2.99,2.99,2.99
21.44,-1.66,-4.63,-1.66,-4.63,4.63,4.47,1.94,2.97,2.97,2.97
21.66,-1.65,-4.60,-1.64,-4.59,4.59,4.45,2.00,2.95,2.95,2.95
21.87,-1.63,-4.55,-1.63,-4.55,4.55,4.42,2.06,2.93,2.93,2.92
22.09,-1.61,-4.51,-1.61,-4.51,4.51,4.40,2.12,2.91,2.90,2.90
22.31,-1.60,-4.48,-1.60,-4.47,4.47,4.37,2.18,2.87,2.88,2.88
22.54,-1.59,-4.44,-1.58,-4.43,4.43,4.34,2.24,2.84,2.85,2.85
22.76,-1.57,-4.39,-1.57,-4.39,4.39,4.31,2.31,2.82,2.82,2.82
22.99,-1.56,-4.35,-1.56,-4.35,4.35,4.28,2.38,2.79,2.79,2.79
23.22,-1.55,-4.31,-1.54,-4.31,4.31,4.25,2.44,2.76,2.77,2.76
23.45,-1.53,-4.27,-1.53,-4.27,4.27,4.22,2.51,2.75,2.74,2.74
23.69,-1.52,-4.24,-1.51,-4.23,4.24,4.18,2.59,2.72,2.73,2.72
23.92,-1.50,-4.19,-1.50,-4.20,4.20,4.15,2.66,2.71,2.70,2.70
24.16,-1.49,-4.17,-1.49,-4.17,4.17,4.12,2.73,2.69,2.68,2.69
24.40,-1.49,-4.15,-1.48,-4.15,4.14,4.08,2.81,2.65,2.66,2.67
24.65,-1.47,-4.11,-1.47,-4.12,4.11,4.05,2.88,2.64,2.64,2.65
24.89,-1.46,-4.08,-1.46,-4.08,4.08,4.02,2.96,2.62,2.62,2.63
25.14,-1.44,-4.04,-1.44,-4.05,4.05,3.98,3.03,2.61,2.61,2.61
25.39,-1.43,-4.01,-1.42,-4.01,4.01,3.95,3.11,2.59,2.59,2.58
25.65,-1.41,-3.98,-1.41,-3.98,3.98,3.91,3.19,2.57,2.57,2.57
25.91,-1.40,-3.94,-1.40,-3.95,3.95,3.87,3.26,2.55,2.55,2.54
26.16,-1.39,-3.92,-1.38,-3.91,3.92,3.84,3.34,2.53,2.53,2.53
26.43,-1.37,-3.88,-1.37,-3.89,3.89,3.80,3.42,2.52,2.52,2.51
26.69,-1.36,-3.86,-1.36,-3.86,3.86,3.77,3.49,2.50,2.50,2.50
26.96,-1.35,-3.83,-1.34,-3.83,3.83,3.73,3.56,2.48,2.48,2.48
27.23,-1.33,-3.80,-1.33,-3.80,3.80,3.70,3.63,2.47,2.46,2.47
27.50,-1.33,-3.78,-1.32,-3.77,3.77,3.66,3.70,2.44,2.45,2.45
27.77,-1.31,-3.74,-1.31,-3.74,3.74,3.62,3.77,2.43,2.43,2.43
28.05,-1.29,-3.71,-1.29,-3.70,3.71,3.59,3.83,2.42,2.41,2.42
28.33,-1.28,-3.66,-1.28,-3.67,3.68,3.55,3.89,2.40,2.40,2.39
28.62,-1.27,-3.64,-1.26,-3.64,3.65,3.52,3.94,2.38,2.39,2.38
28.90,-1.25,-3.62,-1.25,-3.62,3.62,3.48,3.99,2.37,2.37,2.38
29.19,-1.24,-3.59,-1.23,-3.60,3.59,3.44,4.03,2.35,2.36,2.36
29.48,-1.22,-3.57,-1.22,-3.57,3.56,3.41,4.07,2.34,2.35,2.35
29.78,-1.20,-3.53,-1.20,-3.53,3.53,3.37,4.11,2.33,2.33,2.33
30.08,-1.18,-3.50,-1.18,-3.50,3.50,3.34,4.13,2.32,2.32,2.32
30.38,-1.17,-3.47,-1.16,-3.46,3.47,3.30,4.16,2.30,2.30,2.30
30.68,-1.15,-3.43,-1.15,-3.43,3.43,3.26,4.17,2.28,2.28,2.28
30.99,-1.13,-3.39,-1.13,-3.39,3.39,3.23,4.18,2.27,2.26,2.26
31.30,-1.11,-3.36,-1.11,-3.35,3.35,3.19,4.18,2.25,2.25,2.25
31.61,-1.09,-3.32,-1.09,-3.32,3.31,3.16,4.18,2.23,2.23,2.24
31.93,-1.07,-3.27,-1.07,-3.28,3.27,3.12,4.16,2.21,2.21,2.21
32.24,-1.05,-3.23,-1.05,-3.23,3.23,3.08,4.15,2.19,2.19,2.18
32.57,-1.03,-3.19,-1.03,-3.19,3.19,3.05,4.12,2.16,2.17,2.16
32.89,-1.01,-3.16,-1.00,-3.15,3.15,3.01,4.09,2.14,2.15,2.15
33.22,-0.98,-3.10,-0.98,-3.10,3.11,2.97,4.05,2.13,2.13,2.12
33.55,-0.96,-3.06,-0.96,-3.06,3.06,2.94,4.01,2.10,2.10,2.11
33.89,-0.94,-3.01,-0.94,-3.02,3.02,2.90,3.97,2.08,2.08,2.08
34.23,-0.92,-2.98,-0.91,-2.97,2.97,2.86,3.91,2.06,2.06,2.06
34.57,-0.89,-2.92,-0.89,-2.93,2.93,2.83,3.86,2.04,2.04,2.03
34.92,-0.87,-2.88,-0.87,-2.88,2.88,2.79,3.80,2.02,2.02,2.01
35.27,-0.85,-2.85,-0.84,-2.84,2.84,2.75,3.74,1.99,2.00,2.00
35.62,-0.82,-2.79,-0.82,-2.79,2.79,2.71,3.67,1.98,1.97,1.98
35.97,-0.80,-2.74,-0.80,-2.75,2.75,2.67,3.60,1.95,1.95,1.94
36.33,-0.78,-2.71,-0.78,-2.70,2.70,2.64,3.53,1.93,1.93,1.93
36.70,-0.76,-2.67,-0.75,-2.66,2.66,2.60,3.46,1.90,1.91,1.91
37.06,-0.73,-2.60,-0.73,-2.62,2.62,2.56,3.38,1.89,1.89,1.88
37.43,-0.71,-2.57,-0.71,-2.57,2.57,2.52,3.31,1.87,1.86,1.87
37.81,-0.69,-2.53,-0.68,-2.52,2.53,2.48,3.23,1.84,1.84,1.84
38.19,-0.66,-2.48,-0.66,-2.49,2.48,2.44,3.16,1.82,1.82,1.82
38.57,-0.64,-2.44,-0.64,-2.44,2.44,2.40,3.08,1.80,1.80,1.81
38.95,-0.62,-2.40,-0.61,-2.40,2.39,2.36,3.00,1.78,1.78,1.78
39.34,-0.59,-2.35,-0.59,-2.35,2.35,2.32,2.93,1.76,1.76,1.76
39.74,-0.57,-2.30,-0.57,-2.30,2.31,2.28,2.85,1.74,1.74,1.73
40.14,-0.55,-2.26,-0.55,-2.26,2.26,2.24,2.78,1.72,1.72,1.72
40.54,-0.53,-2.22,-0.53,-2.22,2.22,2.21,2.71,1.70,1.70,1.69
40.94,-0.51,-2.19,-0.51,-2.18,2.18,2.17,2.63,1.68,1.68,1.68
41.35,-0.49,-2.14,-0.49,-2.14,2.15,2.13,2.56,1.66,1.66,1.66
41.76,-0.47,-2.11,-0.47,-2.11,2.11,2.09,2.49,1.64,1.64,1.64
42.18,-0.45,-2.07,-0.45,-2.07,2.07,2.05,2.42,1.63,1.62,1.63
42.60,-0.44,-2.04,-0.43,-2.04,2.04,2.01,2.36,1.60,1.61,1.60
43.03,-0.42,-2.02,-0.42,-2.01,2.00,1.97,2.29,1.58,1.59,1.60
43.46,-0.40,-1.97,-0.40,-1.97,1.96,1.93,2.23,1.57,1.57,1.57
43.90,-0.38,-1.92,-0.38,-1.93,1.93,1.89,2.16,1.55,1.54,1.54
44.33,-0.37,-1.88,-0.37,-1.88,1.89,1.85,2.10,1.52,1.52,1.52
44.78,-0.36,-1.86,-0.35,-1.85,1.85,1.82,2.04,1.49,1.50,1.50
45.23,-0.33,-1.80,-0.33,-1.81,1.81,1.78,1.99,1.49,1.48,1.48
45.68,-0.32,-1.78,-0.32,-1.77,1.78,1.74,1.93,1.46,1.46,1.46
46.13,-0.30,-1.73,-0.30,-1.74,1.74,1.70,1.87,1.45,1.45,1.43
46.60,-0.29,-1.72,-0.28,-1.71,1.71,1.67,1.82,1.42,1.43,1.43
47.06,-0.27,-1.68,-0.27,-1.68,1.68,1.63,1.77,1.41,1.41,1.41
47.53,-0.26,-1.65,-0.25,-1.65,1.65,1.59,1.72,1.39,1.39,1.40
48.01,-0.24,-1.62,-0.24,-1.62,1.61,1.56,1.67,1.37,1.37,1.38
48.49,-0.23,-1.58,-0.23,-1.58,1.58,1.52,1.62,1.35,1.35,1.35
48.97,-0.22,-1.54,-0.22,-1.54,1.54,1.49,1.58,1.33,1.33,1.33
49.46,-0.21,-1.51,-0.21,-1.51,1.51,1.45,1.53,1.30,1.30,1.30
49.96,-0.20,-1.47,-0.19,-1.47,1.48,1.42,1.49,1.28,1.28,1.27
50.46,-0.18,-1.43,-0.18,-1.44,1.44,1.38,1.45,1.27,1.26,1.26
50.96,-0.18,-1.41,-0.17,-1.41,1.41,1.35,1.40,1.23,1.24,1.24
51.47,-0.17,-1.38,-0.17,-1.38,1.38,1.32,1.36,1.21,1.21,1.21
51.99,-0.16,-1.35,-0.16,-1.35,1.35,1.28,1.33,1.19,1.19,1.19
52.51,-0.15,-1.33,-0.15,-1.32,1.32,1.25,1.29,1.17,1.17,1.18
53.03,-0.14,-1.30,-0.14,-1.29,1.29,1.22,1.25,1.15,1.16,1.16
53.56,-0.13,-1.26,-0.12,-1.26,1.26,1.19,1.21,1.13,1.14,1.13
54.10,-0.11,-1.22,-0.11,-1.23,1.23,1.16,1.18,1.12,1.11,1.11
54.64,-0.11,-1.20,-0.10,-1.20,1.20,1.12,1.14,1.09,1.09,1.09
55.18,-0.10,-1.17,-0.09,-1.17,1.16,1.09,1.11,1.07,1.07,1.07
55.74,-0.08,-1.13,-0.08,-1.13,1.13,1.06,1.08,1.05,1.05,1.05
56.29,-0.07,-1.10,-0.07,-1.10,1.10,1.03,1.05,1.03,1.03,1.03
56.86,-0.06,-1.07,-0.05,-1.06,1.07,1.00,1.02,1.01,1.01,1.01
57.42,-0.04,-1.02,-0.04,-1.03,1.04,0.98,0.98,1.00,1.00,0.99
58.00,-0.03,-1.00,-0.03,-1.00,1.01,0.95,0.95,0.98,0.98,0.98
58.58,-0.02,-0.98,-0.02,-0.98,0.98,0.92,0.92,0.96,0.96,0.96
59.16,-0.01,-0.96,-0.01,-0.95,0.95,0.89,0.89,0.94,0.94,0.95
59.76,0.00,-0.92,0.00,-0.93,0.92,0.86,0.87,0.92,0.92,0.93
60.35,0.01,-0.89,0.01,-0.90,0.89,0.84,0.84,0.90,0.90,0.90
60.96,0.01,-0.87,0.02,-0.86,0.86,0.81,0.81,0.87,0.88,0.89
61.57,0.03,-0.82,0.03,-0.82,0.83,0.78,0.78,0.86,0.86,0.85
62.18,0.04,-0.78,0.04,-0.79,0.80,0.76,0.75,0.84,0.84,0.83
62.80,0.04,-0.77,0.04,-0.76,0.77,0.73,0.72,0.81,0.81,0.81
63.43,0.04,-0.74,0.04,-0.74,0.74,0.70,0.70,0.79,0.79,0.78
64.07,0.04,-0.72,0.05,-0.72,0.72,0.68,0.67,0.76,0.77,0.77
64.71,0.05,-0.70,0.05,-0.70,0.70,0.65,0.64,0.75,0.75,0.75
65.35,0.05,-0.68,0.05,-0.68,0.68,0.63,0.62,0.73,0.73,0.73
66.01,0.04,-0.67,0.05,-0.66,0.66,0.60,0.59,0.70,0.71,0.71
66.67,0.05,-0.64,0.05,-0.64,0.64,0.58,0.56,0.70,0.69,0.69
67.33,0.05,-0.62,0.05,-0.63,0.63,0.55,0.54,0.68,0.67,0.67
68.01,0.04,-0.61,0.05,-0.61,0.61,0.53,0.51,0.65,0.66,0.65
68.69,0.04,-0.59,0.04,-0.59,0.59,0.51,0.48,0.63,0.63,0.63
69.37,0.04,-0.57,0.04,-0.57,0.57,0.48,0.46,0.61,0.61,0.61
70.07,0.04,-0.55,0.04,-0.55,0.55,0.46,0.43,0.59,0.60,0.59
70.77,0.04,-0.53,0.04,-0.53,0.53,0.44,0.40,0.57,0.57,0.58
71.48,0.04,-0.51,0.04,-0.51,0.51,0.41,0.38,0.55,0.55,0.56
72.19,0.03,-0.50,0.04,-0.49,0.49,0.39,0.35,0.52,0.53,0.53
72.91,0.04,-0.45,0.04,-0.47,0.47,0.37,0.33,0.51,0.50,0.50
73.64,0.03,-0.44,0.04,-0.44,0.44,0.34,0.30,0.48,0.48,0.47
74.38,0.03,-0.42,0.04,-0.41,0.42,0.32,0.27,0.45,0.46,0.46
75.12,0.04,-0.39,0.04,-0.39,0.39,0.30,0.25,0.44,0.43,0.43
75.87,0.04,-0.36,0.04,-0.37,0.37,0.28,0.22,0.41,0.41,0.40
76.63,0.03,-0.35,0.04,-0.34,0.34,0.26,0.20,0.38,0.38,0.39
77.40,0.03,-0.33,0.04,-0.32,0.32,0.23,0.17,0.35,0.35,0.36
78.17,0.04,-0.28,0.04,-0.29,0.29,0.21,0.14,0.33,0.33,0.32
78.95,0.04,-0.26,0.05,-0.26,0.26,0.19,0.12,0.30,0.30,0.30
79.74,0.05,-0.23,0.05,-0.23,0.23,0.17,0.09,0.28,0.28,0.28
80.54,0.05,-0.20,0.06,-0.20,0.19,0.15,0.07,0.25,0.25,0.25
81.35,0.06,-0.16,0.06,-0.16,0.16,0.12,0.04,0.22,0.22,0.22
82.16,0.07,-0.12,0.07,-0.12,0.12,0.10,0.01,0.19,0.19,0.19
82.98,0.08,-0.09,0.08,-0.08,0.08,0.08,-0.01,0.17,0.16,0.17
83.81,0.08,-0.04,0.08,-0.05,0.05,0.06,-0.04,0.13,0.13,0.13
84.65,0.08,-0.01,0.09,-0.01,0.01,0.04,-0.07,0.09,0.10,0.09
85.50,0.09,0.02,0.09,0.03,-0.03,0.01,-0.09,0.07,0.07,0.07
86.35,0.10,0.07,0.10,0.06,-0.06,-0.01,-0.12,0.04,0.04,0.04
87.22,0.10,0.10,0.10,0.10,-0.10,-0.03,-0.15,0.00,0.00,0.00
88.09,0.10,0.14,0.10,0.13,-0.13,-0.05,-0.17,-0.03,-0.03,-0.03
88.97,0.10,0.16,0.10,0.16,-0.16,-0.07,-0.20,-0.06,-0.06,-0.06
89.86,0.10,0.19,0.10,0.19,-0.20,-0.10,-0.23,-0.09,-0.09,-0.08
90.76,0.10,0.23,0.10,0.23,-0.22,-0.12,-0.25,-0.12,-0.12,-0.13
91.66,0.09,0.25,0.09,0.25,-0.25,-0.14,-0.28,-0.16,-0.16,-0.16
92.58,0.08,0.29,0.08,0.28,-0.28,-0.16,-0.31,-0.19,-0.19,-0.20
93.51,0.07,0.29,0.07,0.30,-0.30,-0.18,-0.34,-0.23,-0.23,-0.22
94.44,0.06,0.32,0.06,0.32,-0.32,-0.21,-0.37,-0.26,-0.26,-0.26
95.39,0.04,0.34,0.04,0.34,-0.34,-0.23,-0.39,-0.30,-0.30,-0.30
96.34,0.02,0.37,0.02,0.37,-0.36,-0.25,-0.42,-0.34,-0.34,-0.34
97.30,0.00,0.39,0.00,0.39,-0.38,-0.28,-0.45,-0.38,-0.38,-0.38
98.28,-0.02,0.41,-0.02,0.41,-0.40,-0.30,-0.48,-0.42,-0.42,-0.42
99.26,-0.04,0.42,-0.04,0.42,-0.43,-0.32,-0.51,-0.46,-0.46,-0.46
100.25,-0.06,0.44,-0.06,0.44,-0.45,-0.34,-0.54,-0.50,-0.50,-0.50
101.25,-0.08,0.46,-0.08,0.46,-0.47,-0.37,-0.57,-0.54,-0.54,-0.54
102.27,-0.10,0.48,-0.10,0.49,-0.49,-0.39,-0.60,-0.58,-0.58,-0.58
103.29,-0.12,0.52,-0.12,0.51,-0.51,-0.42,-0.62,-0.63,-0.62,-0.64
104.32,-0.14,0.53,-0.14,0.54,-0.53,-0.44,-0.65,-0.67,-0.67,-0.67
105.37,-0.16,0.56,-0.16,0.55,-0.55,-0.46,-0.68,-0.71,-0.71,-0.72
106.42,-0.19,0.57,-0.19,0.57,-0.57,-0.49,-0.71,-0.76,-0.76,-0.76
107.48,-0.22,0.58,-0.21,0.59,-0.59,-0.51,-0.74,-0.81,-0.80,-0.80
108.56,-0.24,0.62,-0.24,0.61,-0.61,-0.54,-0.76,-0.85,-0.85,-0.85
109.64,-0.26,0.64,-0.26,0.63,-0.63,-0.56,-0.79,-0.89,-0.89,-0.89
110.74,-0.29,0.66,-0.29,0.66,-0.65,-0.59,-0.82,-0.94,-0.94,-0.94
111.85,-0.32,0.66,-0.32,0.67,-0.67,-0.61,-0.84,-0.99,-0.99,-0.98
112.97,-0.35,0.70,-0.35,0.69,-0.70,-0.64,-0.86,-1.04,-1.04,-1.05
114.10,-0.38,0.71,-0.37,0.72,-0.72,-0.66,-0.89,-1.10,-1.09,-1.09
115.24,-0.40,0.74,-0.40,0.74,-0.74,-0.69,-0.91,-1.14,-1.14,-1.14
116.39,-0.42,0.77,-0.42,0.77,-0.77,-0.71,-0.93,-1.19,-1.19,-1.19
117.55,-0.44,0.80,-0.44,0.80,-0.79,-0.74,-0.95,-1.23,-1.23,-1.23
118.73,-0.46,0.82,-0.45,0.82,-0.82,-0.77,-0.97,-1.28,-1.28,-1.28
119.92,-0.47,0.85,-0.47,0.85,-0.85,-0.79,-0.99,-1.32,-1.32,-1.32
121.12,-0.49,0.88,-0.48,0.88,-0.88,-0.82,-1.01,-1.37,-1.36,-1.36
122.33,-0.50,0.91,-0.50,0.91,-0.91,-0.85,-1.02,-1.41,-1.41,-1.41
123.55,-0.51,0.94,-0.51,0.94,-0.94,-0.87,-1.03,-1.45,-1.45,-1.45
124.79,-0.52,0.96,-0.52,0.97,-0.97,-0.90,-1.05,-1.49,-1.49,-1.48
126.03,-0.53,1.00,-0.52,1.00,-1.01,-0.93,-1.06,-1.54,-1.53,-1.53
127.29,-0.53,1.04,-0.53,1.04,-1.04,-0.95,-1.07,-1.57,-1.57,-1.57
128.57,-0.54,1.08,-0.54,1.08,-1.07,-0.98,-1.08,-1.61,-1.61,-1.62
129.85,-0.54,1.12,-0.54,1.11,-1.11,-1.01,-1.08,-1.64,-1.65,-1.66
131.15,-0.56,1.13,-0.55,1.14,-1.14,-1.03,-1.09,-1.69,-1.69,-1.69
132.46,-0.56,1.17,-0.56,1.17,-1.17,-1.06,-1.09,-1.72,-1.72,-1.72
133.79,-0.57,1.19,-0.57,1.19,-1.19,-1.09,-1.10,-1.76,-1.76,-1.76
135.12,-0.58,1.22,-0.58,1.21,-1.22,-1.11,-1.10,-1.79,-1.79,-1.80
136.48,-0.59,1.23,-0.59,1.24,-1.24,-1.14,-1.10,-1.83,-1.83,-1.82
137.84,-0.60,1.25,-0.59,1.26,-1.26,-1.16,-1.10,-1.86,-1.85,-1.85
139.22,-0.60,1.28,-0.60,1.28,-1.28,-1.19,-1.10,-1.87,-1.88,-1.88
140.61,-0.61,1.30,-0.61,1.30,-1.29,-1.21,-1.10,-1.90,-1.90,-1.91
142.02,-0.61,1.31,-0.61,1.31,-1.31,-1.24,-1.10,-1.91,-1.92,-1.92
143.44,-0.63,1.32,-0.62,1.32,-1.32,-1.26,-1.10,-1.95,-1.94,-1.94
144.87,-0.63,1.33,-0.63,1.33,-1.33,-1.29,-1.10,-1.96,-1.96,-1.96
146.32,-0.64,1.34,-0.64,1.34,-1.34,-1.31,-1.10,-1.98,-1.98,-1.98
147.78,-0.65,1.35,-0.65,1.35,-1.35,-1.33,-1.09,-2.00,-2.00,-1.99
149.26,-0.66,1.35,-0.66,1.36,-1.36,-1.36,-1.09,-2.02,-2.02,-2.01
150.75,-0.67,1.38,-0.67,1.37,-1.37,-1.38,-1.09,-2.03,-2.04,-2.05
152.26,-0.68,1.38,-0.68,1.38,-1.37,-1.40,-1.09,-2.05,-2.05,-2.06
153.78,-0.70,1.38,-0.69,1.38,-1.38,-1.42,-1.09,-2.08,-2.07,-2.07
155.32,-0.71,1.39,-0.71,1.38,-1.39,-1.44,-1.09,-2.09,-2.10,-2.10
156.88,-0.73,1.38,-0.73,1.38,-1.39,-1.46,-1.09,-2.12,-2.12,-2.11
158.44,-0.75,1.38,-0.74,1.39,-1.39,-1.47,-1.09,-2.14,-2.13,-2.13
160.03,-0.76,1.40,-0.76,1.39,-1.39,-1.49,-1.09,-2.15,-2.16,-2.15
161.63,-0.79,1.40,-0.78,1.40,-1.39,-1.51,-1.09,-2.18,-2.18,-2.18
163.24,-0.81,1.40,-0.80,1.39,-1.39,-1.52,-1.10,-2.20,-2.19,-2.20
164.88,-0.83,1.39,-0.83,1.39,-1.39,-1.53,-1.10,-2.21,-2.22,-2.21
166.53,-0.85,1.39,-0.85,1.38,-1.39,-1.55,-1.11,-2.23,-2.24,-2.23
168.19,-0.88,1.38,-0.88,1.38,-1.38,-1.56,-1.11,-2.26,-2.26,-2.26
169.87,-0.91,1.37,-0.90,1.38,-1.38,-1.57,-1.12,-2.29,-2.28,-2.28
171.57,-0.93,1.38,-0.93,1.37,-1.38,-1.58,-1.13,-2.30,-2.31,-2.31
173.29,-0.96,1.37,-0.95,1.37,-1.38,-1.58,-1.13,-2.33,-2.33,-2.32
175.02,-0.98,1.37,-0.98,1.37,-1.38,-1.59,-1.14,-2.35,-2.36,-2.35
176.77,-1.01,1.38,-1.01,1.38,-1.38,-1.60,-1.15,-2.39,-2.39,-2.39
178.54,-1.04,1.39,-1.03,1.38,-1.38,-1.60,-1.16,-2.42,-2.42,-2.42
180.32,-1.06,1.39,-1.06,1.39,-1.39,-1.60,-1.18,-2.44,-2.45,-2.45
182.13,-1.09,1.39,-1.09,1.39,-1.39,-1.60,-1.19,-2.48,-2.48,-2.47
183.95,-1.12,1.40,-1.11,1.40,-1.40,-1.60,-1.20,-2.51,-2.51,-2.52
185.79,-1.14,1.40,-1.14,1.40,-1.40,-1.60,-1.22,-2.54,-2.54,-2.54
187.65,-1.17,1.41,-1.17,1.41,-1.40,-1.60,-1.23,-2.57,-2.57,-2.57
189.52,-1.20,1.40,-1.19,1.41,-1.41,-1.60,-1.25,-2.61,-2.60,-2.60
191.42,-1.21,1.42,-1.21,1.41,-1.41,-1.59,-1.27,-2.62,-2.63,-2.63
193.33,-1.24,1.41,-1.24,1.42,-1.42,-1.58,-1.28,-2.66,-2.66,-2.65
195.27,-1.26,1.43,-1.26,1.42,-1.42,-1.58,-1.30,-2.68,-2.68,-2.68
197.22,-1.29,1.42,-1.28,1.43,-1.43,-1.57,-1.32,-2.71,-2.71,-2.70
199.19,-1.30,1.45,-1.30,1.44,-1.43,-1.56,-1.34,-2.73,-2.73,-2.75
201.18,-1.32,1.44,-1.32,1.44,-1.44,-1.55,-1.36,-2.75,-2.76,-2.76
203.19,-1.34,1.44,-1.34,1.44,-1.44,-1.54,-1.38,-2.78,-2.78,-2.78
205.23,-1.36,1.45,-1.36,1.44,-1.45,-1.53,-1.40,-2.80,-2.80,-2.81
207.28,-1.37,1.44,-1.37,1.45,-1.45,-1.51,-1.43,-2.82,-2.82,-2.81
209.35,-1.39,1.45,-1.38,1.46,-1.46,-1.50,-1.45,-2.84,-2.84,-2.83
211.44,-1.39,1.48,-1.39,1.46,-1.46,-1.49,-1.47,-2.85,-2.85,-2.86
213.56,-1.41,1.46,-1.40,1.47,-1.46,-1.47,-1.49,-2.87,-2.87,-2.87
215.69,-1.41,1.46,-1.41,1.47,-1.47,-1.46,-1.51,-2.88,-2.88,-2.87
217.85,-1.42,1.47,-1.42,1.47,-1.47,-1.44,-1.53,-2.89,-2.89,-2.89
220.03,-1.42,1.48,-1.42,1.48,-1.48,-1.43,-1.54,-2.89,-2.89,-2.90
222.23,-1.42,1.49,-1.42,1.48,-1.48,-1.41,-1.56,-2.89,-2.90,-2.90
224.45,-1.42,1.47,-1.42,1.48,-1.48,-1.39,-1.58,-2.90,-2.89,-2.89
226.70,-1.42,1.47,-1.41,1.48,-1.48,-1.38,-1.59,-2.90,-2.89,-2.89
228.96,-1.40,1.49,-1.40,1.48,-1.48,-1.36,-1.61,-2.88,-2.88,-2.88
231.25,-1.40,1.47,-1.39,1.48,-1.48,-1.35,-1.62,-2.88,-2.88,-2.87
233.57,-1.39,1.48,-1.39,1.48,-1.48,-1.33,-1.63,-2.87,-2.86,-2.87
235.90,-1.38,1.48,-1.38,1.48,-1.48,-1.32,-1.63,-2.85,-2.86,-2.85
238.26,-1.37,1.48,-1.37,1.48,-1.47,-1.30,-1.64,-2.84,-2.84,-2.85
240.64,-1.36,1.47,-1.35,1.47,-1.47,-1.29,-1.64,-2.83,-2.82,-2.82
243.05,-1.34,1.47,-1.34,1.46,-1.46,-1.28,-1.64,-2.80,-2.81,-2.81
245.48,-1.34,1.45,-1.33,1.45,-1.45,-1.26,-1.64,-2.79,-2.79,-2.78
247.93,-1.33,1.43,-1.32,1.44,-1.44,-1.25,-1.64,-2.77,-2.76,-2.76
250.41,-1.31,1.45,-1.31,1.43,-1.43,-1.24,-1.63,-2.74,-2.74,-2.75
252.92,-1.31,1.41,-1.31,1.42,-1.41,-1.24,-1.62,-2.72,-2.72,-2.72
255.45,-1.31,1.39,-1.30,1.40,-1.39,-1.23,-1.61,-2.70,-2.70,-2.69
258.00,-1.30,1.38,-1.30,1.37,-1.37,-1.23,-1.60,-2.67,-2.67,-2.68
260.58,-1.30,1.35,-1.30,1.36,-1.35,-1.22,-1.58,-2.65,-2.65,-2.65
263.19,-1.30,1.33,-1.30,1.33,-1.33,-1.22,-1.56,-2.62,-2.62,-2.63
265.82,-1.30,1.31,-1.30,1.31,-1.30,-1.22,-1.54,-2.60,-2.60,-2.61
268.48,-1.30,1.28,-1.29,1.28,-1.28,-1.23,-1.51,-2.58,-2.58,-2.57
271.16,-1.29,1.26,-1.29,1.26,-1.26,-1.23,-1.49,-2.55,-2.56,-2.55
273.87,-1.29,1.24,-1.28,1.24,-1.25,-1.24,-1.46,-2.54,-2.53,-2.53
276.61,-1.28,1.23,-1.27,1.24,-1.24,-1.25,-1.43,-2.51,-2.51,-2.50
279.38,-1.25,1.24,-1.25,1.23,-1.23,-1.27,-1.40,-2.48,-2.48,-2.49
282.17,-1.23,1.23,-1.23,1.23,-1.23,-1.28,-1.37,-2.46,-2.46,-2.46
284.99,-1.21,1.23,-1.20,1.23,-1.23,-1.30,-1.33,-2.44,-2.43,-2.43
287.84,-1.18,1.23,-1.17,1.23,-1.24,-1.32,-1.30,-2.41,-2.41,-2.40
290.72,-1.13,1.25,-1.13,1.24,-1.25,-1.33,-1.26,-2.37,-2.38,-2.38
293.63,-1.10,1.25,-1.09,1.25,-1.25,-1.35,-1.22,-2.35,-2.35,-2.35
296.57,-1.06,1.27,-1.06,1.27,-1.26,-1.36,-1.18,-2.32,-2.32,-2.32
299.53,-1.03,1.27,-1.03,1.27,-1.27,-1.37,-1.14,-2.29,-2.30,-2.29
302.53,-1.00,1.28,-1.00,1.27,-1.27,-1.36,-1.11,-2.27,-2.27,-2.28
305.55,-0.97,1.26,-0.96,1.27,-1.27,-1.35,-1.07,-2.24,-2.23,-2.23
308.61,-0.93,1.27,-0.93,1.27,-1.27,-1.33,-1.03,-2.19,-2.20,-2.20
311.69,-0.90,1.27,-0.90,1.26,-1.26,-1.31,-0.99,-2.16,-2.16,-2.16
314.81,-0.88,1.24,-0.88,1.25,-1.25,-1.27,-0.95,-2.13,-2.13,-2.12
317.96,-0.87,1.23,-0.86,1.23,-1.24,-1.22,-0.91,-2.10,-2.10,-2.10
321.14,-0.85,1.22,-0.85,1.22,-1.22,-1.17,-0.87,-2.07,-2.07,-2.07
324.35,-0.85,1.19,-0.85,1.19,-1.20,-1.11,-0.83,-2.04,-2.04,-2.04
327.59,-0.85,1.17,-0.85,1.17,-1.17,-1.05,-0.79,-2.02,-2.02,-2.01
330.87,-0.86,1.13,-0.85,1.13,-1.14,-0.98,-0.75,-1.99,-1.99,-1.98
334.18,-0.87,1.10,-0.87,1.10,-1.09,-0.92,-0.71,-1.96,-1.96,-1.97
337.52,-0.89,1.06,-0.89,1.05,-1.04,-0.86,-0.67,-1.93,-1.93,-1.95
340.90,-0.93,0.99,-0.93,1.00,-0.99,-0.79,-0.63,-1.91,-1.91,-1.92
344.30,-0.98,0.92,-0.98,0.92,-0.92,-0.73,-0.60,-1.89,-1.89,-1.90
347.75,-1.04,0.84,-1.04,0.84,-0.84,-0.68,-0.56,-1.88,-1.88,-1.88
351.23,-1.11,0.76,-1.10,0.76,-0.75,-0.62,-0.52,-1.86,-1.86,-1.86
354.74,-1.18,0.67,-1.18,0.67,-0.66,-0.57,-0.49,-1.84,-1.84,-1.84
358.28,-1.26,0.57,-1.26,0.57,-0.57,-0.52,-0.45,-1.83,-1.83,-1.83
361.87,-1.34,0.47,-1.34,0.47,-0.47,-0.47,-0.41,-1.81,-1.81,-1.81
365.49,-1.42,0.37,-1.42,0.37,-0.38,-0.42,-0.38,-1.80,-1.80,-1.79
369.14,-1.49,0.29,-1.49,0.29,-0.29,-0.38,-0.34,-1.78,-1.78,-1.78
372.83,-1.57,0.19,-1.56,0.20,-0.20,-0.34,-0.31,-1.77,-1.76,-1.76
376.56,-1.62,0.13,-1.62,0.12,-0.12,-0.30,-0.28,-1.74,-1.74,-1.75
380.33,-1.69,0.03,-1.68,0.04,-0.05,-0.26,-0.24,-1.73,-1.73,-1.72
384.13,-1.73,-0.02,-1.73,-0.03,0.02,-0.22,-0.21,-1.70,-1.71,-1.70
387.97,-1.78,-0.09,-1.78,-0.09,0.08,-0.19,-0.18,-1.69,-1.69,-1.68
391.85,-1.81,-0.13,-1.81,-0.14,0.14,-0.15,-0.14,-1.67,-1.67,-1.67
395.77,-1.84,-0.19,-1.83,-0.19,0.19,-0.12,-0.11,-1.65,-1.65,-1.64
399.73,-1.85,-0.22,-1.85,-0.22,0.23,-0.09,-0.08,-1.62,-1.62,-1.63
403.72,-1.87,-0.26,-1.87,-0.26,0.26,-0.06,-0.05,-1.60,-1.60,-1.61
407.76,-1.88,-0.29,-1.88,-0.29,0.29,-0.02,-0.02,-1.58,-1.58,-1.59
411.84,-1.89,-0.33,-1.88,-0.32,0.32,0.01,0.01,-1.57,-1.56,-1.56
415.96,-1.88,-0.34,-1.88,-0.34,0.34,0.03,0.04,-1.53,-1.54,-1.54
420.12,-1.88,-0.36,-1.88,-0.36,0.36,0.06,0.07,-1.51,-1.51,-1.52
424.32,-1.88,-0.38,-1.88,-0.38,0.38,0.09,0.10,-1.49,-1.50,-1.50
428.56,-1.88,-0.40,-1.87,-0.39,0.40,0.12,0.12,-1.48,-1.48,-1.48
432.85,-1.87,-0.41,-1.86,-0.41,0.41,0.15,0.15,-1.46,-1.46,-1.46
437.18,-1.85,-0.42,-1.85,-0.42,0.42,0.17,0.18,-1.43,-1.44,-1.43
441.55,-1.83,-0.43,-1.83,-0.42,0.42,0.20,0.20,-1.41,-1.41,-1.40
445.96,-1.81,-0.43,-1.80,-0.42,0.42,0.22,0.23,-1.39,-1.38,-1.38
450.42,-1.77,-0.40,-1.77,-0.42,0.41,0.25,0.25,-1.35,-1.36,-1.36
454.93,-1.74,-0.41,-1.74,-0.41,0.41,0.27,0.28,-1.33,-1.33,-1.32
459.48,-1.70,-0.39,-1.69,-0.39,0.39,0.30,0.30,-1.30,-1.30,-1.30
464.07,-1.65,-0.37,-1.65,-0.38,0.38,0.32,0.32,-1.27,-1.28,-1.27
468.71,-1.61,-0.36,-1.60,-0.36,0.36,0.35,0.34,-1.25,-1.25,-1.24
473.40,-1.56,-0.34,-1.56,-0.34,0.34,0.37,0.36,-1.22,-1.22,-1.21
