frequency,raw,error,smoothed,error_smoothed,equalization,parametric_eq,fixed_band_eq,equalized_raw,equalized_smoothed,target
20.00,-26.44,-27.24,-26.51,-27.30,6.00,5.63,2.79,-20.44,-20.51,0.79
20.20,-26.12,-26.91,-26.06,-26.84,6.00,5.63,2.87,-20.12,-20.06,0.78
20.40,-25.63,-26.41,-25.57,-26.35,6.00,5.63,2.95,-19.63,-19.57,0.78
20.61,-25.06,-25.84,-25.05,-25.83,6.00,5.63,3.04,-19.06,-19.05,0.77
20.81,-24.42,-25.19,-24.44,-25.21,6.00,5.63,3.12,-18.42,-18.44,0.77
21.02,-23.85,-24.62,-23.86,-24.63,6.00,5.63,3.21,-17.85,-17.86,0.77
21.23,-23.35,-24.10,-23.36,-24.11,6.00,5.63,3.30,-17.35,-17.36,0.75
21.44,-22.95,-23.68,-22.96,-23.69,6.00,5.63,3.40,-16.95,-16.96,0.73
21.66,-22.63,-23.34,-22.63,-23.34,6.00,5.63,3.49,-16.63,-16.63,0.71
21.87,-22.37,-23.05,-22.37,-23.05,6.00,5.63,3.60,-16.37,-16.37,0.68
22.09,-22.14,-22.80,-22.15,-22.81,6.00,5.63,3.70,-16.14,-16.15,0.66
22.31,-21.94,-22.58,-21.94,-22.57,6.00,5.63,3.80,-15.94,-15.94,0.64
22.54,-21.73,-22.34,-21.71,-22.32,6.00,5.63,3.91,-15.73,-15.71,0.61
22.76,-21.46,-22.04,-21.47,-22.04,6.00,5.63,4.02,-15.46,-15.47,0.58
22.99,-21.18,-21.73,-21.18,-21.72,6.00,5.63,4.13,-15.18,-15.18,0.55
23.22,-20.86,-21.38,-20.86,-21.38,6.00,5.63,4.25,-14.86,-14.86,0.52
23.45,-20.52,-21.02,-20.53,-21.03,6.00,5.63,4.37,-14.52,-14.53,0.50
23.69,-20.21,-20.69,-20.20,-20.68,6.00,5.63,4.49,-14.21,-14.20,0.48
23.92,-19.89,-20.35,-19.89,-20.35,6.00,5.62,4.61,-13.89,-13.89,0.46
24.16,-19.60,-20.05,-19.61,-20.06,6.00,5.62,4.74,-13.60,-13.61,0.45
24.40,-19.36,-19.78,-19.35,-19.78,6.00,5.62,4.86,-13.36,-13.35,0.42
24.65,-19.12,-19.52,-19.12,-19.52,6.00,5.62,4.99,-13.12,-13.12,0.40
24.89,-18.88,-19.26,-18.88,-19.26,6.00,5.62,5.13,-12.88,-12.88,0.38
25.14,-18.64,-19.00,-18.64,-19.00,6.00,5.62,5.26,-12.64,-12.64,0.36
25.39,-18.38,-18.72,-18.38,-18.73,6.00,5.62,5.39,-12.38,-12.38,0.34
25.65,-18.12,-18.45,-18.11,-18.44,6.00,5.62,5.53,-12.12,-12.11,0.33
25.91,-17.83,-18.13,-17.82,-18.13,6.00,5.62,5.66,-11.83,-11.82,0.30
26.16,-17.52,-17.81,-17.53,-17.81,6.00,5.62,5.80,-11.52,-11.53,0.29
26.43,-17.23,-17.50,-17.22,-17.49,6.00,5.62,5.94,-11.23,-11.22,0.27
26.69,-16.92,-17.18,-16.93,-17.18,6.00,5.62,6.07,-10.92,-10.93,0.26
26.96,-16.65,-16.89,-16.65,-16.89,6.00,5.62,6.20,-10.65,-10.65,0.24
27.23,-16.38,-16.60,-16.38,-16.60,6.00,5.61,6.33,-10.38,-10.38,0.23
27.50,-16.13,-16.34,-16.13,-16.34,6.00,5.61,6.46,-10.13,-10.13,0.21
27.77,-15.90,-16.09,-15.90,-16.09,6.00,5.61,6.58,-9.90,-9.90,0.19
28.05,-15.67,-15.85,-15.68,-15.84,6.00,5.61,6.70,-9.67,-9.68,0.17
28.33,-15.46,-15.61,-15.46,-15.61,6.00,5.61,6.82,-9.46,-9.46,0.14
28.62,-15.24,-15.37,-15.24,-15.37,6.00,5.61,6.93,-9.24,-9.24,0.13
28.90,-15.01,-15.14,-15.01,-15.13,6.00,5.61,7.02,-9.01,-9.01,0.13
29.19,-14.77,-14.88,-14.77,-14.89,6.00,5.61,7.12,-8.77,-8.77,0.11
29.48,-14.52,-14.63,-14.52,-14.63,6.00,5.60,7.20,-8.52,-8.52,0.11
29.78,-14.27,-14.35,-14.27,-14.36,6.00,5.60,7.28,-8.27,-8.27,0.09
30.08,-14.02,-14.09,-14.02,-14.10,6.00,5.60,7.34,-8.02,-8.02,0.08
30.38,-13.79,-13.84,-13.78,-13.84,6.00,5.60,7.40,-7.79,-7.78,0.06
30.68,-13.54,-13.58,-13.55,-13.58,6.00,5.60,7.44,-7.54,-7.55,0.03
30.99,-13.32,-13.33,-13.32,-13.34,6.00,5.60,7.48,-7.32,-7.32,0.01
31.30,-13.10,-13.10,-13.09,-13.09,6.00,5.60,7.50,-7.10,-7.09,0.00
31.61,-12.86,-12.85,-12.86,-12.85,6.00,5.59,7.51,-6.86,-6.86,-0.01
31.93,-12.64,-12.60,-12.64,-12.60,6.00,5.59,7.51,-6.64,-6.64,-0.04
32.24,-12.41,-12.35,-12.41,-12.35,6.00,5.59,7.50,-6.41,-6.41,-0.06
32.57,-12.20,-12.11,-12.20,-12.11,6.00,5.59,7.48,-6.20,-6.20,-0.08
32.89,-11.99,-11.90,-11.99,-11.89,6.00,5.59,7.45,-5.99,-5.99,-0.10
33.22,-11.78,-11.65,-11.79,-11.67,6.00,5.58,7.40,-5.78,-5.79,-0.13
33.55,-11.60,-11.46,-11.60,-11.46,6.00,5.58,7.36,-5.60,-5.60,-0.14
33.89,-11.41,-11.24,-11.41,-11.24,6.00,5.58,7.30,-5.41,-5.41,-0.17
34.23,-11.22,-11.04,-11.22,-11.03,6.00,5.58,7.23,-5.22,-5.22,-0.18
34.57,-11.02,-10.81,-11.03,-10.81,6.00,5.57,7.16,-5.02,-5.03,-0.22
34.92,-10.84,-10.60,-10.83,-10.60,6.00,5.57,7.08,-4.84,-4.83,-0.24
35.27,-10.65,-10.40,-10.65,-10.39,6.00,5.57,7.00,-4.65,-4.65,-0.25
35.62,-10.47,-10.20,-10.47,-10.20,6.00,5.56,6.92,-4.47,-4.47,-0.27
35.97,-10.31,-10.01,-10.31,-10.02,6.00,5.56,6.83,-4.31,-4.31,-0.30
36.33,-10.15,-9.84,-10.16,-9.84,6.00,5.56,6.74,-4.15,-4.16,-0.32
36.70,-10.02,-9.69,-10.01,-9.67,6.00,5.55,6.64,-4.02,-4.01,-0.34
37.06,-9.86,-9.49,-9.87,-9.50,6.00,5.55,6.55,-3.86,-3.87,-0.37
37.43,-9.71,-9.33,-9.71,-9.32,6.00,5.55,6.46,-3.71,-3.71,-0.38
37.81,-9.54,-9.14,-9.54,-9.13,6.00,5.54,6.37,-3.54,-3.54,-0.41
38.19,-9.37,-8.93,-9.37,-8.94,6.00,5.54,6.28,-3.37,-3.37,-0.43
38.57,-9.19,-8.75,-9.19,-8.75,6.00,5.54,6.19,-3.19,-3.19,-0.44
38.95,-9.02,-8.56,-9.02,-8.56,6.00,5.53,6.10,-3.02,-3.02,-0.47
39.34,-8.86,-8.37,-8.87,-8.38,6.00,5.53,6.01,-2.86,-2.87,-0.49
39.74,-8.72,-8.20,-8.72,-8.21,6.00,5.52,5.93,-2.72,-2.72,-0.52
40.14,-8.59,-8.05,-8.58,-8.04,6.00,5.52,5.85,-2.59,-2.58,-0.54
40.54,-8.44,-7.89,-8.44,-7.88,6.00,5.51,5.77,-2.44,-2.44,-0.56
40.94,-8.28,-7.71,-8.29,-7.71,6.00,5.51,5.69,-2.28,-2.29,-0.57
41.35,-8.13,-7.54,-8.13,-7.54,6.00,5.50,5.62,-2.13,-2.13,-0.60
41.76,-7.97,-7.36,-7.98,-7.37,6.00,5.50,5.56,-1.97,-1.98,-0.61
42.18,-7.84,-7.22,-7.84,-7.21,6.00,5.49,5.49,-1.84,-1.84,-0.63
42.60,-7.71,-7.06,-7.71,-7.07,6.01,5.49,5.43,-1.70,-1.71,-0.65
43.03,-7.59,-6.94,-7.59,-6.93,6.02,5.48,5.38,-1.57,-1.57,-0.65
43.46,-7.45,-6.77,-7.45,-6.77,6.03,5.47,5.32,-1.43,-1.43,-0.68
43.90,-7.31,-6.59,-7.30,-6.60,6.02,5.47,5.28,-1.29,-1.29,-0.71
44.33,-7.14,-6.40,-7.14,-6.41,6.00,5.46,5.23,-1.15,-1.15,-0.74
44.78,-6.98,-6.23,-6.98,-6.22,5.96,5.45,5.19,-1.03,-1.02,-0.75
45.23,-6.82,-6.04,-6.82,-6.04,5.90,5.45,5.15,-0.92,-0.92,-0.78
45.68,-6.67,-5.88,-6.68,-5.88,5.83,5.44,5.12,-0.84,-0.85,-0.80
46.13,-6.55,-5.73,-6.55,-5.74,5.75,5.43,5.09,-0.80,-0.80,-0.82
46.60,-6.45,-5.63,-6.45,-5.62,5.67,5.42,5.07,-0.78,-0.78,-0.83
47.06,-6.37,-5.53,-6.37,-5.53,5.59,5.42,5.05,-0.78,-0.78,-0.84
47.53,-6.30,-5.44,-6.31,-5.45,5.50,5.41,5.03,-0.80,-0.81,-0.86
48.01,-6.26,-5.39,-6.28,-5.40,5.41,5.40,5.02,-0.85,-0.87,-0.88
48.49,-6.25,-5.35,-6.26,-5.36,5.32,5.39,5.01,-0.93,-0.94,-0.90
48.97,-6.25,-5.32,-6.24,-5.31,5.24,5.38,5.00,-1.01,-0.99,-0.93
49.46,-6.19,-5.24,-6.18,-5.22,5.17,5.37,4.99,-1.02,-1.01,-0.96
49.96,-6.09,-5.11,-6.09,-5.11,5.10,5.36,4.99,-0.99,-0.99,-0.99
50.46,-5.97,-4.97,-6.00,-4.99,5.03,5.35,4.99,-0.94,-0.96,-1.00
50.96,-5.92,-4.90,-5.94,-4.91,4.96,5.35,5.00,-0.96,-0.97,-1.02
51.47,-5.91,-4.86,-5.91,-4.86,4.89,5.34,5.00,-1.02,-1.01,-1.05
51.99,-5.91,-4.85,-5.90,-4.83,4.82,5.33,5.01,-1.09,-1.07,-1.07
52.51,-5.88,-4.81,-5.89,-4.80,4.76,5.32,5.02,-1.12,-1.12,-1.08
53.03,-5.85,-4.76,-5.87,-4.76,4.71,5.31,5.03,-1.14,-1.15,-1.10
53.56,-5.84,-4.72,-5.84,-4.71,4.68,5.30,5.04,-1.16,-1.15,-1.13
54.10,-5.81,-4.67,-5.80,-4.65,4.66,5.29,5.05,-1.15,-1.14,-1.15
54.64,-5.76,-4.60,-5.76,-4.59,4.64,5.28,5.06,-1.12,-1.12,-1.17
55.18,-5.74,-4.56,-5.78,-4.59,4.64,5.27,5.07,-1.11,-1.15,-1.19
55.74,-5.83,-4.62,-5.87,-4.66,4.66,5.26,5.08,-1.18,-1.21,-1.21
56.29,-6.01,-4.78,-5.96,-4.73,4.72,5.25,5.09,-1.30,-1.25,-1.23
56.86,-6.08,-4.83,-6.03,-4.78,4.80,5.24,5.10,-1.28,-1.23,-1.25
57.42,-6.06,-4.79,-6.10,-4.83,4.91,5.23,5.10,-1.15,-1.19,-1.27
58.00,-6.15,-4.87,-6.23,-4.95,5.02,5.22,5.10,-1.13,-1.21,-1.29
58.58,-6.44,-5.14,-6.43,-5.13,5.13,5.22,5.11,-1.32,-1.31,-1.30
59.16,-6.69,-5.38,-6.63,-5.31,5.21,5.21,5.10,-1.48,-1.42,-1.31
59.76,-6.77,-5.44,-6.75,-5.41,5.28,5.21,5.10,-1.50,-1.47,-1.34
60.35,-6.74,-5.38,-6.77,-5.41,5.33,5.20,5.09,-1.42,-1.44,-1.36
60.96,-6.72,-5.35,-6.75,-5.36,5.36,5.20,5.08,-1.36,-1.38,-1.38
61.57,-6.74,-5.33,-6.74,-5.33,5.39,5.20,5.06,-1.36,-1.35,-1.41
62.18,-6.76,-5.33,-6.75,-5.31,5.39,5.20,5.04,-1.37,-1.36,-1.44
62.80,-6.76,-5.31,-6.77,-5.32,5.38,5.21,5.01,-1.39,-1.40,-1.45
63.43,-6.79,-5.31,-6.82,-5.34,5.36,5.21,4.98,-1.43,-1.45,-1.48
64.07,-6.87,-5.38,-6.86,-5.37,5.36,5.21,4.95,-1.52,-1.51,-1.50
64.71,-6.92,-5.41,-6.90,-5.39,5.35,5.21,4.91,-1.57,-1.55,-1.51
65.35,-6.91,-5.38,-6.92,-5.39,5.34,5.21,4.87,-1.57,-1.58,-1.53
66.01,-6.89,-5.34,-6.90,-5.35,5.32,5.20,4.83,-1.57,-1.58,-1.55
66.67,-6.86,-5.29,-6.86,-5.29,5.29,5.19,4.78,-1.57,-1.57,-1.57
67.33,-6.82,-5.23,-6.82,-5.23,5.25,5.16,4.73,-1.57,-1.57,-1.59
68.01,-6.77,-5.16,-6.78,-5.17,5.20,5.13,4.67,-1.58,-1.58,-1.61
68.69,-6.73,-5.10,-6.75,-5.12,5.13,5.08,4.61,-1.60,-1.62,-1.63
69.37,-6.72,-5.07,-6.71,-5.06,5.05,5.02,4.55,-1.67,-1.66,-1.65
70.07,-6.67,-5.00,-6.67,-5.00,4.98,4.95,4.49,-1.70,-1.69,-1.67
70.77,-6.60,-4.92,-6.61,-4.92,4.89,4.87,4.43,-1.71,-1.72,-1.69
71.48,-6.52,-4.82,-6.52,-4.81,4.81,4.78,4.36,-1.72,-1.72,-1.71
72.19,-6.44,-4.71,-6.44,-4.70,4.72,4.69,4.30,-1.73,-1.72,-1.73
72.91,-6.34,-4.58,-6.36,-4.60,4.63,4.59,4.23,-1.72,-1.74,-1.77
73.64,-6.29,-4.50,-6.30,-4.51,4.53,4.49,4.16,-1.76,-1.77,-1.79
74.38,-6.25,-4.45,-6.23,-4.41,4.43,4.39,4.09,-1.83,-1.80,-1.81
75.12,-6.15,-4.32,-6.15,-4.32,4.32,4.29,4.03,-1.83,-1.84,-1.83
75.87,-6.05,-4.20,-6.09,-4.23,4.21,4.18,3.96,-1.85,-1.88,-1.86
76.63,-6.01,-4.14,-6.01,-4.13,4.09,4.08,3.90,-1.92,-1.92,-1.87
77.40,-5.95,-4.05,-5.91,-4.00,3.98,3.98,3.83,-1.98,-1.93,-1.90
78.17,-5.79,-3.85,-5.79,-3.86,3.86,3.88,3.77,-1.93,-1.93,-1.94
78.95,-5.62,-3.67,-5.67,-3.71,3.74,3.78,3.71,-1.88,-1.92,-1.96
79.74,-5.56,-3.59,-5.57,-3.59,3.63,3.68,3.65,-1.93,-1.94,-1.98
80.54,-5.53,-3.53,-5.51,-3.50,3.52,3.58,3.59,-2.01,-1.99,-2.01
81.35,-5.46,-3.43,-5.46,-3.43,3.42,3.49,3.53,-2.04,-2.04,-2.04
82.16,-5.39,-3.33,-5.40,-3.33,3.32,3.39,3.48,-2.07,-2.08,-2.07
82.98,-5.33,-3.24,-5.34,-3.25,3.23,3.30,3.42,-2.10,-2.11,-2.09
83.81,-5.29,-3.16,-5.30,-3.17,3.14,3.21,3.37,-2.15,-2.15,-2.13
84.65,-5.25,-3.09,-5.24,-3.08,3.06,3.11,3.32,-2.19,-2.18,-2.16
85.50,-5.18,-3.00,-5.17,-2.98,2.98,3.03,3.28,-2.20,-2.19,-2.19
86.35,-5.09,-2.87,-5.11,-2.89,2.90,2.94,3.23,-2.19,-2.21,-2.22
87.22,-5.05,-2.80,-5.06,-2.81,2.84,2.87,3.19,-2.22,-2.22,-2.25
88.09,-5.04,-2.76,-5.04,-2.75,2.78,2.79,3.15,-2.26,-2.25,-2.29
88.97,-5.03,-2.72,-5.03,-2.72,2.73,2.72,3.12,-2.30,-2.30,-2.31
89.86,-5.03,-2.70,-5.04,-2.70,2.69,2.66,3.08,-2.34,-2.35,-2.34
90.76,-5.05,-2.67,-5.05,-2.67,2.66,2.60,3.05,-2.39,-2.39,-2.38
91.66,-5.06,-2.66,-5.06,-2.65,2.64,2.55,3.02,-2.43,-2.43,-2.41
92.58,-5.07,-2.62,-5.07,-2.63,2.62,2.51,2.99,-2.46,-2.46,-2.45
93.51,-5.08,-2.61,-5.08,-2.60,2.60,2.47,2.97,-2.48,-2.48,-2.47
94.44,-5.08,-2.58,-5.08,-2.58,2.59,2.44,2.94,-2.50,-2.50,-2.51
95.39,-5.09,-2.55,-5.11,-2.56,2.57,2.41,2.92,-2.52,-2.54,-2.54
96.34,-5.13,-2.54,-5.14,-2.55,2.56,2.39,2.90,-2.57,-2.58,-2.59
97.30,-5.19,-2.57,-5.17,-2.54,2.55,2.37,2.89,-2.65,-2.62,-2.63
98.28,-5.19,-2.53,-5.20,-2.53,2.53,2.36,2.87,-2.66,-2.67,-2.67
99.26,-5.20,-2.50,-5.23,-2.52,2.51,2.36,2.86,-2.69,-2.71,-2.70
100.25,-5.25,-2.51,-5.25,-2.51,2.49,2.35,2.85,-2.76,-2.76,-2.74
101.25,-5.29,-2.51,-5.27,-2.49,2.47,2.35,2.83,-2.82,-2.80,-2.78
102.27,-5.28,-2.47,-5.28,-2.46,2.45,2.35,2.83,-2.84,-2.83,-2.82
103.29,-5.26,-2.39,-5.28,-2.41,2.42,2.35,2.82,-2.84,-2.85,-2.88
104.32,-5.27,-2.37,-5.28,-2.37,2.40,2.36,2.81,-2.88,-2.88,-2.90
105.37,-5.30,-2.35,-5.30,-2.35,2.37,2.36,2.81,-2.93,-2.93,-2.95
106.42,-5.34,-2.35,-5.34,-2.35,2.34,2.36,2.80,-3.00,-2.99,-2.99
107.48,-5.37,-2.34,-5.37,-2.34,2.32,2.36,2.80,-3.05,-3.05,-3.03
108.56,-5.39,-2.31,-5.39,-2.31,2.30,2.37,2.80,-3.09,-3.09,-3.09
109.64,-5.41,-2.29,-5.41,-2.29,2.28,2.37,2.80,-3.13,-3.13,-3.13
110.74,-5.42,-2.25,-5.43,-2.26,2.27,2.37,2.79,-3.16,-3.17,-3.17
111.85,-5.46,-2.25,-5.47,-2.25,2.25,2.37,2.79,-3.22,-3.22,-3.21
112.97,-5.50,-2.22,-5.50,-2.23,2.23,2.37,2.79,-3.28,-3.27,-3.28
114.10,-5.54,-2.23,-5.54,-2.22,2.21,2.37,2.79,-3.34,-3.33,-3.32
115.24,-5.56,-2.20,-5.57,-2.20,2.19,2.37,2.79,-3.37,-3.38,-3.36
116.39,-5.60,-2.19,-5.59,-2.18,2.19,2.37,2.78,-3.42,-3.41,-3.41
117.55,-5.62,-2.17,-5.62,-2.16,2.18,2.37,2.78,-3.44,-3.44,-3.46
118.73,-5.65,-2.15,-5.67,-2.17,2.19,2.37,2.78,-3.47,-3.48,-3.50
119.92,-5.72,-2.18,-5.73,-2.18,2.19,2.36,2.77,-3.53,-3.53,-3.54
121.12,-5.81,-2.23,-5.80,-2.21,2.21,2.36,2.77,-3.61,-3.59,-3.59
122.33,-5.86,-2.23,-5.86,-2.24,2.22,2.36,2.76,-3.64,-3.64,-3.63
123.55,-5.91,-2.25,-5.92,-2.25,2.25,2.36,2.75,-3.67,-3.68,-3.67
124.79,-5.97,-2.27,-5.98,-2.27,2.27,2.36,2.74,-3.70,-3.71,-3.70
126.03,-6.04,-2.30,-6.04,-2.30,2.29,2.36,2.73,-3.75,-3.75,-3.75
127.29,-6.10,-2.32,-6.11,-2.32,2.32,2.36,2.72,-3.79,-3.79,-3.79
128.57,-6.17,-2.34,-6.17,-2.34,2.34,2.36,2.71,-3.84,-3.83,-3.83
129.85,-6.22,-2.35,-6.23,-2.36,2.36,2.36,2.69,-3.87,-3.87,-3.88
131.15,-6.28,-2.38,-6.28,-2.38,2.38,2.37,2.68,-3.90,-3.90,-3.91
132.46,-6.34,-2.40,-6.34,-2.40,2.40,2.38,2.66,-3.94,-3.94,-3.94
133.79,-6.39,-2.42,-6.40,-2.43,2.43,2.38,2.64,-3.97,-3.97,-3.97
135.12,-6.45,-2.44,-6.46,-2.45,2.45,2.39,2.62,-4.01,-4.01,-4.01
136.48,-6.51,-2.48,-6.51,-2.47,2.46,2.41,2.60,-4.05,-4.04,-4.03
137.84,-6.55,-2.49,-6.56,-2.49,2.48,2.42,2.58,-4.07,-4.07,-4.06
139.22,-6.59,-2.50,-6.60,-2.51,2.50,2.44,2.56,-4.09,-4.09,-4.09
140.61,-6.63,-2.51,-6.63,-2.52,2.52,2.46,2.54,-4.11,-4.11,-4.12
142.02,-6.66,-2.54,-6.67,-2.53,2.54,2.48,2.52,-4.12,-4.13,-4.13
143.44,-6.70,-2.55,-6.71,-2.55,2.56,2.51,2.50,-4.14,-4.14,-4.16
144.87,-6.75,-2.58,-6.75,-2.58,2.59,2.53,2.48,-4.17,-4.16,-4.17
146.32,-6.79,-2.61,-6.80,-2.61,2.61,2.57,2.46,-4.18,-4.19,-4.19
147.78,-6.85,-2.65,-6.85,-2.64,2.64,2.60,2.44,-4.22,-4.21,-4.20
149.26,-6.89,-2.67,-6.90,-2.67,2.66,2.63,2.43,-4.23,-4.23,-4.22
150.75,-6.94,-2.69,-6.94,-2.70,2.69,2.67,2.41,-4.25,-4.25,-4.25
152.26,-6.98,-2.72,-6.98,-2.71,2.72,2.70,2.39,-4.27,-4.26,-4.27
153.78,-7.02,-2.74,-7.03,-2.74,2.74,2.74,2.38,-4.28,-4.28,-4.28
155.32,-7.06,-2.76,-7.07,-2.77,2.76,2.77,2.36,-4.30,-4.30,-4.31
156.88,-7.11,-2.80,-7.11,-2.79,2.78,2.80,2.35,-4.33,-4.32,-4.32
158.44,-7.14,-2.80,-7.14,-2.80,2.80,2.82,2.33,-4.34,-4.34,-4.34
160.03,-7.17,-2.81,-7.18,-2.82,2.82,2.84,2.32,-4.35,-4.36,-4.36
161.63,-7.22,-2.83,-7.22,-2.83,2.83,2.85,2.31,-4.39,-4.38,-4.39
163.24,-7.25,-2.84,-7.25,-2.84,2.85,2.85,2.31,-4.41,-4.40,-4.41
164.88,-7.27,-2.85,-7.28,-2.85,2.85,2.84,2.30,-4.42,-4.42,-4.42
166.53,-7.30,-2.86,-7.30,-2.86,2.86,2.83,2.29,-4.45,-4.45,-4.44
168.19,-7.32,-2.85,-7.33,-2.86,2.86,2.81,2.29,-4.47,-4.47,-4.47
169.87,-7.35,-2.87,-7.35,-2.86,2.85,2.79,2.29,-4.50,-4.49,-4.49
171.57,-7.35,-2.84,-7.36,-2.85,2.84,2.76,2.29,-4.51,-4.52,-4.52
173.29,-7.36,-2.83,-7.36,-2.83,2.83,2.72,2.29,-4.54,-4.54,-4.53
175.02,-7.36,-2.80,-7.36,-2.80,2.80,2.69,2.30,-4.56,-4.56,-4.56
176.77,-7.36,-2.77,-7.37,-2.77,2.77,2.65,2.30,-4.60,-4.60,-4.60
178.54,-7.36,-2.73,-7.36,-2.74,2.73,2.61,2.31,-4.63,-4.63,-4.63
180.32,-7.35,-2.70,-7.35,-2.69,2.69,2.58,2.32,-4.67,-4.67,-4.66
182.13,-7.33,-2.65,-7.33,-2.65,2.64,2.54,2.33,-4.69,-4.70,-4.68
183.95,-7.31,-2.59,-7.31,-2.59,2.59,2.51,2.34,-4.72,-4.72,-4.73
185.79,-7.28,-2.53,-7.29,-2.54,2.54,2.48,2.35,-4.74,-4.74,-4.75
187.65,-7.26,-2.48,-7.27,-2.49,2.50,2.46,2.37,-4.76,-4.77,-4.78
189.52,-7.26,-2.46,-7.26,-2.45,2.46,2.44,2.39,-4.81,-4.80,-4.81
191.42,-7.25,-2.41,-7.25,-2.42,2.42,2.42,2.40,-4.83,-4.83,-4.84
193.33,-7.25,-2.39,-7.25,-2.39,2.39,2.40,2.42,-4.87,-4.87,-4.86
195.27,-7.25,-2.36,-7.26,-2.36,2.36,2.39,2.44,-4.89,-4.89,-4.89
197.22,-7.26,-2.35,-7.26,-2.34,2.34,2.37,2.47,-4.92,-4.92,-4.92
199.19,-7.26,-2.31,-7.27,-2.32,2.32,2.37,2.49,-4.94,-4.94,-4.96
201.18,-7.27,-2.31,-7.28,-2.31,2.31,2.36,2.51,-4.96,-4.97,-4.97
203.19,-7.29,-2.31,-7.29,-2.30,2.30,2.35,2.54,-5.00,-4.99,-4.99
205.23,-7.30,-2.29,-7.30,-2.30,2.29,2.35,2.57,-5.02,-5.02,-5.02
207.28,-7.30,-2.29,-7.31,-2.28,2.28,2.35,2.59,-5.03,-5.03,-5.02
209.35,-7.32,-2.28,-7.32,-2.27,2.27,2.35,2.62,-5.05,-5.05,-5.05
211.44,-7.32,-2.25,-7.33,-2.26,2.26,2.36,2.64,-5.06,-5.06,-5.08
213.56,-7.34,-2.26,-7.34,-2.26,2.26,2.36,2.67,-5.09,-5.08,-5.09
215.69,-7.34,-2.26,-7.35,-2.25,2.25,2.37,2.69,-5.09,-5.09,-5.08
217.85,-7.35,-2.25,-7.35,-2.25,2.25,2.38,2.72,-5.10,-5.10,-5.10
220.03,-7.35,-2.24,-7.35,-2.24,2.25,2.38,2.74,-5.11,-5.11,-5.11
222.23,-7.35,-2.24,-7.36,-2.24,2.25,2.39,2.77,-5.11,-5.11,-5.12
224.45,-7.35,-2.25,-7.35,-2.24,2.25,2.40,2.79,-5.11,-5.11,-5.11
226.70,-7.35,-2.25,-7.35,-2.25,2.25,2.41,2.81,-5.11,-5.10,-5.10
228.96,-7.34,-2.24,-7.34,-2.25,2.24,2.43,2.82,-5.10,-5.10,-5.10
231.25,-7.33,-2.25,-7.34,-2.25,2.24,2.44,2.84,-5.09,-5.09,-5.09
233.57,-7.32,-2.24,-7.32,-2.24,2.24,2.45,2.85,-5.09,-5.09,-5.08
235.90,-7.31,-2.24,-7.31,-2.24,2.23,2.46,2.86,-5.08,-5.08,-5.07
238.26,-7.28,-2.22,-7.29,-2.23,2.23,2.48,2.87,-5.06,-5.06,-5.06
240.64,-7.26,-2.22,-7.26,-2.22,2.22,2.49,2.87,-5.04,-5.04,-5.04
243.05,-7.23,-2.21,-7.24,-2.21,2.22,2.50,2.87,-5.02,-5.02,-5.03
245.48,-7.21,-2.21,-7.21,-2.21,2.21,2.52,2.86,-5.00,-5.00,-5.00
247.93,-7.19,-2.22,-7.19,-2.21,2.21,2.53,2.86,-4.98,-4.98,-4.98
250.41,-7.17,-2.20,-7.17,-2.21,2.22,2.54,2.84,-4.96,-4.96,-4.97
252.92,-7.15,-2.22,-7.16,-2.22,2.22,2.56,2.83,-4.93,-4.94,-4.94
255.45,-7.15,-2.24,-7.15,-2.23,2.23,2.57,2.81,-4.92,-4.91,-4.91
258.00,-7.14,-2.25,-7.14,-2.25,2.25,2.58,2.79,-4.90,-4.89,-4.90
260.58,-7.12,-2.25,-7.13,-2.26,2.26,2.59,2.76,-4.87,-4.87,-4.87
263.19,-7.12,-2.28,-7.12,-2.27,2.27,2.60,2.73,-4.85,-4.85,-4.84
265.82,-7.10,-2.27,-7.10,-2.28,2.28,2.61,2.70,-4.82,-4.83,-4.83
268.48,-7.09,-2.30,-7.09,-2.29,2.29,2.62,2.67,-4.81,-4.80,-4.79
271.16,-7.06,-2.30,-7.07,-2.30,2.29,2.63,2.63,-4.77,-4.78,-4.77
273.87,-7.05,-2.30,-7.05,-2.30,2.30,2.64,2.59,-4.76,-4.75,-4.75
276.61,-7.02,-2.30,-7.02,-2.30,2.30,2.64,2.54,-4.72,-4.72,-4.72
279.38,-6.99,-2.29,-7.00,-2.30,2.30,2.65,2.50,-4.69,-4.70,-4.71
282.17,-6.98,-2.30,-6.98,-2.30,2.31,2.65,2.45,-4.67,-4.67,-4.68
284.99,-6.97,-2.32,-6.97,-2.31,2.32,2.65,2.40,-4.66,-4.65,-4.65
287.84,-6.95,-2.33,-6.95,-2.33,2.33,2.65,2.35,-4.63,-4.63,-4.63
290.72,-6.93,-2.33,-6.94,-2.34,2.34,2.65,2.30,-4.60,-4.60,-4.60
293.63,-6.92,-2.35,-6.92,-2.35,2.35,2.65,2.24,-4.57,-4.57,-4.57
296.57,-6.91,-2.37,-6.91,-2.37,2.37,2.65,2.19,-4.55,-4.54,-4.55
299.53,-6.90,-2.39,-6.90,-2.38,2.39,2.64,2.13,-4.52,-4.52,-4.52
302.53,-6.89,-2.39,-6.90,-2.40,2.40,2.64,2.08,-4.49,-4.49,-4.50
305.55,-6.88,-2.43,-6.88,-2.42,2.42,2.63,2.02,-4.46,-4.46,-4.45
308.61,-6.86,-2.44,-6.86,-2.44,2.44,2.62,1.97,-4.43,-4.42,-4.43
311.69,-6.83,-2.45,-6.84,-2.46,2.45,2.61,1.91,-4.38,-4.39,-4.39
314.81,-6.81,-2.47,-6.82,-2.47,2.47,2.60,1.86,-4.35,-4.35,-4.34
317.96,-6.80,-2.48,-6.80,-2.48,2.48,2.58,1.81,-4.32,-4.32,-4.32
321.14,-6.77,-2.48,-6.78,-2.49,2.49,2.57,1.75,-4.29,-4.29,-4.29
324.35,-6.76,-2.50,-6.76,-2.49,2.49,2.55,1.70,-4.27,-4.27,-4.27
327.59,-6.73,-2.50,-6.73,-2.50,2.49,2.53,1.65,-4.24,-4.24,-4.24
330.87,-6.70,-2.49,-6.71,-2.49,2.49,2.51,1.60,-4.22,-4.22,-4.21
334.18,-6.67,-2.48,-6.67,-2.48,2.48,2.48,1.55,-4.19,-4.19,-4.19
337.52,-6.63,-2.46,-6.63,-2.47,2.47,2.46,1.50,-4.16,-4.16,-4.17
340.90,-6.59,-2.45,-6.60,-2.45,2.45,2.43,1.45,-4.14,-4.14,-4.14
344.30,-6.56,-2.44,-6.56,-2.43,2.44,2.41,1.40,-4.13,-4.13,-4.13
347.75,-6.52,-2.42,-6.52,-2.41,2.41,2.38,1.35,-4.11,-4.11,-4.11
351.23,-6.47,-2.38,-6.48,-2.39,2.38,2.34,1.31,-4.09,-4.09,-4.09
354.74,-6.42,-2.35,-6.43,-2.35,2.35,2.31,1.26,-4.07,-4.07,-4.07
358.28,-6.37,-2.32,-6.37,-2.32,2.32,2.28,1.22,-4.06,-4.05,-4.05
361.87,-6.31,-2.28,-6.31,-2.28,2.28,2.24,1.18,-4.03,-4.04,-4.03
365.49,-6.25,-2.24,-6.26,-2.24,2.24,2.20,1.14,-4.02,-4.02,-4.01
369.14,-6.19,-2.19,-6.19,-2.19,2.19,2.16,1.10,-4.00,-4.00,-4.01
372.83,-6.13,-2.15,-6.13,-2.14,2.15,2.12,1.06,-3.99,-3.98,-3.99
376.56,-6.06,-2.09,-6.07,-2.10,2.10,2.08,1.02,-3.96,-3.97,-3.98
380.33,-6.00,-2.05,-6.00,-2.05,2.05,2.04,0.98,-3.95,-3.95,-3.95
384.13,-5.93,-2.00,-5.93,-2.00,2.00,1.99,0.94,-3.94,-3.93,-3.93
387.97,-5.86,-1.95,-5.87,-1.95,1.95,1.95,0.91,-3.92,-3.92,-3.91
391.85,-5.79,-1.89,-5.79,-1.90,1.89,1.90,0.87,-3.90,-3.90,-3.90
395.77,-5.72,-1.85,-5.72,-1.84,1.84,1.85,0.84,-3.88,-3.88,-3.87
399.73,-5.63,-1.78,-5.64,-1.78,1.79,1.80,0.80,-3.85,-3.85,-3.85
403.72,-5.56,-1.73,-5.56,-1.73,1.74,1.75,0.77,-3.83,-3.83,-3.83
407.76,-5.49,-1.68,-5.49,-1.68,1.69,1.70,0.74,-3.81,-3.81,-3.82
411.84,-5.42,-1.64,-5.42,-1.63,1.64,1.65,0.71,-3.78,-3.78,-3.79
415.96,-5.35,-1.59,-5.36,-1.59,1.59,1.59,0.68,-3.76,-3.76,-3.77
420.12,-5.29,-1.55,-5.29,-1.55,1.55,1.54,0.65,-3.74,-3.74,-3.75
424.32,-5.23,-1.51,-5.24,-1.51,1.51,1.48,0.62,-3.72,-3.73,-3.73
