frequency,raw,error,smoothed,error_smoothed,equalization,parametric_eq,fixed_band_eq,equalized_raw,equalized_smoothed,target
20.00,-26.44,-27.25,-26.51,-27.31,6.00,5.43,2.71,-20.44,-20.51,0.80
20.20,-26.12,-26.92,-26.06,-26.85,6.00,5.47,2.78,-20.12,-20.06,0.79
20.40,-25.63,-26.42,-25.57,-26.36,6.00,5.51,2.86,-19.63,-19.57,0.79
20.61,-25.06,-25.85,-25.05,-25.84,6.00,5.55,2.94,-19.06,-19.05,0.78
20.81,-24.42,-25.20,-24.44,-25.22,6.00,5.59,3.02,-18.42,-18.44,0.78
21.02,-23.85,-24.64,-23.86,-24.64,6.00,5.62,3.11,-17.85,-17.86,0.78
21.23,-23.35,-24.11,-23.36,-24.12,6.00,5.66,3.20,-17.35,-17.36,0.76
21.44,-22.95,-23.69,-22.96,-23.70,6.00,5.69,3.29,-16.95,-16.96,0.74
21.66,-22.63,-23.35,-22.63,-23.35,6.00,5.73,3.38,-16.63,-16.63,0.72
21.87,-22.37,-23.06,-22.37,-23.06,6.00,5.76,3.48,-16.37,-16.37,0.69
22.09,-22.14,-22.81,-22.15,-22.82,6.00,5.80,3.58,-16.14,-16.15,0.67
22.31,-21.94,-22.59,-21.94,-22.58,6.00,5.83,3.68,-15.94,-15.94,0.65
22.54,-21.73,-22.35,-21.71,-22.34,6.00,5.86,3.78,-15.73,-15.71,0.62
22.76,-21.46,-22.05,-21.47,-22.06,6.00,5.89,3.89,-15.46,-15.47,0.59
22.99,-21.18,-21.74,-21.18,-21.73,6.00,5.92,3.99,-15.18,-15.18,0.56
23.22,-20.86,-21.39,-20.86,-21.39,6.00,5.95,4.10,-14.86,-14.86,0.53
23.45,-20.52,-21.03,-20.53,-21.04,6.00,5.97,4.22,-14.52,-14.53,0.51
23.69,-20.21,-20.70,-20.20,-20.69,6.00,6.00,4.33,-14.21,-14.20,0.49
23.92,-19.89,-20.36,-19.89,-20.37,6.00,6.03,4.45,-13.89,-13.89,0.47
24.16,-19.60,-20.06,-19.61,-20.07,6.00,6.05,4.57,-13.60,-13.61,0.46
24.40,-19.36,-19.80,-19.35,-19.79,6.00,6.07,4.69,-13.36,-13.35,0.44
24.65,-19.12,-19.53,-19.12,-19.53,6.00,6.09,4.82,-13.12,-13.12,0.42
24.89,-18.88,-19.28,-18.88,-19.27,6.00,6.12,4.94,-12.88,-12.88,0.40
25.14,-18.64,-19.02,-18.64,-19.01,6.00,6.14,5.07,-12.64,-12.64,0.38
25.39,-18.38,-18.73,-18.38,-18.74,6.00,6.15,5.19,-12.38,-12.38,0.35
25.65,-18.12,-18.46,-18.11,-18.45,6.00,6.17,5.32,-12.12,-12.11,0.34
25.91,-17.83,-18.14,-17.82,-18.14,6.00,6.19,5.45,-11.83,-11.82,0.31
26.16,-17.52,-17.82,-17.53,-17.83,6.00,6.20,5.58,-11.52,-11.53,0.30
26.43,-17.23,-17.51,-17.22,-17.51,6.00,6.22,5.70,-11.23,-11.22,0.28
26.69,-16.92,-17.20,-16.93,-17.20,6.00,6.23,5.83,-10.92,-10.93,0.27
26.96,-16.65,-16.90,-16.65,-16.90,6.00,6.24,5.95,-10.65,-10.65,0.25
27.23,-16.38,-16.62,-16.38,-16.62,6.00,6.25,6.07,-10.38,-10.38,0.24
27.50,-16.13,-16.35,-16.13,-16.35,6.00,6.26,6.19,-10.13,-10.13,0.22
27.77,-15.90,-16.10,-15.90,-16.10,6.00,6.27,6.31,-9.90,-9.90,0.20
28.05,-15.67,-15.86,-15.68,-15.86,6.00,6.28,6.42,-9.67,-9.68,0.19
28.33,-15.46,-15.62,-15.46,-15.62,6.00,6.29,6.52,-9.46,-9.46,0.16
28.62,-15.24,-15.38,-15.24,-15.39,6.00,6.29,6.62,-9.24,-9.24,0.15
28.90,-15.01,-15.16,-15.01,-15.15,6.00,6.29,6.72,-9.01,-9.01,0.15
29.19,-14.77,-14.90,-14.77,-14.90,6.00,6.30,6.80,-8.77,-8.77,0.13
29.48,-14.52,-14.65,-14.52,-14.64,6.00,6.30,6.88,-8.52,-8.52,0.12
29.78,-14.27,-14.37,-14.27,-14.38,6.00,6.30,6.95,-8.27,-8.27,0.10
30.08,-14.02,-14.11,-14.02,-14.11,6.00,6.30,7.01,-8.02,-8.02,0.09
30.38,-13.79,-13.86,-13.78,-13.85,6.00,6.29,7.06,-7.79,-7.78,0.07
30.68,-13.54,-13.59,-13.55,-13.60,6.00,6.29,7.10,-7.54,-7.55,0.05
30.99,-13.32,-13.35,-13.32,-13.35,6.00,6.29,7.14,-7.32,-7.32,0.03
31.30,-13.10,-13.11,-13.09,-13.11,6.00,6.28,7.16,-7.10,-7.09,0.02
31.61,-12.86,-12.87,-12.86,-12.86,6.00,6.28,7.17,-6.86,-6.86,0.01
31.93,-12.64,-12.61,-12.64,-12.61,6.00,6.27,7.17,-6.64,-6.64,-0.02
32.24,-12.41,-12.36,-12.41,-12.37,6.00,6.26,7.16,-6.41,-6.41,-0.05
32.57,-12.20,-12.13,-12.20,-12.13,6.00,6.25,7.14,-6.20,-6.20,-0.07
32.89,-11.99,-11.91,-11.99,-11.90,6.00,6.24,7.11,-5.99,-5.99,-0.08
33.22,-11.78,-11.67,-11.79,-11.68,6.00,6.23,7.08,-5.78,-5.79,-0.11
33.55,-11.60,-11.48,-11.60,-11.47,6.00,6.21,7.03,-5.60,-5.60,-0.12
33.89,-11.41,-11.26,-11.41,-11.26,6.00,6.20,6.98,-5.41,-5.41,-0.15
34.23,-11.22,-11.06,-11.22,-11.05,6.00,6.19,6.93,-5.22,-5.22,-0.17
34.57,-11.02,-10.83,-11.03,-10.83,6.00,6.17,6.86,-5.02,-5.03,-0.20
34.92,-10.84,-10.62,-10.83,-10.62,6.00,6.15,6.79,-4.84,-4.83,-0.22
35.27,-10.65,-10.42,-10.65,-10.41,6.00,6.14,6.72,-4.65,-4.65,-0.23
35.62,-10.47,-10.22,-10.47,-10.22,6.00,6.12,6.65,-4.47,-4.47,-0.25
35.97,-10.31,-10.03,-10.31,-10.04,6.00,6.10,6.57,-4.31,-4.31,-0.29
36.33,-10.15,-9.85,-10.16,-9.86,6.00,6.08,6.49,-4.15,-4.16,-0.30
36.70,-10.02,-9.71,-10.01,-9.69,6.00,6.06,6.41,-4.02,-4.01,-0.32
37.06,-9.86,-9.51,-9.87,-9.52,6.00,6.04,6.33,-3.86,-3.87,-0.35
37.43,-9.71,-9.35,-9.71,-9.34,6.00,6.02,6.24,-3.71,-3.71,-0.36
37.81,-9.54,-9.16,-9.54,-9.15,6.00,6.00,6.16,-3.54,-3.54,-0.39
38.19,-9.37,-8.96,-9.37,-8.96,6.00,5.97,6.08,-3.37,-3.37,-0.41
38.57,-9.19,-8.77,-9.19,-8.77,6.00,5.95,6.00,-3.19,-3.19,-0.42
38.95,-9.02,-8.58,-9.02,-8.58,6.00,5.93,5.92,-3.02,-3.02,-0.45
39.34,-8.86,-8.39,-8.87,-8.40,6.00,5.90,5.85,-2.86,-2.87,-0.47
39.74,-8.72,-8.22,-8.72,-8.23,6.00,5.88,5.78,-2.72,-2.72,-0.50
40.14,-8.59,-8.07,-8.58,-8.07,6.00,5.85,5.71,-2.59,-2.58,-0.51
40.54,-8.44,-7.91,-8.44,-7.90,6.00,5.82,5.64,-2.44,-2.44,-0.54
40.94,-8.28,-7.73,-8.29,-7.73,6.00,5.80,5.57,-2.28,-2.29,-0.55
41.35,-8.13,-7.56,-8.13,-7.56,6.00,5.77,5.51,-2.13,-2.13,-0.58
41.76,-7.97,-7.38,-7.98,-7.39,6.00,5.74,5.45,-1.97,-1.98,-0.59
42.18,-7.84,-7.24,-7.84,-7.24,6.00,5.71,5.40,-1.84,-1.84,-0.60
42.60,-7.71,-7.09,-7.71,-7.10,6.01,5.69,5.35,-1.71,-1.71,-0.63
43.03,-7.59,-6.96,-7.59,-6.95,6.02,5.66,5.30,-1.58,-1.57,-0.63
43.46,-7.45,-6.80,-7.45,-6.79,6.02,5.63,5.26,-1.43,-1.43,-0.66
43.90,-7.31,-6.62,-7.30,-6.62,6.02,5.60,5.22,-1.29,-1.29,-0.69
44.33,-7.14,-6.43,-7.14,-6.43,6.00,5.57,5.19,-1.14,-1.14,-0.71
44.78,-6.98,-6.26,-6.98,-6.25,5.96,5.54,5.16,-1.02,-1.02,-0.73
45.23,-6.82,-6.06,-6.82,-6.07,5.91,5.51,5.13,-0.90,-0.91,-0.75
45.68,-6.67,-5.90,-6.68,-5.90,5.85,5.48,5.11,-0.83,-0.83,-0.77
46.13,-6.55,-5.76,-6.55,-5.76,5.77,5.45,5.09,-0.78,-0.78,-0.80
46.60,-6.45,-5.65,-6.45,-5.65,5.70,5.42,5.07,-0.76,-0.76,-0.80
47.06,-6.37,-5.56,-6.37,-5.55,5.62,5.39,5.06,-0.76,-0.75,-0.82
47.53,-6.30,-5.47,-6.31,-5.48,5.53,5.36,5.05,-0.77,-0.78,-0.83
48.01,-6.26,-5.41,-6.28,-5.42,5.44,5.34,5.04,-0.83,-0.84,-0.85
48.49,-6.25,-5.38,-6.26,-5.38,5.35,5.31,5.04,-0.90,-0.91,-0.88
48.97,-6.25,-5.35,-6.24,-5.33,5.27,5.28,5.04,-0.98,-0.97,-0.90
49.46,-6.19,-5.26,-6.18,-5.25,5.20,5.25,5.05,-0.99,-0.98,-0.93
49.96,-6.09,-5.14,-6.09,-5.14,5.13,5.22,5.05,-0.97,-0.96,-0.96
50.46,-5.97,-5.00,-6.00,-5.02,5.06,5.19,5.06,-0.91,-0.94,-0.97
50.96,-5.92,-4.93,-5.94,-4.94,4.99,5.17,5.07,-0.93,-0.94,-0.99
51.47,-5.91,-4.89,-5.91,-4.89,4.92,5.14,5.09,-0.99,-0.99,-1.02
51.99,-5.91,-4.87,-5.90,-4.86,4.85,5.12,5.10,-1.06,-1.05,-1.04
52.51,-5.88,-4.84,-5.89,-4.83,4.79,5.09,5.12,-1.09,-1.09,-1.05
53.03,-5.85,-4.79,-5.87,-4.79,4.74,5.07,5.14,-1.11,-1.12,-1.07
53.56,-5.84,-4.75,-5.84,-4.74,4.71,5.04,5.15,-1.13,-1.12,-1.10
54.10,-5.81,-4.70,-5.80,-4.68,4.69,5.02,5.17,-1.12,-1.11,-1.12
54.64,-5.76,-4.63,-5.76,-4.62,4.67,5.00,5.19,-1.09,-1.09,-1.14
55.18,-5.74,-4.59,-5.78,-4.62,4.67,4.98,5.21,-1.08,-1.12,-1.16
55.74,-5.83,-4.66,-5.87,-4.69,4.69,4.97,5.22,-1.14,-1.18,-1.18
56.29,-6.01,-4.81,-5.96,-4.76,4.75,4.95,5.24,-1.27,-1.21,-1.20
56.86,-6.08,-4.86,-6.03,-4.81,4.84,4.94,5.25,-1.25,-1.20,-1.22
57.42,-6.06,-4.82,-6.10,-4.86,4.94,4.93,5.26,-1.12,-1.16,-1.24
58.00,-6.15,-4.90,-6.23,-4.98,5.05,4.93,5.27,-1.10,-1.18,-1.26
58.58,-6.44,-5.18,-6.43,-5.16,5.16,4.92,5.28,-1.29,-1.27,-1.27
59.16,-6.69,-5.41,-6.63,-5.35,5.24,4.92,5.28,-1.45,-1.39,-1.28
59.76,-6.77,-5.47,-6.75,-5.45,5.31,4.93,5.28,-1.46,-1.44,-1.30
60.35,-6.74,-5.41,-6.77,-5.44,5.36,4.94,5.27,-1.38,-1.41,-1.33
60.96,-6.72,-5.38,-6.75,-5.40,5.40,4.95,5.26,-1.33,-1.35,-1.34
61.57,-6.74,-5.37,-6.74,-5.36,5.42,4.97,5.25,-1.32,-1.32,-1.38
62.18,-6.76,-5.36,-6.75,-5.35,5.42,4.99,5.23,-1.34,-1.33,-1.40
62.80,-6.76,-5.34,-6.77,-5.35,5.41,5.02,5.20,-1.35,-1.36,-1.42
63.43,-6.79,-5.35,-6.82,-5.37,5.40,5.05,5.17,-1.40,-1.42,-1.45
64.07,-6.87,-5.41,-6.86,-5.40,5.39,5.08,5.14,-1.48,-1.47,-1.46
64.71,-6.92,-5.44,-6.90,-5.42,5.38,5.12,5.10,-1.54,-1.52,-1.48
65.35,-6.91,-5.42,-6.92,-5.42,5.38,5.15,5.05,-1.54,-1.54,-1.50
66.01,-6.89,-5.38,-6.90,-5.38,5.36,5.18,5.01,-1.54,-1.54,-1.52
66.67,-6.86,-5.33,-6.86,-5.33,5.33,5.20,4.95,-1.54,-1.53,-1.54
67.33,-6.82,-5.27,-6.82,-5.26,5.29,5.21,4.90,-1.54,-1.53,-1.56
68.01,-6.77,-5.20,-6.78,-5.20,5.23,5.20,4.84,-1.54,-1.55,-1.58
68.69,-6.73,-5.14,-6.75,-5.15,5.16,5.17,4.78,-1.57,-1.58,-1.60
69.37,-6.72,-5.11,-6.71,-5.09,5.09,5.13,4.71,-1.63,-1.62,-1.62
70.07,-6.67,-5.03,-6.67,-5.03,5.01,5.06,4.64,-1.66,-1.66,-1.64
70.77,-6.60,-4.95,-6.61,-4.95,4.93,4.98,4.57,-1.68,-1.68,-1.65
71.48,-6.52,-4.85,-6.52,-4.85,4.84,4.88,4.50,-1.68,-1.68,-1.68
72.19,-6.44,-4.74,-6.44,-4.73,4.75,4.77,4.43,-1.69,-1.68,-1.70
72.91,-6.34,-4.61,-6.36,-4.63,4.66,4.66,4.35,-1.68,-1.71,-1.73
73.64,-6.29,-4.54,-6.30,-4.54,4.56,4.54,4.28,-1.73,-1.74,-1.76
74.38,-6.25,-4.48,-6.23,-4.45,4.46,4.41,4.20,-1.79,-1.77,-1.77
75.12,-6.15,-4.35,-6.15,-4.36,4.35,4.29,4.13,-1.80,-1.80,-1.80
75.87,-6.05,-4.23,-6.09,-4.27,4.24,4.17,4.05,-1.82,-1.85,-1.83
76.63,-6.01,-4.17,-6.01,-4.16,4.12,4.06,3.98,-1.89,-1.89,-1.84
77.40,-5.95,-4.08,-5.91,-4.04,4.01,3.95,3.91,-1.95,-1.90,-1.87
78.17,-5.79,-3.88,-5.79,-3.89,3.89,3.84,3.84,-1.90,-1.90,-1.91
78.95,-5.62,-3.70,-5.67,-3.74,3.77,3.74,3.77,-1.85,-1.89,-1.93
79.74,-5.56,-3.62,-5.57,-3.62,3.66,3.64,3.70,-1.90,-1.91,-1.95
80.54,-5.53,-3.56,-5.51,-3.53,3.55,3.55,3.63,-1.98,-1.96,-1.98
81.35,-5.46,-3.46,-5.46,-3.45,3.45,3.46,3.56,-2.01,-2.01,-2.01
82.16,-5.39,-3.35,-5.40,-3.36,3.35,3.37,3.50,-2.04,-2.05,-2.04
82.98,-5.33,-3.27,-5.34,-3.27,3.26,3.29,3.44,-2.08,-2.08,-2.06
83.81,-5.29,-3.19,-5.30,-3.19,3.17,3.21,3.38,-2.12,-2.12,-2.10
84.65,-5.25,-3.12,-5.24,-3.11,3.09,3.13,3.32,-2.17,-2.15,-2.14
85.50,-5.18,-3.02,-5.17,-3.01,3.01,3.06,3.27,-2.18,-2.17,-2.16
86.35,-5.09,-2.90,-5.11,-2.92,2.93,2.99,3.21,-2.16,-2.18,-2.19
87.22,-5.05,-2.83,-5.06,-2.83,2.86,2.92,3.16,-2.19,-2.20,-2.23
88.09,-5.04,-2.78,-5.04,-2.78,2.80,2.86,3.11,-2.24,-2.23,-2.26
88.97,-5.03,-2.75,-5.03,-2.74,2.75,2.80,3.07,-2.28,-2.28,-2.29
89.86,-5.03,-2.72,-5.04,-2.72,2.71,2.74,3.02,-2.32,-2.33,-2.31
90.76,-5.05,-2.69,-5.05,-2.69,2.68,2.69,2.98,-2.37,-2.37,-2.36
91.66,-5.06,-2.68,-5.06,-2.67,2.66,2.64,2.94,-2.41,-2.41,-2.39
92.58,-5.07,-2.64,-5.07,-2.65,2.64,2.60,2.90,-2.44,-2.44,-2.43
93.51,-5.08,-2.63,-5.08,-2.62,2.62,2.56,2.87,-2.46,-2.46,-2.45
94.44,-5.08,-2.59,-5.08,-2.59,2.60,2.53,2.84,-2.48,-2.48,-2.49
95.39,-5.09,-2.57,-5.11,-2.58,2.59,2.50,2.81,-2.51,-2.52,-2.53
96.34,-5.13,-2.56,-5.14,-2.57,2.57,2.47,2.78,-2.56,-2.56,-2.57
97.30,-5.19,-2.58,-5.17,-2.56,2.56,2.45,2.75,-2.63,-2.61,-2.61
98.28,-5.19,-2.54,-5.20,-2.54,2.54,2.43,2.73,-2.65,-2.65,-2.65
99.26,-5.20,-2.51,-5.23,-2.53,2.53,2.42,2.70,-2.68,-2.70,-2.69
100.25,-5.25,-2.52,-5.25,-2.52,2.50,2.41,2.68,-2.75,-2.75,-2.73
101.25,-5.29,-2.52,-5.27,-2.50,2.48,2.40,2.66,-2.81,-2.79,-2.77
102.27,-5.28,-2.48,-5.28,-2.47,2.46,2.40,2.64,-2.83,-2.82,-2.81
103.29,-5.26,-2.40,-5.28,-2.42,2.43,2.40,2.63,-2.83,-2.84,-2.87
104.32,-5.27,-2.38,-5.28,-2.38,2.40,2.40,2.61,-2.87,-2.88,-2.90
105.37,-5.30,-2.36,-5.30,-2.36,2.38,2.40,2.60,-2.93,-2.93,-2.95
106.42,-5.34,-2.36,-5.34,-2.35,2.35,2.41,2.59,-2.99,-2.99,-2.99
107.48,-5.37,-2.35,-5.37,-2.34,2.32,2.41,2.57,-3.05,-3.05,-3.03
108.56,-5.39,-2.31,-5.39,-2.31,2.30,2.42,2.56,-3.09,-3.09,-3.08
109.64,-5.41,-2.29,-5.41,-2.29,2.29,2.43,2.55,-3.13,-3.12,-3.12
110.74,-5.42,-2.25,-5.43,-2.26,2.27,2.43,2.54,-3.16,-3.16,-3.17
111.85,-5.46,-2.25,-5.47,-2.24,2.25,2.44,2.53,-3.22,-3.22,-3.21
112.97,-5.50,-2.22,-5.50,-2.23,2.23,2.45,2.53,-3.28,-3.27,-3.28
114.10,-5.54,-2.22,-5.54,-2.22,2.21,2.46,2.52,-3.34,-3.33,-3.32
115.24,-5.56,-2.20,-5.57,-2.20,2.19,2.47,2.51,-3.37,-3.38,-3.37
116.39,-5.60,-2.19,-5.59,-2.18,2.18,2.48,2.50,-3.42,-3.41,-3.42
117.55,-5.62,-2.16,-5.62,-2.16,2.18,2.49,2.49,-3.45,-3.44,-3.46
118.73,-5.65,-2.14,-5.67,-2.16,2.18,2.49,2.49,-3.47,-3.49,-3.51
119.92,-5.72,-2.18,-5.73,-2.18,2.19,2.50,2.48,-3.54,-3.54,-3.55
121.12,-5.81,-2.22,-5.80,-2.20,2.20,2.51,2.47,-3.61,-3.60,-3.59
122.33,-5.86,-2.22,-5.86,-2.23,2.22,2.51,2.46,-3.65,-3.65,-3.64
123.55,-5.91,-2.24,-5.92,-2.24,2.24,2.52,2.45,-3.68,-3.69,-3.68
124.79,-5.97,-2.26,-5.98,-2.26,2.26,2.52,2.44,-3.72,-3.72,-3.71
126.03,-6.04,-2.29,-6.04,-2.28,2.28,2.53,2.43,-3.76,-3.76,-3.76
127.29,-6.10,-2.30,-6.11,-2.30,2.30,2.53,2.42,-3.80,-3.80,-3.80
128.57,-6.17,-2.33,-6.17,-2.32,2.32,2.54,2.40,-3.85,-3.84,-3.85
129.85,-6.22,-2.33,-6.23,-2.34,2.34,2.54,2.39,-3.88,-3.88,-3.89
131.15,-6.28,-2.36,-6.28,-2.36,2.37,2.54,2.38,-3.92,-3.92,-3.92
132.46,-6.34,-2.39,-6.34,-2.38,2.39,2.54,2.36,-3.96,-3.95,-3.95
133.79,-6.39,-2.41,-6.40,-2.41,2.41,2.54,2.35,-3.98,-3.99,-3.99
135.12,-6.45,-2.43,-6.46,-2.43,2.43,2.54,2.34,-4.03,-4.03,-4.03
136.48,-6.51,-2.46,-6.51,-2.46,2.45,2.54,2.32,-4.07,-4.06,-4.05
137.84,-6.55,-2.47,-6.56,-2.47,2.47,2.54,2.31,-4.09,-4.09,-4.08
139.22,-6.59,-2.48,-6.60,-2.49,2.48,2.54,2.30,-4.11,-4.11,-4.11
140.61,-6.63,-2.50,-6.63,-2.50,2.50,2.54,2.28,-4.13,-4.13,-4.14
142.02,-6.66,-2.52,-6.67,-2.51,2.52,2.54,2.27,-4.14,-4.14,-4.15
143.44,-6.70,-2.53,-6.71,-2.53,2.54,2.54,2.25,-4.16,-4.16,-4.17
144.87,-6.75,-2.56,-6.75,-2.56,2.57,2.54,2.24,-4.19,-4.18,-4.19
146.32,-6.79,-2.59,-6.80,-2.59,2.59,2.54,2.23,-4.20,-4.21,-4.21
147.78,-6.85,-2.63,-6.85,-2.62,2.62,2.53,2.22,-4.24,-4.23,-4.22
149.26,-6.89,-2.65,-6.90,-2.65,2.64,2.53,2.21,-4.25,-4.25,-4.24
150.75,-6.94,-2.67,-6.94,-2.67,2.67,2.53,2.20,-4.27,-4.27,-4.28
152.26,-6.98,-2.69,-6.98,-2.69,2.70,2.52,2.19,-4.29,-4.28,-4.29
153.78,-7.02,-2.72,-7.03,-2.72,2.72,2.52,2.18,-4.30,-4.30,-4.30
155.32,-7.06,-2.74,-7.07,-2.74,2.74,2.52,2.17,-4.32,-4.32,-4.33
156.88,-7.11,-2.77,-7.11,-2.77,2.76,2.51,2.17,-4.35,-4.34,-4.34
158.44,-7.14,-2.78,-7.14,-2.78,2.78,2.51,2.17,-4.36,-4.36,-4.36
160.03,-7.17,-2.79,-7.18,-2.80,2.80,2.50,2.16,-4.38,-4.39,-4.38
161.63,-7.22,-2.81,-7.22,-2.81,2.81,2.50,2.16,-4.41,-4.40,-4.41
163.24,-7.25,-2.82,-7.25,-2.82,2.82,2.50,2.16,-4.43,-4.43,-4.43
164.88,-7.27,-2.83,-7.28,-2.83,2.83,2.49,2.16,-4.44,-4.45,-4.44
166.53,-7.30,-2.84,-7.30,-2.84,2.84,2.49,2.17,-4.47,-4.47,-4.46
168.19,-7.32,-2.83,-7.33,-2.84,2.84,2.48,2.17,-4.49,-4.49,-4.49
169.87,-7.35,-2.84,-7.35,-2.83,2.83,2.48,2.18,-4.52,-4.51,-4.51
171.57,-7.35,-2.82,-7.36,-2.82,2.82,2.47,2.19,-4.53,-4.54,-4.54
173.29,-7.36,-2.81,-7.36,-2.81,2.80,2.47,2.20,-4.56,-4.56,-4.55
175.02,-7.36,-2.78,-7.36,-2.78,2.78,2.46,2.21,-4.58,-4.59,-4.58
176.77,-7.36,-2.75,-7.37,-2.75,2.75,2.46,2.22,-4.62,-4.62,-4.62
178.54,-7.36,-2.71,-7.36,-2.71,2.71,2.45,2.24,-4.66,-4.65,-4.65
180.32,-7.35,-2.68,-7.35,-2.67,2.66,2.44,2.26,-4.69,-4.69,-4.68
182.13,-7.33,-2.63,-7.33,-2.63,2.62,2.44,2.28,-4.72,-4.72,-4.70
183.95,-7.31,-2.57,-7.31,-2.57,2.57,2.43,2.30,-4.74,-4.74,-4.75
185.79,-7.28,-2.51,-7.29,-2.52,2.52,2.43,2.32,-4.76,-4.76,-4.77
187.65,-7.26,-2.46,-7.27,-2.47,2.48,2.42,2.34,-4.78,-4.79,-4.80
189.52,-7.26,-2.44,-7.26,-2.43,2.44,2.42,2.37,-4.83,-4.82,-4.83
191.42,-7.25,-2.39,-7.25,-2.40,2.40,2.41,2.39,-4.85,-4.85,-4.86
193.33,-7.25,-2.37,-7.25,-2.37,2.37,2.41,2.42,-4.89,-4.89,-4.88
195.27,-7.25,-2.34,-7.26,-2.34,2.34,2.40,2.45,-4.91,-4.91,-4.91
197.22,-7.26,-2.33,-7.26,-2.32,2.32,2.39,2.48,-4.94,-4.94,-4.93
199.19,-7.26,-2.29,-7.27,-2.30,2.31,2.39,2.51,-4.96,-4.96,-4.98
201.18,-7.27,-2.29,-7.28,-2.29,2.29,2.38,2.54,-4.98,-4.99,-4.99
203.19,-7.29,-2.29,-7.29,-2.28,2.28,2.38,2.57,-5.02,-5.01,-5.01
205.23,-7.30,-2.27,-7.30,-2.28,2.27,2.37,2.60,-5.04,-5.03,-5.04
207.28,-7.30,-2.27,-7.31,-2.26,2.26,2.36,2.64,-5.04,-5.05,-5.04
209.35,-7.32,-2.26,-7.32,-2.25,2.25,2.36,2.67,-5.07,-5.07,-5.06
211.44,-7.32,-2.23,-7.33,-2.25,2.25,2.35,2.70,-5.08,-5.08,-5.09
213.56,-7.34,-2.24,-7.34,-2.24,2.24,2.35,2.74,-5.10,-5.10,-5.10
215.69,-7.34,-2.24,-7.35,-2.24,2.24,2.34,2.77,-5.11,-5.11,-5.10
217.85,-7.35,-2.24,-7.35,-2.24,2.23,2.34,2.80,-5.12,-5.12,-5.12
220.03,-7.35,-2.23,-7.35,-2.23,2.23,2.33,2.83,-5.12,-5.12,-5.13
222.23,-7.35,-2.22,-7.36,-2.23,2.23,2.33,2.86,-5.12,-5.12,-5.13
224.45,-7.35,-2.23,-7.35,-2.23,2.23,2.32,2.88,-5.12,-5.12,-5.12
226.70,-7.35,-2.24,-7.35,-2.23,2.23,2.32,2.91,-5.12,-5.12,-5.12
228.96,-7.34,-2.23,-7.34,-2.23,2.23,2.31,2.93,-5.11,-5.11,-5.11
231.25,-7.33,-2.23,-7.34,-2.23,2.23,2.31,2.95,-5.11,-5.11,-5.10
233.57,-7.32,-2.23,-7.32,-2.23,2.22,2.30,2.96,-5.10,-5.10,-5.10
235.90,-7.31,-2.23,-7.31,-2.22,2.22,2.30,2.98,-5.10,-5.09,-5.08
238.26,-7.28,-2.21,-7.29,-2.21,2.21,2.29,2.98,-5.07,-5.07,-5.08
240.64,-7.26,-2.21,-7.26,-2.20,2.21,2.29,2.99,-5.06,-5.05,-5.05
243.05,-7.23,-2.19,-7.24,-2.20,2.20,2.29,2.99,-5.03,-5.03,-5.04
245.48,-7.21,-2.20,-7.21,-2.20,2.20,2.28,2.99,-5.01,-5.01,-5.01
247.93,-7.19,-2.20,-7.19,-2.19,2.20,2.28,2.98,-4.99,-4.99,-4.99
250.41,-7.17,-2.19,-7.17,-2.20,2.21,2.28,2.97,-4.97,-4.97,-4.98
252.92,-7.15,-2.20,-7.16,-2.21,2.21,2.27,2.96,-4.94,-4.95,-4.95
255.45,-7.15,-2.23,-7.15,-2.22,2.22,2.27,2.94,-4.93,-4.93,-4.92
258.00,-7.14,-2.24,-7.14,-2.24,2.24,2.27,2.92,-4.91,-4.91,-4.91
260.58,-7.12,-2.24,-7.13,-2.25,2.25,2.27,2.89,-4.88,-4.88,-4.88
263.19,-7.12,-2.27,-7.12,-2.26,2.26,2.27,2.86,-4.86,-4.86,-4.86
265.82,-7.10,-2.26,-7.10,-2.27,2.27,2.27,2.82,-4.84,-4.84,-4.84
268.48,-7.09,-2.29,-7.09,-2.28,2.28,2.27,2.78,-4.82,-4.81,-4.80
271.16,-7.06,-2.29,-7.07,-2.29,2.28,2.27,2.74,-4.78,-4.79,-4.78
273.87,-7.05,-2.29,-7.05,-2.29,2.29,2.28,2.70,-4.77,-4.76,-4.76
276.61,-7.02,-2.29,-7.02,-2.29,2.29,2.28,2.65,-4.73,-4.73,-4.73
279.38,-6.99,-2.28,-7.00,-2.29,2.30,2.28,2.60,-4.70,-4.71,-4.72
282.17,-6.98,-2.29,-6.98,-2.29,2.30,2.29,2.55,-4.68,-4.68,-4.69
284.99,-6.97,-2.31,-6.97,-2.30,2.31,2.30,2.49,-4.67,-4.66,-4.66
287.84,-6.95,-2.32,-6.95,-2.32,2.32,2.30,2.44,-4.64,-4.64,-4.63
290.72,-6.93,-2.33,-6.94,-2.33,2.33,2.31,2.38,-4.60,-4.61,-4.61
293.63,-6.92,-2.34,-6.92,-2.34,2.34,2.33,2.32,-4.58,-4.58,-4.58
296.57,-6.91,-2.36,-6.91,-2.36,2.36,2.34,2.26,-4.55,-4.55,-4.55
299.53,-6.90,-2.38,-6.90,-2.38,2.38,2.35,2.20,-4.53,-4.53,-4.53
302.53,-6.89,-2.39,-6.90,-2.40,2.40,2.37,2.14,-4.50,-4.50,-4.51
305.55,-6.88,-2.42,-6.88,-2.41,2.41,2.38,2.08,-4.47,-4.47,-4.46
308.61,-6.86,-2.43,-6.86,-2.43,2.43,2.40,2.02,-4.43,-4.43,-4.43
311.69,-6.83,-2.44,-6.84,-2.45,2.45,2.42,1.96,-4.39,-4.39,-4.39
314.81,-6.81,-2.47,-6.82,-2.46,2.46,2.44,1.90,-4.35,-4.35,-4.35
317.96,-6.80,-2.48,-6.80,-2.47,2.47,2.45,1.84,-4.33,-4.32,-4.33
321.14,-6.77,-2.47,-6.78,-2.48,2.48,2.47,1.78,-4.29,-4.30,-4.30
324.35,-6.76,-2.49,-6.76,-2.49,2.49,2.49,1.72,-4.28,-4.27,-4.27
327.59,-6.73,-2.49,-6.73,-2.49,2.49,2.50,1.66,-4.25,-4.25,-4.24
330.87,-6.70,-2.49,-6.71,-2.49,2.48,2.51,1.61,-4.22,-4.22,-4.21
334.18,-6.67,-2.48,-6.67,-2.47,2.48,2.51,1.55,-4.20,-4.19,-4.20
337.52,-6.63,-2.46,-6.63,-2.46,2.47,2.51,1.49,-4.17,-4.17,-4.18
340.90,-6.59,-2.44,-6.60,-2.45,2.45,2.50,1.44,-4.14,-4.15,-4.15
344.30,-6.56,-2.43,-6.56,-2.43,2.43,2.48,1.38,-4.13,-4.13,-4.13
347.75,-6.52,-2.41,-6.52,-2.41,2.41,2.46,1.33,-4.12,-4.11,-4.11
351.23,-6.47,-2.38,-6.48,-2.38,2.38,2.43,1.28,-4.09,-4.10,-4.09
354.74,-6.42,-2.35,-6.43,-2.35,2.35,2.39,1.23,-4.08,-4.08,-4.07
358.28,-6.37,-2.32,-6.37,-2.32,2.31,2.35,1.18,-4.06,-4.06,-4.06
361.87,-6.31,-2.28,-6.31,-2.28,2.28,2.30,1.13,-4.04,-4.04,-4.04
365.49,-6.25,-2.24,-6.26,-2.24,2.23,2.25,1.08,-4.02,-4.02,-4.02
369.14,-6.19,-2.19,-6.19,-2.19,2.19,2.20,1.03,-4.00,-4.00,-4.01
372.83,-6.13,-2.14,-6.13,-2.14,2.14,2.14,0.99,-3.99,-3.99,-3.99
376.56,-6.06,-2.08,-6.07,-2.09,2.10,2.08,0.94,-3.97,-3.97,-3.98
380.33,-6.00,-2.05,-6.00,-2.05,2.05,2.02,0.90,-3.96,-3.95,-3.95
384.13,-5.93,-2.00,-5.93,-2.00,2.00,1.97,0.85,-3.94,-3.94,-3.93
387.97,-5.86,-1.95,-5.87,-1.95,1.94,1.91,0.81,-3.92,-3.92,-3.91
391.85,-5.79,-1.89,-5.79,-1.90,1.89,1.85,0.77,-3.90,-3.90,-3.90
395.77,-5.72,-1.85,-5.72,-1.84,1.84,1.79,0.73,-3.89,-3.88,-3.87
399.73,-5.63,-1.78,-5.64,-1.78,1.79,1.74,0.69,-3.85,-3.85,-3.86
403.72,-5.56,-1.73,-5.56,-1.73,1.73,1.68,0.65,-3.83,-3.83,-3.84
407.76,-5.49,-1.68,-5.49,-1.68,1.68,1.63,0.61,-3.81,-3.81,-3.82
411.84,-5.42,-1.64,-5.42,-1.63,1.64,1.57,0.57,-3.79,-3.79,-3.79
415.96,-5.35,-1.59,-5.36,-1.59,1.59,1.52,0.54,-3.76,-3.76,-3.77
420.12,-5.29,-1.55,-5.29,-1.55,1.55,1.47,0.50,-3.74,-3.74,-3.75
424.32,-5.23,-1.50,-5.24,-1.51,1.51,1.42,0.47,-3.72,-3.73,-3.73
