frequency,raw,error,smoothed,error_smoothed,equalization,parametric_eq,fixed_band_eq,equalized_raw,equalized_smoothed,target
20.00,14.04,6.62,14.04,6.62,-6.62,-6.32,-2.88,7.42,7.42,7.42
20.20,14.04,6.64,14.04,6.63,-6.63,-6.32,-2.96,7.40,7.40,7.40
20.40,14.04,6.65,14.04,6.64,-6.64,-6.32,-3.05,7.39,7.39,7.39
20.61,14.04,6.65,14.04,6.65,-6.65,-6.33,-3.13,7.38,7.38,7.39
20.81,14.04,6.67,14.04,6.67,-6.66,-6.33,-3.22,7.37,7.37,7.37
21.02,14.04,6.68,14.04,6.68,-6.67,-6.33,-3.31,7.36,7.36,7.36
21.23,14.04,6.69,14.04,6.68,-6.68,-6.34,-3.40,7.36,7.36,7.35
21.44,14.04,6.68,14.04,6.69,-6.69,-6.34,-3.50,7.35,7.35,7.36
21.66,14.04,6.69,14.04,6.69,-6.69,-6.34,-3.60,7.34,7.34,7.35
21.87,14.04,6.70,14.04,6.70,-6.70,-6.35,-3.70,7.34,7.34,7.34
22.09,14.04,6.71,14.04,6.71,-6.71,-6.35,-3.80,7.33,7.33,7.33
22.31,14.04,6.71,14.04,6.71,-6.71,-6.36,-3.91,7.32,7.32,7.32
22.54,14.04,6.72,14.04,6.72,-6.72,-6.36,-4.02,7.32,7.32,7.31
22.76,14.04,6.71,14.04,6.72,-6.72,-6.36,-4.13,7.31,7.31,7.32
22.99,14.04,6.72,14.04,6.72,-6.73,-6.37,-4.25,7.31,7.31,7.31
23.22,14.04,6.73,14.04,6.73,-6.73,-6.37,-4.36,7.31,7.31,7.30
23.45,14.04,6.73,14.04,6.74,-6.73,-6.38,-4.48,7.30,7.30,7.30
23.69,14.04,6.74,14.04,6.74,-6.73,-6.38,-4.61,7.30,7.30,7.30
23.92,14.04,6.74,14.04,6.74,-6.74,-6.38,-4.73,7.30,7.30,7.30
24.16,14.04,6.74,14.04,6.74,-6.75,-6.39,-4.86,7.29,7.29,7.30
24.40,14.05,6.74,14.05,6.74,-6.75,-6.39,-4.99,7.30,7.30,7.31
24.65,14.06,6.75,14.05,6.75,-6.75,-6.40,-5.12,7.30,7.30,7.31
24.89,14.06,6.76,14.05,6.76,-6.75,-6.40,-5.26,7.30,7.30,7.30
25.14,14.05,6.76,14.05,6.76,-6.75,-6.41,-5.39,7.30,7.30,7.29
25.39,14.04,6.75,14.04,6.76,-6.74,-6.41,-5.53,7.29,7.29,7.28
25.65,14.02,6.74,14.02,6.74,-6.73,-6.42,-5.67,7.28,7.28,7.27
25.91,14.00,6.72,13.99,6.72,-6.72,-6.42,-5.81,7.28,7.28,7.27
26.16,13.97,6.68,13.97,6.70,-6.70,-6.43,-5.95,7.27,7.27,7.28
26.43,13.95,6.68,13.94,6.67,-6.67,-6.43,-6.09,7.27,7.27,7.27
26.69,13.92,6.65,13.91,6.64,-6.65,-6.44,-6.22,7.27,7.27,7.27
26.96,13.88,6.61,13.88,6.62,-6.62,-6.44,-6.36,7.26,7.26,7.27
27.23,13.85,6.59,13.85,6.59,-6.59,-6.45,-6.49,7.26,7.26,7.26
27.50,13.82,6.56,13.82,6.56,-6.56,-6.45,-6.63,7.26,7.26,7.25
27.77,13.79,6.52,13.79,6.53,-6.53,-6.46,-6.75,7.26,7.26,7.26
28.05,13.77,6.50,13.76,6.50,-6.50,-6.46,-6.88,7.27,7.26,7.26
28.33,13.74,6.48,13.74,6.48,-6.48,-6.47,-7.00,7.26,7.26,7.26
28.62,13.72,6.46,13.72,6.45,-6.46,-6.47,-7.11,7.26,7.26,7.26
28.90,13.70,6.43,13.70,6.43,-6.44,-6.48,-7.22,7.26,7.26,7.27
29.19,13.69,6.42,13.69,6.42,-6.43,-6.49,-7.32,7.26,7.26,7.27
29.48,13.69,6.42,13.68,6.42,-6.42,-6.49,-7.41,7.26,7.26,7.26
29.78,13.69,6.42,13.69,6.42,-6.42,-6.50,-7.49,7.27,7.27,7.26
30.08,13.70,6.42,13.70,6.43,-6.42,-6.50,-7.56,7.27,7.27,7.28
30.38,13.71,6.44,13.70,6.43,-6.43,-6.51,-7.63,7.28,7.28,7.27
30.68,13.71,6.44,13.71,6.44,-6.43,-6.52,-7.68,7.27,7.27,7.27
30.99,13.71,6.44,13.71,6.44,-6.44,-6.52,-7.73,7.26,7.26,7.26
31.30,13.71,6.44,13.71,6.45,-6.45,-6.53,-7.76,7.25,7.25,7.26
31.61,13.72,6.46,13.71,6.45,-6.46,-6.54,-7.79,7.25,7.25,7.26
31.93,13.72,6.47,13.72,6.47,-6.47,-6.54,-7.80,7.24,7.25,7.25
32.24,13.73,6.48,13.73,6.49,-6.48,-6.55,-7.80,7.25,7.25,7.25
32.57,13.74,6.50,13.73,6.49,-6.49,-6.56,-7.79,7.25,7.24,7.23
32.89,13.73,6.50,13.73,6.50,-6.49,-6.56,-7.78,7.24,7.24,7.23
33.22,13.72,6.49,13.72,6.49,-6.49,-6.57,-7.75,7.23,7.23,7.23
33.55,13.71,6.48,13.70,6.48,-6.48,-6.58,-7.72,7.23,7.22,7.22
33.89,13.68,6.46,13.68,6.47,-6.47,-6.58,-7.68,7.21,7.21,7.21
34.23,13.66,6.46,13.65,6.45,-6.45,-6.59,-7.63,7.21,7.20,7.20
34.57,13.63,6.43,13.63,6.43,-6.43,-6.60,-7.58,7.19,7.19,7.20
34.92,13.60,6.41,13.60,6.41,-6.41,-6.60,-7.52,7.18,7.18,7.18
35.27,13.57,6.38,13.57,6.39,-6.39,-6.61,-7.46,7.17,7.17,7.19
35.62,13.54,6.38,13.54,6.37,-6.37,-6.62,-7.39,7.16,7.16,7.16
35.97,13.51,6.35,13.51,6.35,-6.35,-6.63,-7.32,7.15,7.15,7.15
36.33,13.48,6.34,13.48,6.34,-6.34,-6.63,-7.25,7.14,7.14,7.14
36.70,13.45,6.32,13.45,6.32,-6.32,-6.64,-7.18,7.12,7.13,7.12
37.06,13.43,6.32,13.42,6.31,-6.31,-6.65,-7.11,7.11,7.11,7.11
37.43,13.40,6.30,13.40,6.30,-6.31,-6.66,-7.04,7.09,7.09,7.10
37.81,13.39,6.30,13.38,6.30,-6.31,-6.66,-6.98,7.08,7.07,7.08
38.19,13.37,6.31,13.37,6.31,-6.32,-6.67,-6.91,7.05,7.05,7.06
38.57,13.37,6.32,13.36,6.32,-6.33,-6.68,-6.84,7.04,7.03,7.04
38.95,13.36,6.34,13.36,6.34,-6.35,-6.69,-6.78,7.01,7.01,7.02
39.34,13.37,6.37,13.37,6.37,-6.37,-6.69,-6.72,6.99,6.99,6.99
39.74,13.38,6.40,13.38,6.40,-6.40,-6.70,-6.66,6.98,6.98,6.98
40.14,13.39,6.43,13.39,6.43,-6.43,-6.71,-6.61,6.96,6.96,6.95
40.54,13.40,6.46,13.39,6.46,-6.46,-6.72,-6.56,6.94,6.94,6.94
40.94,13.40,6.49,13.40,6.49,-6.48,-6.73,-6.51,6.91,6.92,6.91
41.35,13.41,6.51,13.40,6.51,-6.51,-6.73,-6.47,6.90,6.90,6.89
41.76,13.41,6.53,13.40,6.53,-6.52,-6.74,-6.43,6.88,6.88,6.88
42.18,13.40,6.53,13.40,6.54,-6.54,-6.75,-6.40,6.86,6.86,6.86
42.60,13.39,6.55,13.39,6.55,-6.55,-6.76,-6.37,6.84,6.84,6.83
43.03,13.37,6.56,13.37,6.55,-6.55,-6.77,-6.34,6.81,6.81,6.81
43.46,13.35,6.56,13.34,6.56,-6.55,-6.77,-6.32,6.79,6.79,6.79
43.90,13.32,6.55,13.32,6.56,-6.55,-6.78,-6.30,6.77,6.77,6.76
44.33,13.30,6.55,13.29,6.55,-6.55,-6.79,-6.29,6.75,6.75,6.75
44.78,13.27,6.55,13.26,6.54,-6.54,-6.80,-6.29,6.72,6.72,6.72
45.23,13.23,6.53,13.23,6.54,-6.54,-6.81,-6.29,6.69,6.69,6.70
45.68,13.20,6.54,13.20,6.54,-6.54,-6.81,-6.29,6.66,6.66,6.66
46.13,13.17,6.54,13.16,6.54,-6.54,-6.82,-6.30,6.62,6.62,6.62
46.60,13.14,6.54,13.14,6.54,-6.55,-6.83,-6.31,6.59,6.59,6.59
47.06,13.12,6.55,13.12,6.55,-6.56,-6.84,-6.32,6.55,6.55,6.56
47.53,13.10,6.56,13.10,6.57,-6.58,-6.85,-6.35,6.52,6.52,6.53
48.01,13.09,6.60,13.09,6.60,-6.60,-6.85,-6.37,6.49,6.49,6.48
48.49,13.08,6.62,13.07,6.62,-6.62,-6.86,-6.40,6.45,6.45,6.45
48.97,13.07,6.66,13.06,6.65,-6.65,-6.87,-6.43,6.42,6.41,6.41
49.46,13.05,6.67,13.05,6.68,-6.67,-6.88,-6.47,6.37,6.37,6.38
49.96,13.04,6.71,13.04,6.70,-6.70,-6.88,-6.51,6.34,6.34,6.33
50.46,13.03,6.72,13.03,6.72,-6.72,-6.89,-6.55,6.31,6.31,6.31
50.96,13.02,6.74,13.01,6.74,-6.73,-6.90,-6.60,6.28,6.28,6.27
51.47,13.00,6.76,12.99,6.75,-6.75,-6.91,-6.65,6.25,6.25,6.24
51.99,12.97,6.76,12.97,6.76,-6.76,-6.91,-6.70,6.21,6.21,6.21
52.51,12.94,6.76,12.94,6.76,-6.77,-6.92,-6.75,6.17,6.17,6.17
53.03,12.91,6.76,12.91,6.77,-6.78,-6.93,-6.80,6.13,6.13,6.15
53.56,12.89,6.78,12.89,6.78,-6.79,-6.93,-6.86,6.10,6.10,6.10
54.10,12.87,6.80,12.86,6.80,-6.80,-6.94,-6.91,6.07,6.07,6.07
54.64,12.84,6.80,12.84,6.81,-6.80,-6.95,-6.97,6.04,6.04,6.03
55.18,12.81,6.82,12.80,6.82,-6.80,-6.95,-7.02,6.00,6.00,5.98
55.74,12.77,6.82,12.77,6.81,-6.81,-6.96,-7.08,5.96,5.96,5.95
56.29,12.74,6.81,12.73,6.81,-6.81,-6.97,-7.13,5.93,5.93,5.93
56.86,12.70,6.79,12.70,6.80,-6.80,-6.97,-7.18,5.89,5.90,5.90
57.42,12.67,6.80,12.67,6.80,-6.80,-6.98,-7.22,5.87,5.87,5.86
58.00,12.64,6.80,12.63,6.79,-6.80,-6.98,-7.26,5.84,5.84,5.83
58.58,12.61,6.78,12.61,6.79,-6.80,-6.99,-7.30,5.81,5.81,5.82
59.16,12.59,6.79,12.59,6.79,-6.81,-6.99,-7.34,5.78,5.78,5.79
59.76,12.57,6.80,12.57,6.80,-6.82,-7.00,-7.37,5.75,5.75,5.76
60.35,12.55,6.83,12.55,6.83,-6.83,-7.00,-7.39,5.72,5.72,5.72
60.96,12.53,6.85,12.52,6.85,-6.84,-7.01,-7.41,5.68,5.68,5.68
61.57,12.50,6.87,12.50,6.87,-6.86,-7.01,-7.42,5.64,5.64,5.63
62.18,12.47,6.88,12.46,6.88,-6.87,-7.01,-7.43,5.60,5.59,5.58
62.80,12.43,6.89,12.43,6.89,-6.88,-7.02,-7.43,5.54,5.55,5.54
63.43,12.40,6.90,12.39,6.90,-6.90,-7.02,-7.42,5.50,5.50,5.49
64.07,12.36,6.90,12.36,6.90,-6.91,-7.02,-7.41,5.45,5.45,5.46
64.71,12.33,6.91,12.33,6.91,-6.92,-7.03,-7.39,5.41,5.41,5.42
65.35,12.30,6.91,12.30,6.92,-6.93,-7.03,-7.37,5.37,5.37,5.38
66.01,12.28,6.93,12.28,6.93,-6.94,-7.03,-7.34,5.33,5.34,5.34
66.67,12.27,6.95,12.26,6.95,-6.96,-7.03,-7.31,5.31,5.31,5.31
67.33,12.25,6.98,12.24,6.98,-6.97,-7.03,-7.27,5.28,5.28,5.27
68.01,12.22,6.99,12.22,6.99,-6.97,-7.03,-7.23,5.24,5.25,5.22
68.69,12.19,7.00,12.18,7.00,-6.98,-7.03,-7.18,5.21,5.20,5.18
69.37,12.15,6.99,12.14,6.99,-6.99,-7.03,-7.13,5.16,5.16,5.15
70.07,12.10,6.98,12.10,6.98,-6.99,-7.03,-7.08,5.10,5.11,5.12
70.77,12.06,6.98,12.06,6.98,-7.00,-7.03,-7.03,5.06,5.06,5.08
71.48,12.02,6.99,12.02,6.99,-7.00,-7.03,-6.98,5.01,5.01,5.03
72.19,11.99,7.00,11.99,7.00,-7.01,-7.03,-6.92,4.97,4.98,4.99
72.91,11.97,7.02,11.96,7.02,-7.02,-7.03,-6.87,4.95,4.94,4.95
73.64,11.94,7.03,11.94,7.04,-7.03,-7.03,-6.81,4.91,4.91,4.90
74.38,11.92,7.05,11.92,7.05,-7.03,-7.03,-6.76,4.88,4.88,4.86
75.12,11.89,7.05,11.88,7.05,-7.03,-7.02,-6.71,4.85,4.85,4.84
75.87,11.85,7.04,11.84,7.04,-7.03,-7.02,-6.66,4.81,4.81,4.81
76.63,11.80,7.02,11.80,7.02,-7.03,-7.02,-6.61,4.77,4.77,4.78
77.40,11.76,7.01,11.76,7.01,-7.02,-7.01,-6.56,4.74,4.74,4.75
78.17,11.72,7.00,11.72,7.00,-7.00,-7.01,-6.52,4.72,4.71,4.71
78.95,11.68,6.98,11.68,6.99,-6.99,-7.01,-6.48,4.69,4.69,4.69
79.74,11.64,6.97,11.64,6.97,-6.97,-7.00,-6.44,4.66,4.66,4.67
80.54,11.60,6.96,11.59,6.95,-6.96,-7.00,-6.41,4.64,4.63,4.63
81.35,11.55,6.94,11.55,6.94,-6.95,-6.99,-6.38,4.60,4.60,4.61
82.16,11.51,6.92,11.51,6.93,-6.94,-6.99,-6.36,4.57,4.57,4.58
82.98,11.48,6.93,11.47,6.92,-6.92,-6.98,-6.34,4.55,4.55,4.55
83.81,11.44,6.93,11.43,6.92,-6.91,-6.98,-6.32,4.52,4.52,4.51
84.65,11.39,6.90,11.39,6.91,-6.90,-6.97,-6.31,4.49,4.49,4.48
85.50,11.34,6.89,11.34,6.89,-6.89,-6.96,-6.30,4.45,4.45,4.44
86.35,11.29,6.87,11.29,6.87,-6.87,-6.96,-6.30,4.41,4.41,4.41
87.22,11.24,6.85,11.24,6.85,-6.86,-6.95,-6.30,4.38,4.38,4.38
88.09,11.19,6.84,11.19,6.84,-6.84,-6.95,-6.30,4.34,4.34,4.34
88.97,11.14,6.82,11.14,6.83,-6.83,-6.94,-6.31,4.31,4.31,4.31
89.86,11.10,6.82,11.09,6.82,-6.81,-6.93,-6.33,4.28,4.28,4.27
90.76,11.05,6.81,11.05,6.81,-6.80,-6.93,-6.35,4.25,4.25,4.24
91.66,11.01,6.80,11.00,6.80,-6.79,-6.92,-6.37,4.21,4.21,4.21
92.58,10.96,6.78,10.96,6.78,-6.79,-6.91,-6.40,4.17,4.17,4.17
93.51,10.92,6.78,10.92,6.78,-6.79,-6.91,-6.44,4.13,4.13,4.14
94.44,10.88,6.77,10.88,6.78,-6.79,-6.90,-6.48,4.09,4.09,4.11
95.39,10.86,6.79,10.86,6.79,-6.80,-6.89,-6.52,4.06,4.06,4.06
96.34,10.84,6.82,10.83,6.81,-6.81,-6.89,-6.56,4.03,4.02,4.02
97.30,10.82,6.83,10.82,6.84,-6.83,-6.88,-6.61,3.99,3.99,3.98
98.28,10.80,6.85,10.80,6.86,-6.85,-6.88,-6.67,3.95,3.95,3.95
99.26,10.79,6.89,10.78,6.88,-6.87,-6.87,-6.72,3.91,3.91,3.90
100.25,10.77,6.90,10.77,6.90,-6.90,-6.86,-6.79,3.87,3.87,3.87
101.25,10.77,6.92,10.77,6.93,-6.93,-6.86,-6.85,3.84,3.84,3.85
102.27,10.77,6.95,10.77,6.95,-6.96,-6.86,-6.92,3.80,3.81,3.81
103.29,10.78,7.00,10.78,6.99,-7.00,-6.85,-6.98,3.78,3.78,3.78
104.32,10.79,7.03,10.78,7.03,-7.03,-6.85,-7.05,3.75,3.75,3.76
105.37,10.80,7.07,10.79,7.07,-7.07,-6.84,-7.13,3.73,3.72,3.72
106.42,10.80,7.10,10.80,7.10,-7.11,-6.84,-7.20,3.69,3.70,3.70
107.48,10.81,7.14,10.81,7.14,-7.14,-6.84,-7.27,3.67,3.67,3.66
108.56,10.82,7.18,10.81,7.18,-7.17,-6.84,-7.34,3.64,3.64,3.64
109.64,10.81,7.21,10.81,7.21,-7.20,-6.83,-7.42,3.61,3.61,3.60
110.74,10.81,7.23,10.80,7.23,-7.23,-6.83,-7.49,3.58,3.58,3.57
111.85,10.79,7.25,10.79,7.25,-7.25,-6.83,-7.56,3.54,3.54,3.54
112.97,10.77,7.26,10.77,7.26,-7.27,-6.83,-7.62,3.50,3.50,3.50
114.10,10.75,7.27,10.75,7.28,-7.29,-6.83,-7.68,3.46,3.46,3.48
115.24,10.73,7.29,10.73,7.29,-7.30,-6.83,-7.74,3.43,3.43,3.43
116.39,10.71,7.32,10.70,7.31,-7.31,-6.84,-7.80,3.40,3.40,3.39
117.55,10.68,7.31,10.68,7.32,-7.31,-6.84,-7.84,3.36,3.37,3.36
118.73,10.65,7.33,10.65,7.32,-7.31,-6.84,-7.89,3.33,3.34,3.32
119.92,10.62,7.32,10.61,7.32,-7.31,-6.85,-7.92,3.31,3.30,3.30
121.12,10.58,7.30,10.57,7.31,-7.30,-6.85,-7.95,3.27,3.27,3.27
122.33,10.53,7.29,10.53,7.29,-7.29,-6.86,-7.97,3.23,3.24,3.24
123.55,10.49,7.28,10.49,7.27,-7.28,-6.86,-7.99,3.20,3.21,3.21
124.79,10.45,7.26,10.45,7.26,-7.27,-6.87,-7.99,3.18,3.18,3.19
126.03,10.41,7.26,10.41,7.26,-7.26,-6.88,-7.99,3.15,3.15,3.15
127.29,10.37,7.25,10.37,7.25,-7.25,-6.89,-7.98,3.12,3.12,3.12
128.57,10.33,7.24,10.32,7.24,-7.24,-6.89,-7.96,3.09,3.08,3.09
129.85,10.28,7.23,10.28,7.23,-7.23,-6.90,-7.93,3.04,3.05,3.05
131.15,10.24,7.22,10.24,7.22,-7.22,-6.91,-7.90,3.01,3.01,3.01
132.46,10.20,7.22,10.19,7.22,-7.22,-6.93,-7.86,2.98,2.98,2.97
133.79,10.15,7.21,10.15,7.21,-7.21,-6.94,-7.82,2.94,2.94,2.94
135.12,10.11,7.20,10.11,7.20,-7.20,-6.95,-7.77,2.91,2.91,2.90
136.48,10.07,7.18,10.06,7.19,-7.19,-6.96,-7.71,2.88,2.88,2.89
137.84,10.03,7.17,10.02,7.17,-7.18,-6.98,-7.65,2.85,2.85,2.85
139.22,9.98,7.17,9.98,7.16,-7.17,-6.99,-7.59,2.81,2.81,2.81
140.61,9.94,7.15,9.94,7.16,-7.15,-7.00,-7.52,2.78,2.79,2.79
142.02,9.90,7.14,9.90,7.14,-7.14,-7.02,-7.45,2.76,2.76,2.75
143.44,9.86,7.13,9.86,7.13,-7.12,-7.03,-7.38,2.73,2.73,2.72
144.87,9.82,7.10,9.82,7.11,-7.11,-7.05,-7.31,2.71,2.71,2.71
146.32,9.78,7.09,9.78,7.09,-7.09,-7.07,-7.24,2.68,2.68,2.68
147.78,9.74,7.07,9.74,7.07,-7.08,-7.08,-7.17,2.66,2.66,2.66
149.26,9.70,7.06,9.70,7.06,-7.07,-7.10,-7.10,2.63,2.63,2.64
150.75,9.67,7.06,9.67,7.05,-7.06,-7.12,-7.03,2.61,2.61,2.61
152.26,9.64,7.04,9.64,7.05,-7.05,-7.13,-6.96,2.59,2.59,2.59
153.78,9.61,7.04,9.61,7.04,-7.04,-7.15,-6.90,2.57,2.57,2.57
155.32,9.58,7.03,9.58,7.03,-7.03,-7.17,-6.83,2.55,2.55,2.54
156.88,9.55,7.03,9.54,7.02,-7.02,-7.18,-6.77,2.53,2.53,2.52
158.44,9.50,7.01,9.50,7.01,-7.01,-7.20,-6.72,2.49,2.49,2.49
160.03,9.46,6.99,9.45,6.99,-7.00,-7.22,-6.66,2.46,2.46,2.46
161.63,9.41,6.97,9.41,6.98,-6.99,-7.23,-6.61,2.42,2.42,2.43
163.24,9.37,6.98,9.37,6.97,-6.98,-7.25,-6.57,2.39,2.39,2.39
164.88,9.34,6.98,9.33,6.97,-6.98,-7.26,-6.53,2.36,2.36,2.36
166.53,9.31,6.97,9.30,6.97,-6.97,-7.28,-6.49,2.33,2.33,2.33
168.19,9.28,6.97,9.28,6.98,-6.98,-7.29,-6.46,2.30,2.30,2.30
169.87,9.26,6.99,9.26,6.99,-6.98,-7.31,-6.43,2.28,2.27,2.27
171.57,9.24,7.00,9.23,7.00,-6.99,-7.32,-6.41,2.25,2.24,2.24
173.29,9.21,7.00,9.21,7.01,-7.00,-7.33,-6.39,2.20,2.21,2.20
175.02,9.19,7.02,9.19,7.02,-7.02,-7.34,-6.37,2.17,2.17,2.17
176.77,9.17,7.03,9.17,7.03,-7.04,-7.35,-6.36,2.12,2.12,2.13
178.54,9.16,7.05,9.16,7.06,-7.07,-7.36,-6.36,2.09,2.09,2.11
180.32,9.16,7.09,9.16,7.09,-7.10,-7.37,-6.36,2.05,2.06,2.07
182.13,9.17,7.13,9.17,7.13,-7.14,-7.38,-6.37,2.03,2.03,2.03
183.95,9.18,7.18,9.18,7.18,-7.17,-7.38,-6.37,2.00,2.00,2.00
185.79,9.19,7.23,9.18,7.22,-7.21,-7.39,-6.39,1.98,1.97,1.96
187.65,9.18,7.25,9.18,7.25,-7.24,-7.39,-6.41,1.94,1.94,1.93
189.52,9.18,7.29,9.17,7.28,-7.27,-7.39,-6.43,1.91,1.90,1.89
191.42,9.16,7.30,9.16,7.30,-7.29,-7.39,-6.46,1.86,1.86,1.86
193.33,9.14,7.31,9.13,7.31,-7.31,-7.39,-6.49,1.83,1.83,1.83
195.27,9.11,7.31,9.11,7.31,-7.32,-7.39,-6.52,1.79,1.79,1.79
197.22,9.08,7.32,9.08,7.32,-7.33,-7.38,-6.56,1.75,1.76,1.75
199.19,9.06,7.32,9.06,7.33,-7.33,-7.37,-6.60,1.73,1.73,1.74
201.18,9.04,7.34,9.03,7.33,-7.32,-7.37,-6.65,1.71,1.71,1.70
203.19,9.01,7.32,9.01,7.32,-7.32,-7.36,-6.70,1.69,1.69,1.68
205.23,8.98,7.32,8.98,7.32,-7.31,-7.34,-6.75,1.66,1.66,1.66
207.28,8.95,7.30,8.94,7.31,-7.31,-7.33,-6.80,1.64,1.64,1.64
209.35,8.91,7.30,8.91,7.29,-7.30,-7.31,-6.85,1.61,1.61,1.61
211.44,8.87,7.28,8.87,7.28,-7.28,-7.30,-6.91,1.58,1.59,1.59
213.56,8.84,7.26,8.84,7.27,-7.27,-7.28,-6.96,1.57,1.57,1.57
215.69,8.81,7.26,8.80,7.25,-7.25,-7.25,-7.02,1.55,1.55,1.55
217.85,8.77,7.24,8.76,7.24,-7.24,-7.23,-7.07,1.53,1.53,1.53
220.03,8.72,7.21,8.72,7.22,-7.22,-7.20,-7.12,1.50,1.51,1.50
222.23,8.68,7.19,8.68,7.20,-7.19,-7.18,-7.17,1.48,1.48,1.48
224.45,8.64,7.18,8.63,7.17,-7.17,-7.15,-7.22,1.47,1.46,1.46
226.70,8.59,7.14,8.59,7.14,-7.14,-7.11,-7.26,1.44,1.45,1.45
228.96,8.55,7.11,8.54,7.11,-7.11,-7.08,-7.30,1.44,1.43,1.44
231.25,8.50,7.08,8.50,7.08,-7.07,-7.04,-7.34,1.42,1.42,1.42
233.57,8.45,7.04,8.45,7.04,-7.04,-7.01,-7.37,1.41,1.41,1.41
235.90,8.40,7.01,8.40,7.00,-7.00,-6.97,-7.39,1.40,1.40,1.39
238.26,8.35,6.97,8.35,6.96,-6.96,-6.93,-7.40,1.38,1.38,1.38
240.64,8.30,6.91,8.29,6.91,-6.92,-6.88,-7.41,1.37,1.37,1.39
243.05,8.25,6.87,8.25,6.87,-6.88,-6.84,-7.41,1.36,1.36,1.38
245.48,8.21,6.84,8.21,6.84,-6.85,-6.79,-7.39,1.36,1.36,1.36
247.93,8.18,6.82,8.18,6.81,-6.81,-6.74,-7.38,1.37,1.37,1.35
250.41,8.15,6.78,8.14,6.78,-6.77,-6.69,-7.35,1.37,1.37,1.37
252.92,8.11,6.74,8.10,6.74,-6.74,-6.64,-7.31,1.37,1.37,1.37
255.45,8.06,6.69,8.06,6.69,-6.70,-6.59,-7.26,1.36,1.36,1.36
258.00,8.02,6.65,8.02,6.66,-6.66,-6.53,-7.21,1.35,1.36,1.36
260.58,7.98,6.62,7.98,6.62,-6.62,-6.48,-7.14,1.36,1.36,1.36
263.19,7.95,6.59,7.94,6.58,-6.58,-6.42,-7.07,1.37,1.36,1.36
265.82,7.90,6.54,7.90,6.54,-6.53,-6.36,-6.99,1.37,1.37,1.35
268.48,7.85,6.49,7.84,6.49,-6.48,-6.30,-6.90,1.37,1.36,1.36
271.16,7.78,6.42,7.78,6.43,-6.43,-6.24,-6.80,1.35,1.35,1.35
273.87,7.73,6.37,7.73,6.37,-6.37,-6.17,-6.70,1.35,1.35,1.36
276.61,7.67,6.31,7.66,6.32,-6.32,-6.11,-6.60,1.35,1.35,1.35
279.38,7.61,6.27,7.60,6.26,-6.26,-6.05,-6.48,1.35,1.35,1.34
282.17,7.54,6.18,7.54,6.19,-6.20,-5.98,-6.37,1.34,1.35,1.35
284.99,7.49,6.13,7.48,6.13,-6.13,-5.91,-6.25,1.35,1.35,1.36
287.84,7.43,6.06,7.43,6.07,-6.07,-5.84,-6.13,1.36,1.36,1.36
290.72,7.37,6.02,7.36,6.01,-6.00,-5.78,-6.00,1.36,1.36,1.35
293.63,7.30,5.94,7.29,5.94,-5.93,-5.71,-5.88,1.36,1.36,1.35
296.57,7.22,5.85,7.22,5.86,-5.86,-5.64,-5.75,1.35,1.36,1.37
299.53,7.16,5.79,7.15,5.79,-5.79,-5.56,-5.62,1.37,1.36,1.36
302.53,7.09,5.72,7.08,5.71,-5.72,-5.49,-5.50,1.37,1.37,1.37
305.55,7.02,5.64,7.02,5.64,-5.64,-5.42,-5.37,1.38,1.38,1.38
308.61,6.95,5.56,6.95,5.56,-5.56,-5.35,-5.25,1.38,1.38,1.38
311.69,6.88,5.49,6.88,5.49,-5.48,-5.27,-5.12,1.39,1.39,1.39
314.81,6.81,5.41,6.80,5.41,-5.41,-5.20,-5.00,1.40,1.40,1.40
317.96,6.73,5.32,6.73,5.33,-5.32,-5.13,-4.88,1.40,1.40,1.40
321.14,6.65,5.24,6.65,5.24,-5.24,-5.05,-4.76,1.40,1.41,1.41
324.35,6.58,5.17,6.58,5.16,-5.16,-4.98,-4.64,1.41,1.41,1.41
327.59,6.51,5.07,6.50,5.08,-5.08,-4.90,-4.53,1.43,1.42,1.43
330.87,6.43,5.00,6.42,5.00,-5.00,-4.83,-4.41,1.43,1.43,1.43
334.18,6.35,4.92,6.35,4.91,-4.91,-4.75,-4.30,1.43,1.44,1.43
337.52,6.27,4.82,6.27,4.83,-4.83,-4.67,-4.20,1.44,1.44,1.45
340.90,6.21,4.75,6.20,4.75,-4.75,-4.60,-4.09,1.46,1.45,1.45
344.30,6.13,4.67,6.12,4.66,-4.66,-4.52,-3.99,1.46,1.46,1.46
347.75,6.05,4.58,6.05,4.58,-4.58,-4.44,-3.89,1.47,1.47,1.47
351.23,5.97,4.49,5.97,4.49,-4.50,-4.37,-3.80,1.47,1.48,1.48
354.74,5.91,4.41,5.90,4.41,-4.41,-4.29,-3.70,1.49,1.49,1.49
358.28,5.83,4.33,5.82,4.33,-4.33,-4.21,-3.61,1.50,1.49,1.49
361.87,5.75,4.26,5.75,4.25,-4.25,-4.14,-3.52,1.50,1.50,1.49
365.49,5.67,4.16,5.67,4.17,-4.17,-4.06,-3.44,1.50,1.50,1.51
369.14,5.60,4.08,5.60,4.08,-4.08,-3.98,-3.36,1.51,1.51,1.52
372.83,5.53,4.00,5.52,4.00,-4.00,-3.91,-3.28,1.52,1.52,1.52
376.56,5.45,3.92,5.45,3.92,-3.92,-3.83,-3.20,1.52,1.52,1.52
380.33,5.37,3.84,5.37,3.84,-3.84,-3.75,-3.13,1.53,1.53,1.53
384.13,5.30,3.76,5.30,3.76,-3.76,-3.68,-3.05,1.54,1.54,1.54
387.97,5.24,3.69,5.23,3.68,-3.68,-3.60,-2.98,1.56,1.55,1.55
391.85,5.16,3.59,5.16,3.60,-3.60,-3.52,-2.92,1.56,1.56,1.57
395.77,5.09,3.52,5.09,3.52,-3.52,-3.45,-2.85,1.57,1.57,1.56
399.73,5.02,3.44,5.02,3.44,-3.44,-3.37,-2.79,1.58,1.58,1.57
403.72,4.95,3.35,4.95,3.36,-3.36,-3.30,-2.73,1.59,1.59,1.59
407.76,4.88,3.28,4.88,3.27,-3.28,-3.22,-2.67,1.60,1.59,1.60
411.84,4.81,3.20,4.81,3.20,-3.20,-3.14,-2.61,1.60,1.60,1.61
415.96,4.74,3.12,4.74,3.13,-3.13,-3.07,-2.55,1.61,1.61,1.62
420.12,4.68,3.06,4.67,3.05,-3.05,-2.99,-2.50,1.63,1.62,1.62
424.32,4.61,2.98,4.61,2.98,-2.98,-2.92,-2.45,1.63,1.63,1.63
428.56,4.55,2.90,4.54,2.90,-2.90,-2.84,-2.39,1.65,1.64,1.64
432.85,4.48,2.81,4.48,2.82,-2.82,-2.77,-2.34,1.65,1.65,1.66
437.18,4.41,2.75,4.41,2.75,-2.75,-2.70,-2.29,1.66,1.66,1.65
441.55,4.34,2.68,4.33,2.67,-2.67,-2.62,-2.24,1.67,1.67,1.66
445.96,4.26,2.59,4.26,2.59,-2.59,-2.55,-2.20,1.67,1.67,1.67
450.42,4.19,2.51,4.19,2.51,-2.51,-2.47,-2.15,1.68,1.68,1.68
454.93,4.12,2.43,4.12,2.43,-2.43,-2.40,-2.10,1.69,1.69,1.69
459.48,4.05,2.35,4.05,2.34,-2.35,-2.33,-2.05,1.70,1.70,1.70
464.07,3.98,2.26,3.98,2.27,-2.27,-2.25,-2.01,1.70,1.71,1.72
468.71,3.91,2.19,3.91,2.19,-2.19,-2.18,-1.96,1.71,1.72,1.72
473.40,3.85,2.12,3.84,2.12,-2.11,-2.11,-1.91,1.73,1.73,1.73
478.13,3.78,2.04,3.78,2.04,-2.04,-2.04,-1.87,1.74,1.74,1.73
482.91,3.72,1.97,3.71,1.97,-1.96,-1.96,-1.82,1.75,1.75,1.74
487.74,3.64,1.88,3.64,1.88,-1.89,-1.89,-1.77,1.75,1.75,1.75
492.62,3.57,1.80,3.57,1.80,-1.81,-1.82,-1.72,1.76,1.76,1.76
497.55,3.50,1.72,3.50,1.73,-1.73,-1.75,-1.67,1.77,1.77,1.77
502.52,3.44,1.65,3.44,1.66,-1.65,-1.68,-1.62,1.78,1.78,1.78
507.55,3.39,1.59,3.38,1.58,-1.58,-1.61,-1.57,1.81,1.80,1.80
512.62,3.32,1.51,3.31,1.50,-1.50,-1.54,-1.52,1.81,1.81,1.81
