frequency,raw,error,smoothed,error_smoothed,equalization,parametric_eq,fixed_band_eq,equalized_raw,equalized_smoothed,target
20.00,-8.65,-19.23,-8.65,-19.23,6.00,5.81,2.65,-2.65,-2.65,10.58
20.20,-8.49,-19.07,-8.49,-19.08,6.00,5.81,2.72,-2.49,-2.49,10.58
20.40,-8.34,-18.93,-8.34,-18.93,6.00,5.81,2.80,-2.34,-2.34,10.59
20.61,-8.19,-18.79,-8.19,-18.78,6.00,5.81,2.88,-2.19,-2.19,10.60
20.81,-8.04,-18.64,-8.04,-18.64,6.00,5.81,2.96,-2.04,-2.04,10.60
21.02,-7.90,-18.51,-7.90,-18.50,6.00,5.82,3.05,-1.90,-1.90,10.61
21.23,-7.76,-18.37,-7.76,-18.37,6.00,5.82,3.13,-1.76,-1.76,10.61
21.44,-7.62,-18.24,-7.62,-18.24,6.00,5.82,3.22,-1.62,-1.62,10.62
21.66,-7.48,-18.11,-7.48,-18.10,6.00,5.82,3.31,-1.48,-1.48,10.63
21.87,-7.35,-17.97,-7.34,-17.98,6.00,5.82,3.41,-1.35,-1.34,10.63
22.09,-7.22,-17.85,-7.22,-17.85,6.00,5.83,3.50,-1.22,-1.22,10.64
22.31,-7.09,-17.73,-7.10,-17.74,6.00,5.83,3.60,-1.09,-1.10,10.65
22.54,-6.99,-17.64,-6.99,-17.63,6.00,5.83,3.70,-0.99,-0.99,10.65
22.76,-6.88,-17.53,-6.87,-17.53,6.00,5.83,3.81,-0.88,-0.87,10.66
22.99,-6.76,-17.42,-6.76,-17.43,6.00,5.84,3.91,-0.76,-0.76,10.67
23.22,-6.64,-17.31,-6.65,-17.32,6.00,5.84,4.02,-0.64,-0.65,10.67
23.45,-6.54,-17.22,-6.53,-17.22,6.00,5.84,4.14,-0.54,-0.53,10.68
23.69,-6.42,-17.11,-6.42,-17.11,6.00,5.84,4.25,-0.42,-0.42,10.69
23.92,-6.30,-17.00,-6.30,-17.00,6.00,5.84,4.37,-0.30,-0.30,10.70
24.16,-6.17,-16.88,-6.17,-16.88,6.00,5.85,4.49,-0.17,-0.17,10.71
24.40,-6.04,-16.76,-6.04,-16.76,6.00,5.85,4.61,-0.04,-0.04,10.72
24.65,-5.91,-16.65,-5.90,-16.64,6.00,5.85,4.73,0.09,0.10,10.74
24.89,-5.76,-16.51,-5.77,-16.52,6.00,5.85,4.85,0.24,0.23,10.75
25.14,-5.63,-16.39,-5.62,-16.39,6.00,5.86,4.98,0.37,0.38,10.76
25.39,-5.49,-16.26,-5.48,-16.25,6.00,5.86,5.11,0.51,0.52,10.77
25.65,-5.33,-16.11,-5.34,-16.12,6.00,5.86,5.23,0.67,0.66,10.78
25.91,-5.19,-15.99,-5.19,-15.99,6.00,5.87,5.36,0.81,0.81,10.80
26.16,-5.05,-15.85,-5.05,-15.85,6.00,5.87,5.49,0.95,0.95,10.81
26.43,-4.90,-15.72,-4.90,-15.72,6.00,5.87,5.62,1.10,1.10,10.82
26.69,-4.76,-15.59,-4.76,-15.59,6.00,5.87,5.74,1.24,1.24,10.83
26.96,-4.61,-15.46,-4.61,-15.46,6.00,5.88,5.87,1.39,1.39,10.85
27.23,-4.47,-15.33,-4.47,-15.32,6.00,5.88,5.99,1.53,1.53,10.85
27.50,-4.32,-15.19,-4.32,-15.20,6.00,5.88,6.11,1.68,1.68,10.87
27.77,-4.18,-15.06,-4.18,-15.07,6.00,5.88,6.23,1.82,1.82,10.88
28.05,-4.05,-14.95,-4.04,-14.94,6.00,5.89,6.35,1.95,1.96,10.90
28.33,-3.90,-14.81,-3.90,-14.82,6.00,5.89,6.45,2.10,2.10,10.91
28.62,-3.76,-14.69,-3.76,-14.69,6.00,5.89,6.56,2.24,2.24,10.93
28.90,-3.63,-14.57,-3.62,-14.57,6.00,5.90,6.65,2.37,2.38,10.94
29.19,-3.49,-14.45,-3.49,-14.45,6.00,5.90,6.75,2.51,2.51,10.96
29.48,-3.36,-14.33,-3.36,-14.33,6.00,5.90,6.83,2.64,2.64,10.97
29.78,-3.23,-14.22,-3.23,-14.21,6.00,5.91,6.91,2.77,2.77,10.99
30.08,-3.10,-14.10,-3.10,-14.10,6.00,5.91,6.97,2.90,2.90,10.99
30.38,-2.98,-13.99,-2.98,-13.99,6.00,5.91,7.03,3.02,3.02,11.01
30.68,-2.86,-13.88,-2.86,-13.88,6.00,5.92,7.08,3.14,3.14,11.02
30.99,-2.74,-13.78,-2.74,-13.78,6.00,5.92,7.12,3.26,3.26,11.04
31.30,-2.63,-13.68,-2.63,-13.68,6.00,5.92,7.14,3.37,3.37,11.05
31.61,-2.52,-13.59,-2.52,-13.59,6.00,5.93,7.17,3.48,3.48,11.07
31.93,-2.41,-13.49,-2.41,-13.49,6.00,5.93,7.17,3.59,3.59,11.08
32.24,-2.31,-13.40,-2.31,-13.40,6.00,5.93,7.18,3.69,3.69,11.09
32.57,-2.20,-13.30,-2.20,-13.30,6.00,5.94,7.17,3.80,3.80,11.10
32.89,-2.09,-13.21,-2.08,-13.20,6.00,5.94,7.15,3.91,3.92,11.12
33.22,-1.95,-13.08,-1.96,-13.09,6.00,5.94,7.12,4.05,4.04,11.13
33.55,-1.84,-12.99,-1.83,-12.98,6.00,5.95,7.09,4.16,4.17,11.15
33.89,-1.71,-12.87,-1.71,-12.87,6.00,5.95,7.05,4.29,4.29,11.16
34.23,-1.58,-12.75,-1.59,-12.76,6.00,5.95,7.01,4.42,4.41,11.17
34.57,-1.46,-12.64,-1.46,-12.64,6.00,5.96,6.95,4.54,4.54,11.18
34.92,-1.34,-12.53,-1.34,-12.53,6.00,5.96,6.90,4.66,4.66,11.19
35.27,-1.21,-12.42,-1.21,-12.41,6.00,5.97,6.84,4.79,4.79,11.21
35.62,-1.08,-12.30,-1.08,-12.29,6.00,5.97,6.78,4.92,4.92,11.22
35.97,-0.95,-12.17,-0.95,-12.17,6.00,5.97,6.71,5.05,5.05,11.22
36.33,-0.82,-12.05,-0.82,-12.05,6.00,5.98,6.64,5.18,5.18,11.23
36.70,-0.70,-11.94,-0.69,-11.93,6.00,5.98,6.58,5.30,5.31,11.24
37.06,-0.57,-11.81,-0.57,-11.81,6.00,5.98,6.51,5.43,5.43,11.25
37.43,-0.43,-11.68,-0.43,-11.69,6.00,5.99,6.44,5.57,5.57,11.25
37.81,-0.30,-11.56,-0.30,-11.56,6.00,5.99,6.37,5.70,5.70,11.26
38.19,-0.16,-11.43,-0.16,-11.43,6.00,5.99,6.31,5.84,5.84,11.27
38.57,-0.03,-11.30,-0.03,-11.30,6.00,6.00,6.24,5.97,5.97,11.27
38.95,0.11,-11.17,0.11,-11.17,6.00,6.00,6.18,6.11,6.11,11.28
39.34,0.25,-11.04,0.25,-11.03,6.00,6.01,6.12,6.25,6.25,11.29
39.74,0.40,-10.89,0.40,-10.89,6.00,6.01,6.06,6.40,6.40,11.29
40.14,0.56,-10.73,0.55,-10.74,6.00,6.01,6.01,6.56,6.55,11.29
40.54,0.70,-10.60,0.70,-10.59,6.00,6.02,5.96,6.70,6.70,11.30
40.94,0.85,-10.45,0.86,-10.45,6.00,6.02,5.91,6.85,6.86,11.30
41.35,1.01,-10.30,1.00,-10.30,6.00,6.02,5.86,7.01,7.00,11.31
41.76,1.15,-10.16,1.16,-10.16,6.00,6.03,5.82,7.15,7.16,11.32
42.18,1.30,-10.02,1.30,-10.02,6.00,6.03,5.79,7.30,7.30,11.32
42.60,1.44,-9.89,1.44,-9.89,6.00,6.04,5.75,7.44,7.44,11.33
43.03,1.56,-9.77,1.57,-9.77,6.00,6.04,5.73,7.56,7.57,11.33
43.46,1.69,-9.65,1.69,-9.65,6.00,6.04,5.70,7.69,7.69,11.34
43.90,1.82,-9.52,1.82,-9.53,6.00,6.05,5.68,7.82,7.82,11.34
44.33,1.95,-9.41,1.95,-9.41,6.00,6.05,5.67,7.95,7.95,11.36
44.78,2.07,-9.29,2.07,-9.29,6.00,6.05,5.66,8.07,8.07,11.36
45.23,2.19,-9.18,2.19,-9.18,6.00,6.06,5.65,8.19,8.19,11.37
45.68,2.31,-9.07,2.31,-9.07,6.00,6.06,5.65,8.31,8.31,11.38
46.13,2.42,-8.96,2.42,-8.97,6.00,6.06,5.65,8.42,8.42,11.39
46.60,2.53,-8.87,2.53,-8.87,6.00,6.07,5.65,8.53,8.53,11.40
47.06,2.63,-8.77,2.63,-8.78,6.00,6.07,5.66,8.63,8.63,11.40
47.53,2.73,-8.69,2.73,-8.68,6.00,6.07,5.68,8.73,8.73,11.42
48.01,2.83,-8.59,2.83,-8.59,6.00,6.07,5.69,8.83,8.83,11.42
48.49,2.94,-8.49,2.94,-8.49,6.00,6.08,5.71,8.94,8.94,11.43
48.97,3.04,-8.40,3.04,-8.40,6.00,6.08,5.74,9.04,9.04,11.44
49.46,3.14,-8.31,3.14,-8.31,6.00,6.08,5.77,9.14,9.14,11.45
49.96,3.24,-8.21,3.24,-8.21,6.00,6.08,5.80,9.24,9.24,11.45
50.46,3.33,-8.12,3.33,-8.12,6.00,6.09,5.83,9.33,9.33,11.45
50.96,3.43,-8.03,3.42,-8.04,6.00,6.09,5.87,9.43,9.42,11.47
51.47,3.51,-7.96,3.51,-7.96,6.00,6.09,5.90,9.51,9.51,11.47
51.99,3.59,-7.88,3.60,-7.87,6.00,6.09,5.94,9.59,9.60,11.47
52.51,3.68,-7.79,3.68,-7.79,6.00,6.09,5.99,9.68,9.68,11.47
53.03,3.76,-7.71,3.76,-7.71,6.00,6.10,6.03,9.76,9.76,11.47
53.56,3.84,-7.64,3.84,-7.64,6.00,6.10,6.07,9.84,9.84,11.48
54.10,3.92,-7.56,3.92,-7.56,6.00,6.10,6.12,9.92,9.92,11.48
54.64,4.00,-7.48,4.00,-7.48,6.00,6.10,6.16,10.00,10.00,11.48
55.18,4.08,-7.39,4.08,-7.39,6.00,6.10,6.20,10.08,10.08,11.47
55.74,4.17,-7.30,4.17,-7.30,6.00,6.10,6.25,10.17,10.17,11.47
56.29,4.25,-7.22,4.25,-7.22,6.00,6.10,6.29,10.25,10.25,11.47
56.86,4.32,-7.13,4.32,-7.14,6.00,6.10,6.32,10.32,10.32,11.46
57.42,4.39,-7.06,4.39,-7.06,6.00,6.10,6.36,10.39,10.39,11.45
58.00,4.47,-6.97,4.47,-6.98,6.00,6.10,6.39,10.47,10.47,11.44
58.58,4.54,-6.90,4.54,-6.89,6.00,6.10,6.42,10.54,10.54,11.44
59.16,4.62,-6.80,4.62,-6.80,6.00,6.10,6.45,10.62,10.62,11.42
59.76,4.71,-6.70,4.71,-6.71,6.00,6.10,6.47,10.71,10.71,11.41
60.35,4.78,-6.61,4.78,-6.62,6.00,6.10,6.49,10.78,10.78,11.40
60.96,4.85,-6.53,4.85,-6.54,6.00,6.10,6.50,10.85,10.85,11.38
61.57,4.90,-6.47,4.91,-6.46,6.00,6.10,6.51,10.90,10.91,11.37
62.18,4.96,-6.39,4.97,-6.39,6.01,6.10,6.51,10.97,10.97,11.35
62.80,5.03,-6.30,5.03,-6.31,6.01,6.09,6.50,11.04,11.04,11.33
63.43,5.09,-6.23,5.09,-6.22,6.00,6.09,6.49,11.10,11.10,11.32
64.07,5.15,-6.14,5.15,-6.14,5.99,6.09,6.48,11.15,11.15,11.29
64.71,5.21,-6.06,5.21,-6.06,5.98,6.09,6.46,11.19,11.19,11.27
65.35,5.26,-5.99,5.26,-5.99,5.96,6.08,6.44,11.22,11.22,11.26
66.01,5.30,-5.94,5.30,-5.94,5.93,6.08,6.41,11.23,11.23,11.24
66.67,5.33,-5.89,5.33,-5.89,5.90,6.08,6.37,11.23,11.22,11.22
67.33,5.34,-5.86,5.34,-5.85,5.87,6.07,6.33,11.21,11.21,11.20
68.01,5.35,-5.82,5.35,-5.82,5.83,6.07,6.29,11.18,11.19,11.17
68.69,5.36,-5.79,5.36,-5.79,5.80,6.06,6.25,11.16,11.16,11.15
69.37,5.36,-5.77,5.35,-5.77,5.78,6.06,6.20,11.14,11.13,11.13
70.07,5.34,-5.76,5.34,-5.76,5.75,6.05,6.15,11.09,11.10,11.10
70.77,5.33,-5.75,5.33,-5.75,5.74,6.05,6.10,11.07,11.07,11.08
71.48,5.32,-5.74,5.32,-5.74,5.73,6.04,6.05,11.05,11.05,11.06
72.19,5.32,-5.71,5.32,-5.72,5.72,6.03,6.00,11.04,11.04,11.04
72.91,5.31,-5.71,5.31,-5.71,5.72,6.03,5.94,11.03,11.03,11.02
73.64,5.29,-5.71,5.29,-5.71,5.72,6.02,5.89,11.01,11.01,11.00
74.38,5.27,-5.71,5.26,-5.71,5.72,6.01,5.84,11.00,10.99,10.98
75.12,5.23,-5.73,5.23,-5.73,5.73,6.01,5.79,10.96,10.96,10.96
75.87,5.19,-5.75,5.19,-5.75,5.74,6.00,5.74,10.93,10.93,10.94
76.63,5.16,-5.76,5.16,-5.76,5.75,5.99,5.69,10.91,10.91,10.92
77.40,5.13,-5.77,5.13,-5.77,5.76,5.98,5.65,10.89,10.89,10.91
78.17,5.11,-5.78,5.11,-5.78,5.77,5.98,5.60,10.88,10.88,10.89
78.95,5.09,-5.78,5.09,-5.78,5.78,5.97,5.56,10.87,10.87,10.87
79.74,5.07,-5.78,5.07,-5.78,5.79,5.96,5.52,10.86,10.86,10.85
80.54,5.04,-5.79,5.04,-5.79,5.80,5.95,5.49,10.84,10.84,10.83
81.35,5.01,-5.80,5.01,-5.80,5.80,5.94,5.45,10.81,10.81,10.81
82.16,4.98,-5.81,4.98,-5.81,5.80,5.93,5.43,10.78,10.78,10.79
82.98,4.95,-5.82,4.96,-5.81,5.80,5.92,5.40,10.76,10.76,10.77
83.81,4.94,-5.81,4.94,-5.81,5.81,5.91,5.38,10.75,10.74,10.75
84.65,4.92,-5.80,4.92,-5.81,5.81,5.91,5.36,10.73,10.73,10.72
85.50,4.90,-5.80,4.90,-5.80,5.80,5.90,5.35,10.70,10.71,10.70
86.35,4.88,-5.80,4.88,-5.80,5.80,5.89,5.34,10.68,10.68,10.68
87.22,4.86,-5.79,4.86,-5.80,5.80,5.88,5.33,10.66,10.65,10.65
88.09,4.84,-5.79,4.84,-5.79,5.79,5.87,5.33,10.63,10.63,10.63
88.97,4.82,-5.80,4.82,-5.79,5.79,5.86,5.33,10.61,10.61,10.62
89.86,4.81,-5.78,4.81,-5.78,5.78,5.85,5.33,10.59,10.59,10.59
90.76,4.79,-5.78,4.79,-5.78,5.78,5.84,5.35,10.57,10.57,10.57
91.66,4.77,-5.78,4.77,-5.78,5.78,5.83,5.36,10.55,10.55,10.55
92.58,4.74,-5.78,4.75,-5.78,5.78,5.82,5.38,10.52,10.53,10.52
93.51,4.72,-5.78,4.72,-5.78,5.79,5.81,5.40,10.51,10.51,10.50
94.44,4.69,-5.79,4.69,-5.79,5.80,5.80,5.42,10.49,10.49,10.48
95.39,4.65,-5.80,4.65,-5.80,5.81,5.80,5.45,10.46,10.46,10.45
96.34,4.62,-5.82,4.61,-5.82,5.82,5.79,5.48,10.44,10.43,10.44
97.30,4.57,-5.84,4.57,-5.84,5.83,5.78,5.52,10.40,10.40,10.41
98.28,4.53,-5.85,4.53,-5.85,5.84,5.77,5.55,10.37,10.38,10.38
99.26,4.50,-5.85,4.50,-5.86,5.85,5.77,5.59,10.35,10.35,10.35
100.25,4.47,-5.87,4.47,-5.86,5.86,5.76,5.64,10.33,10.33,10.34
101.25,4.44,-5.87,4.44,-5.87,5.87,5.75,5.68,10.31,10.30,10.31
102.27,4.40,-5.88,4.40,-5.87,5.87,5.75,5.73,10.27,10.28,10.28
103.29,4.37,-5.87,4.37,-5.87,5.87,5.74,5.78,10.24,10.25,10.24
104.32,4.34,-5.87,4.34,-5.88,5.88,5.74,5.83,10.22,10.22,10.21
105.37,4.30,-5.88,4.30,-5.88,5.89,5.73,5.89,10.19,10.19,10.19
106.42,4.26,-5.89,4.26,-5.89,5.90,5.73,5.94,10.16,10.16,10.15
107.48,4.21,-5.90,4.21,-5.90,5.91,5.73,5.99,10.12,10.12,10.11
108.56,4.15,-5.92,4.15,-5.92,5.92,5.72,6.05,10.07,10.07,10.07
109.64,4.09,-5.94,4.09,-5.94,5.93,5.72,6.10,10.03,10.02,10.03
110.74,4.03,-5.96,4.03,-5.96,5.95,5.72,6.15,9.98,9.98,9.99
111.85,3.98,-5.98,3.98,-5.97,5.96,5.72,6.20,9.94,9.94,9.96
112.97,3.94,-5.97,3.94,-5.97,5.97,5.72,6.25,9.91,9.91,9.91
114.10,3.89,-5.98,3.90,-5.97,5.98,5.72,6.30,9.87,9.88,9.87
115.24,3.85,-5.97,3.84,-5.98,5.99,5.72,6.34,9.84,9.83,9.82
116.39,3.79,-6.00,3.79,-6.00,5.99,5.72,6.38,9.78,9.78,9.79
117.55,3.72,-6.02,3.73,-6.01,6.00,5.73,6.41,9.72,9.72,9.74
118.73,3.67,-6.03,3.67,-6.03,6.00,5.73,6.45,9.67,9.67,9.70
119.92,3.61,-6.05,3.62,-6.04,6.00,5.74,6.47,9.61,9.62,9.66
121.12,3.57,-6.05,3.57,-6.05,6.00,5.74,6.49,9.57,9.57,9.62
122.33,3.52,-6.07,3.52,-6.06,6.00,5.75,6.50,9.52,9.52,9.59
123.55,3.47,-6.08,3.47,-6.08,6.00,5.75,6.51,9.47,9.47,9.55
124.79,3.42,-6.10,3.42,-6.10,6.00,5.76,6.52,9.42,9.42,9.52
126.03,3.36,-6.12,3.36,-6.12,6.00,5.77,6.51,9.36,9.36,9.48
127.29,3.30,-6.15,3.30,-6.14,6.00,5.78,6.50,9.30,9.30,9.45
128.57,3.25,-6.16,3.25,-6.16,6.00,5.79,6.49,9.25,9.25,9.42
129.85,3.21,-6.17,3.21,-6.17,6.00,5.80,6.47,9.21,9.21,9.38
131.15,3.17,-6.18,3.17,-6.18,6.00,5.81,6.45,9.17,9.17,9.35
132.46,3.13,-6.19,3.13,-6.19,6.00,5.82,6.41,9.13,9.13,9.32
133.79,3.09,-6.21,3.09,-6.21,6.00,5.83,6.38,9.09,9.09,9.30
135.12,3.04,-6.23,3.04,-6.23,6.00,5.84,6.34,9.04,9.04,9.27
136.48,2.99,-6.24,2.99,-6.24,6.00,5.86,6.30,8.99,8.99,9.24
137.84,2.95,-6.26,2.96,-6.25,6.00,5.87,6.25,8.95,8.96,9.21
139.22,2.93,-6.25,2.93,-6.25,6.00,5.88,6.20,8.93,8.93,9.18
140.61,2.90,-6.25,2.90,-6.25,6.00,5.90,6.15,8.90,8.90,9.15
142.02,2.86,-6.27,2.86,-6.27,6.00,5.91,6.09,8.86,8.86,9.13
143.44,2.81,-6.29,2.81,-6.29,6.00,5.93,6.04,8.81,8.81,9.10
144.87,2.76,-6.31,2.77,-6.31,6.00,5.94,5.98,8.76,8.77,9.08
146.32,2.72,-6.32,2.72,-6.32,6.00,5.96,5.93,8.72,8.72,9.04
147.78,2.69,-6.32,2.69,-6.33,6.00,5.97,5.87,8.69,8.69,9.01
149.26,2.65,-6.34,2.65,-6.34,6.00,5.99,5.82,8.65,8.65,8.99
150.75,2.60,-6.36,2.60,-6.36,6.00,6.00,5.76,8.60,8.60,8.96
152.26,2.54,-6.40,2.55,-6.39,6.00,6.01,5.71,8.54,8.55,8.94
153.78,2.49,-6.41,2.49,-6.42,6.00,6.03,5.66,8.49,8.49,8.91
155.32,2.44,-6.44,2.44,-6.45,6.00,6.04,5.61,8.44,8.44,8.88
156.88,2.38,-6.48,2.38,-6.48,6.00,6.06,5.56,8.38,8.38,8.86
158.44,2.31,-6.53,2.32,-6.52,6.00,6.07,5.52,8.31,8.32,8.84
160.03,2.26,-6.55,2.26,-6.55,6.00,6.08,5.47,8.26,8.26,8.81
161.63,2.21,-6.57,2.21,-6.58,6.00,6.10,5.44,8.21,8.21,8.79
163.24,2.15,-6.60,2.14,-6.61,6.00,6.11,5.40,8.15,8.14,8.76
164.88,2.07,-6.66,2.08,-6.66,6.00,6.12,5.37,8.07,8.08,8.74
166.53,2.00,-6.71,2.00,-6.70,6.00,6.13,5.34,8.00,8.00,8.71
168.19,1.93,-6.75,1.93,-6.75,6.00,6.14,5.32,7.93,7.93,8.68
169.87,1.86,-6.79,1.86,-6.79,6.00,6.15,5.29,7.86,7.86,8.65
171.57,1.79,-6.83,1.79,-6.83,6.00,6.16,5.28,7.79,7.79,8.62
173.29,1.71,-6.88,1.71,-6.88,6.00,6.16,5.26,7.71,7.71,8.59
175.02,1.64,-6.93,1.64,-6.93,6.00,6.17,5.25,7.64,7.64,8.57
176.77,1.56,-6.97,1.56,-6.97,6.00,6.18,5.25,7.56,7.56,8.53
178.54,1.48,-7.03,1.48,-7.02,6.00,6.18,5.25,7.48,7.48,8.51
180.32,1.40,-7.07,1.40,-7.07,6.00,6.18,5.25,7.40,7.40,8.47
182.13,1.32,-7.12,1.32,-7.12,6.00,6.19,5.25,7.32,7.32,8.45
183.95,1.25,-7.16,1.25,-7.16,6.00,6.19,5.26,7.25,7.25,8.41
185.79,1.18,-7.20,1.18,-7.21,6.00,6.19,5.28,7.18,7.18,8.38
187.65,1.10,-7.25,1.10,-7.25,6.00,6.19,5.29,7.10,7.10,8.35
189.52,1.02,-7.30,1.03,-7.29,6.00,6.19,5.31,7.02,7.03,8.32
191.42,0.95,-7.34,0.95,-7.34,6.00,6.19,5.34,6.95,6.95,8.29
193.33,0.89,-7.37,0.89,-7.37,6.00,6.18,5.36,6.89,6.89,8.26
195.27,0.82,-7.41,0.82,-7.41,6.00,6.18,5.39,6.82,6.82,8.23
197.22,0.75,-7.45,0.75,-7.45,6.00,6.17,5.43,6.75,6.75,8.20
199.19,0.68,-7.49,0.68,-7.49,6.00,6.17,5.46,6.68,6.68,8.17
201.18,0.61,-7.52,0.61,-7.52,6.00,6.16,5.50,6.61,6.61,8.13
203.19,0.54,-7.56,0.54,-7.56,6.00,6.15,5.54,6.54,6.54,8.10
205.23,0.48,-7.59,0.48,-7.59,6.00,6.15,5.59,6.48,6.48,8.07
207.28,0.42,-7.62,0.42,-7.62,6.00,6.14,5.63,6.42,6.42,8.04
209.35,0.37,-7.64,0.36,-7.64,6.00,6.13,5.68,6.37,6.36,8.01
211.44,0.30,-7.67,0.30,-7.67,6.00,6.12,5.73,6.30,6.30,7.97
213.56,0.24,-7.70,0.24,-7.70,6.00,6.10,5.78,6.24,6.24,7.94
215.69,0.18,-7.72,0.18,-7.72,6.00,6.09,5.82,6.18,6.18,7.90
217.85,0.13,-7.73,0.13,-7.74,6.00,6.08,5.87,6.13,6.13,7.87
220.03,0.07,-7.77,0.06,-7.77,6.00,6.07,5.92,6.07,6.06,7.84
222.23,-0.01,-7.82,-0.01,-7.81,6.00,6.05,5.97,5.99,5.99,7.81
224.45,-0.08,-7.85,-0.08,-7.85,6.00,6.04,6.01,5.92,5.92,7.77
226.70,-0.15,-7.89,-0.15,-7.89,6.00,6.03,6.06,5.85,5.85,7.75
228.96,-0.21,-7.93,-0.21,-7.93,6.00,6.01,6.10,5.79,5.79,7.72
231.25,-0.28,-7.97,-0.28,-7.97,6.00,6.00,6.14,5.72,5.72,7.69
233.57,-0.35,-8.02,-0.35,-8.02,6.00,5.98,6.17,5.65,5.65,7.67
235.90,-0.41,-8.06,-0.41,-8.07,6.00,5.97,6.20,5.59,5.59,7.65
238.26,-0.48,-8.11,-0.48,-8.11,6.00,5.95,6.23,5.52,5.52,7.63
240.64,-0.54,-8.16,-0.54,-8.15,6.00,5.93,6.25,5.46,5.46,7.62
243.05,-0.59,-8.19,-0.59,-8.19,6.00,5.92,6.27,5.41,5.41,7.60
245.48,-0.63,-8.21,-0.63,-8.21,6.00,5.90,6.28,5.37,5.37,7.59
247.93,-0.65,-8.22,-0.66,-8.23,6.00,5.89,6.29,5.35,5.34,7.57
250.41,-0.67,-8.22,-0.66,-8.22,6.00,5.87,6.29,5.33,5.34,7.56
252.92,-0.65,-8.19,-0.64,-8.18,6.00,5.86,6.29,5.35,5.36,7.54
255.45,-0.60,-8.13,-0.60,-8.13,6.00,5.84,6.28,5.40,5.40,7.53
258.00,-0.54,-8.05,-0.55,-8.06,6.00,5.83,6.27,5.46,5.45,7.51
260.58,-0.48,-7.99,-0.47,-7.98,6.00,5.81,6.25,5.52,5.53,7.51
263.19,-0.39,-7.88,-0.38,-7.87,6.00,5.80,6.23,5.61,5.62,7.49
265.82,-0.27,-7.75,-0.27,-7.75,6.00,5.79,6.20,5.73,5.73,7.48
268.48,-0.14,-7.60,-0.15,-7.61,6.00,5.77,6.17,5.86,5.85,7.46
271.16,-0.02,-7.47,-0.01,-7.46,6.00,5.76,6.13,5.98,5.99,7.45
273.87,0.13,-7.31,0.13,-7.30,6.00,5.75,6.09,6.13,6.13,7.44
276.61,0.29,-7.13,0.29,-7.14,6.00,5.74,6.05,6.29,6.29,7.42
279.38,0.45,-6.96,0.45,-6.96,6.01,5.72,6.01,6.46,6.46,7.41
282.17,0.61,-6.79,0.61,-6.79,6.02,5.71,5.96,6.63,6.63,7.40
284.99,0.77,-6.61,0.77,-6.61,6.02,5.70,5.92,6.80,6.80,7.38
287.84,0.93,-6.44,0.93,-6.44,6.02,5.69,5.87,6.95,6.95,7.37
290.72,1.08,-6.28,1.08,-6.28,6.00,5.68,5.82,7.08,7.07,7.36
293.63,1.21,-6.13,1.21,-6.13,5.96,5.68,5.77,7.17,7.17,7.34
296.57,1.34,-5.99,1.34,-5.99,5.90,5.67,5.73,7.24,7.24,7.33
299.53,1.45,-5.87,1.46,-5.86,5.83,5.66,5.68,7.28,7.28,7.32
302.53,1.57,-5.74,1.57,-5.73,5.74,5.65,5.64,7.31,7.31,7.31
305.55,1.67,-5.61,1.67,-5.62,5.65,5.65,5.59,7.32,7.32,7.28
308.61,1.76,-5.51,1.76,-5.51,5.55,5.64,5.55,7.31,7.31,7.27
311.69,1.83,-5.43,1.83,-5.42,5.45,5.64,5.51,7.28,7.29,7.26
314.81,1.89,-5.35,1.89,-5.35,5.37,5.63,5.48,7.26,7.26,7.24
317.96,1.93,-5.30,1.93,-5.30,5.30,5.63,5.44,7.23,7.23,7.23
321.14,1.95,-5.25,1.95,-5.26,5.26,5.62,5.41,7.21,7.21,7.20
324.35,1.95,-5.24,1.96,-5.23,5.23,5.62,5.38,7.18,7.19,7.19
327.59,1.95,-5.22,1.95,-5.22,5.22,5.62,5.36,7.17,7.17,7.17
330.87,1.94,-5.22,1.94,-5.22,5.22,5.62,5.34,7.16,7.15,7.16
334.18,1.91,-5.23,1.91,-5.23,5.23,5.62,5.32,7.14,7.14,7.14
337.52,1.87,-5.25,1.87,-5.25,5.25,5.62,5.31,7.12,7.13,7.12
340.90,1.83,-5.27,1.82,-5.28,5.28,5.62,5.30,7.11,7.11,7.10
344.30,1.76,-5.33,1.76,-5.32,5.32,5.62,5.29,7.08,7.09,7.09
347.75,1.69,-5.38,1.70,-5.37,5.37,5.62,5.29,7.06,7.07,7.07
351.23,1.63,-5.42,1.63,-5.43,5.43,5.62,5.29,7.06,7.05,7.05
354.74,1.55,-5.49,1.55,-5.48,5.49,5.63,5.29,7.04,7.04,7.04
358.28,1.47,-5.55,1.47,-5.55,5.55,5.63,5.30,7.02,7.02,7.02
361.87,1.38,-5.61,1.38,-5.62,5.62,5.63,5.32,7.00,7.00,6.99
365.49,1.29,-5.69,1.29,-5.69,5.69,5.64,5.33,6.98,6.98,6.98
369.14,1.20,-5.76,1.20,-5.76,5.76,5.64,5.36,6.96,6.96,6.96
372.83,1.12,-5.83,1.12,-5.82,5.82,5.65,5.38,6.94,6.94,6.95
376.56,1.05,-5.88,1.05,-5.88,5.87,5.66,5.41,6.92,6.93,6.93
380.33,0.99,-5.92,0.99,-5.92,5.92,5.66,5.44,6.91,6.91,6.91
384.13,0.93,-5.97,0.93,-5.97,5.95,5.67,5.48,6.88,6.88,6.90
387.97,0.86,-6.02,0.86,-6.01,5.98,5.68,5.52,6.84,6.84,6.88
391.85,0.80,-6.06,0.80,-6.07,6.00,5.69,5.56,6.80,6.79,6.87
395.77,0.74,-6.11,0.74,-6.11,6.00,5.70,5.61,6.75,6.74,6.85
399.73,0.68,-6.16,0.69,-6.16,6.01,5.70,5.65,6.69,6.69,6.84
403.72,0.64,-6.19,0.64,-6.19,6.01,5.71,5.70,6.65,6.65,6.83
407.76,0.60,-6.22,0.60,-6.22,6.01,5.72,5.76,6.61,6.61,6.82
411.84,0.57,-6.23,0.57,-6.24,6.00,5.73,5.81,6.57,6.57,6.80
415.96,0.53,-6.26,0.53,-6.26,6.00,5.74,5.87,6.53,6.53,6.79
420.12,0.49,-6.29,0.49,-6.29,6.00,5.76,5.93,6.49,6.49,6.78
424.32,0.44,-6.33,0.44,-6.32,6.00,5.77,5.99,6.44,6.44,6.77
428.56,0.40,-6.36,0.40,-6.35,6.00,5.78,6.04,6.40,6.40,6.76
432.85,0.36,-6.38,0.36,-6.38,6.00,5.79,6.10,6.36,6.36,6.74
437.18,0.32,-6.41,0.32,-6.41,6.00,5.80,6.16,6.32,6.32,6.73
441.55,0.27,-6.45,0.27,-6.44,6.00,5.81,6.22,6.27,6.27,6.72
445.96,0.23,-6.47,0.23,-6.47,6.00,5.83,6.28,6.23,6.23,6.70
450.42,0.19,-6.48,0.19,-6.49,6.00,5.84,6.33,6.19,6.19,6.68
454.93,0.15,-6.51,0.15,-6.51,6.00,5.85,6.38,6.15,6.15,6.66
459.48,0.11,-6.53,0.11,-6.53,6.00,5.86,6.43,6.11,6.11,6.64
464.07,0.07,-6.55,0.07,-6.55,6.00,5.88,6.47,6.07,6.07,6.62
468.71,0.03,-6.57,0.03,-6.58,6.00,5.89,6.51,6.03,6.03,6.60
473.40,-0.01,-6.60,-0.01,-6.60,6.00,5.90,6.55,5.99,5.99,6.59
478.13,-0.06,-6.63,-0.06,-6.63,6.00,5.92,6.58,5.94,5.94,6.57
482.91,-0.10,-6.66,-0.10,-6.66,6.00,5.93,6.60,5.90,5.90,6.56
487.74,-0.14,-6.68,-0.14,-6.68,6.00,5.94,6.62,5.86,5.86,6.54
492.62,-0.18,-6.71,-0.17,-6.71,6.00,5.96,6.63,5.82,5.83,6.53
497.55,-0.20,-6.72,-0.20,-6.72,6.00,5.97,6.64,5.80,5.80,6.52
502.52,-0.22,-6.73,-0.22,-6.73,6.00,5.98,6.64,5.78,5.78,6.51
507.55,-0.23,-6.73,-0.23,-6.73,6.00,6.00,6.63,5.77,5.77,6.50
512.62,-0.25,-6.73,-0.25,-6.73,6.00,6.01,6.62,5.75,5.75,6.48
