frequency,raw,error,smoothed,error_smoothed,equalization,parametric_eq,fixed_band_eq,equalized_raw,equalized_smoothed,target
20.00,-6.77,-9.39,-6.79,-9.41,6.00,4.79,2.35,-0.77,-0.79,2.62
20.20,-6.74,-9.36,-6.72,-9.34,6.00,4.91,2.41,-0.74,-0.72,2.62
20.40,-6.66,-9.28,-6.64,-9.26,6.00,5.04,2.48,-0.66,-0.64,2.62
20.61,-6.55,-9.17,-6.56,-9.18,6.00,5.16,2.55,-0.55,-0.56,2.62
20.81,-6.45,-9.07,-6.46,-9.08,6.00,5.28,2.63,-0.45,-0.46,2.62
21.02,-6.37,-8.99,-6.36,-8.98,6.00,5.40,2.70,-0.37,-0.36,2.63
21.23,-6.27,-8.90,-6.27,-8.89,6.00,5.52,2.78,-0.27,-0.27,2.63
21.44,-6.16,-8.79,-6.17,-8.80,6.00,5.63,2.86,-0.16,-0.17,2.63
21.66,-6.08,-8.71,-6.07,-8.70,6.00,5.74,2.94,-0.08,-0.07,2.63
21.87,-5.98,-8.61,-5.98,-8.61,6.00,5.84,3.03,0.02,0.02,2.63
22.09,-5.88,-8.51,-5.88,-8.51,6.00,5.93,3.11,0.12,0.12,2.63
22.31,-5.77,-8.40,-5.77,-8.40,6.00,6.02,3.20,0.23,0.23,2.63
22.54,-5.67,-8.30,-5.67,-8.30,6.00,6.10,3.29,0.33,0.33,2.63
22.76,-5.57,-8.20,-5.57,-8.20,6.00,6.17,3.38,0.43,0.43,2.63
22.99,-5.46,-8.09,-5.46,-8.10,6.00,6.23,3.48,0.54,0.54,2.63
23.22,-5.36,-8.00,-5.36,-8.00,6.00,6.27,3.58,0.64,0.64,2.64
23.45,-5.26,-7.90,-5.25,-7.89,6.00,6.31,3.68,0.74,0.75,2.64
23.69,-5.15,-7.79,-5.15,-7.79,6.00,6.34,3.78,0.85,0.85,2.64
23.92,-5.05,-7.69,-5.06,-7.70,6.00,6.35,3.88,0.95,0.94,2.64
24.16,-4.97,-7.61,-4.96,-7.60,6.00,6.35,3.99,1.03,1.04,2.64
24.40,-4.87,-7.51,-4.86,-7.50,6.00,6.34,4.09,1.13,1.14,2.64
24.65,-4.76,-7.40,-4.76,-7.41,6.00,6.31,4.20,1.24,1.24,2.64
24.89,-4.66,-7.30,-4.66,-7.30,6.00,6.27,4.31,1.34,1.34,2.64
25.14,-4.56,-7.20,-4.55,-7.20,6.00,6.22,4.42,1.44,1.45,2.64
25.39,-4.45,-7.09,-4.45,-7.10,6.00,6.17,4.53,1.55,1.55,2.64
25.65,-4.35,-7.00,-4.36,-7.00,6.00,6.10,4.64,1.65,1.64,2.65
25.91,-4.27,-6.92,-4.26,-6.91,6.00,6.02,4.74,1.73,1.74,2.65
26.16,-4.17,-6.81,-4.17,-6.81,6.00,5.93,4.85,1.83,1.83,2.65
26.43,-4.06,-6.71,-4.07,-6.71,6.00,5.83,4.96,1.94,1.93,2.65
26.69,-3.96,-6.61,-3.96,-6.61,6.01,5.73,5.07,2.05,2.05,2.65
26.96,-3.86,-6.51,-3.86,-6.51,6.02,5.62,5.17,2.16,2.16,2.65
27.23,-3.75,-6.40,-3.75,-6.40,6.02,5.51,5.27,2.27,2.27,2.65
27.50,-3.65,-6.30,-3.65,-6.30,6.02,5.39,5.37,2.37,2.37,2.65
27.77,-3.55,-6.20,-3.54,-6.20,6.00,5.27,5.46,2.45,2.45,2.65
28.05,-3.44,-6.09,-3.44,-6.09,5.97,5.15,5.55,2.53,2.53,2.65
28.33,-3.34,-5.99,-3.34,-5.99,5.92,5.02,5.63,2.59,2.59,2.65
28.62,-3.24,-5.89,-3.24,-5.89,5.86,4.90,5.70,2.62,2.63,2.65
28.90,-3.13,-5.78,-3.13,-5.79,5.79,4.77,5.77,2.66,2.66,2.65
29.19,-3.03,-5.68,-3.03,-5.68,5.70,4.64,5.83,2.67,2.67,2.65
29.48,-2.93,-5.58,-2.93,-5.58,5.60,4.52,5.88,2.67,2.67,2.65
29.78,-2.83,-5.48,-2.83,-5.48,5.50,4.39,5.92,2.67,2.67,2.65
30.08,-2.72,-5.38,-2.72,-5.38,5.38,4.27,5.96,2.66,2.66,2.66
30.38,-2.62,-5.28,-2.62,-5.28,5.28,4.14,5.98,2.65,2.65,2.66
30.68,-2.52,-5.18,-2.52,-5.17,5.17,4.02,5.99,2.65,2.66,2.66
30.99,-2.41,-5.07,-2.41,-5.07,5.07,3.90,5.99,2.66,2.65,2.66
31.30,-2.31,-4.97,-2.31,-4.97,4.97,3.79,5.98,2.65,2.65,2.66
31.61,-2.21,-4.87,-2.21,-4.86,4.86,3.67,5.95,2.65,2.66,2.66
31.93,-2.10,-4.76,-2.10,-4.76,4.76,3.56,5.92,2.66,2.66,2.66
32.24,-2.00,-4.65,-2.00,-4.65,4.66,3.45,5.88,2.66,2.66,2.66
32.57,-1.90,-4.56,-1.90,-4.55,4.56,3.34,5.82,2.66,2.66,2.66
32.89,-1.79,-4.44,-1.80,-4.45,4.46,3.24,5.75,2.67,2.66,2.66
33.22,-1.71,-4.36,-1.70,-4.36,4.36,3.14,5.68,2.65,2.65,2.66
33.55,-1.61,-4.26,-1.60,-4.26,4.26,3.04,5.60,2.65,2.66,2.66
33.89,-1.51,-4.17,-1.51,-4.16,4.16,2.94,5.50,2.65,2.65,2.66
34.23,-1.40,-4.06,-1.41,-4.06,4.06,2.85,5.40,2.66,2.66,2.66
34.57,-1.32,-3.97,-1.31,-3.97,3.97,2.76,5.30,2.65,2.65,2.65
34.92,-1.22,-3.87,-1.22,-3.87,3.87,2.67,5.18,2.65,2.65,2.65
35.27,-1.12,-3.77,-1.12,-3.77,3.77,2.58,5.06,2.65,2.65,2.65
35.62,-1.01,-3.66,-1.02,-3.67,3.67,2.50,4.94,2.66,2.65,2.65
35.97,-0.93,-3.58,-0.92,-3.57,3.58,2.42,4.81,2.65,2.65,2.65
36.33,-0.83,-3.48,-0.82,-3.48,3.48,2.34,4.68,2.65,2.65,2.65
36.70,-0.72,-3.37,-0.73,-3.38,3.38,2.26,4.54,2.66,2.65,2.65
37.06,-0.64,-3.29,-0.63,-3.28,3.28,2.18,4.41,2.65,2.65,2.65
37.43,-0.54,-3.19,-0.54,-3.19,3.19,2.11,4.27,2.65,2.65,2.65
37.81,-0.44,-3.09,-0.45,-3.09,3.09,2.04,4.13,2.65,2.64,2.65
38.19,-0.36,-3.01,-0.35,-2.99,2.99,1.97,3.98,2.64,2.65,2.65
38.57,-0.25,-2.89,-0.25,-2.90,2.90,1.90,3.84,2.65,2.64,2.64
38.95,-0.15,-2.79,-0.16,-2.80,2.80,1.84,3.70,2.65,2.64,2.64
39.34,-0.07,-2.71,-0.06,-2.70,2.70,1.77,3.56,2.63,2.64,2.64
39.74,0.04,-2.60,0.04,-2.60,2.60,1.71,3.41,2.64,2.64,2.64
40.14,0.14,-2.50,0.14,-2.50,2.50,1.65,3.27,2.64,2.63,2.64
40.54,0.24,-2.40,0.24,-2.39,2.39,1.59,3.13,2.63,2.64,2.64
40.94,0.34,-2.29,0.34,-2.29,2.29,1.53,2.99,2.64,2.64,2.63
41.35,0.45,-2.18,0.44,-2.19,2.20,1.48,2.85,2.65,2.64,2.63
41.76,0.53,-2.10,0.54,-2.09,2.10,1.42,2.72,2.63,2.64,2.63
42.18,0.63,-2.00,0.63,-2.00,2.00,1.37,2.58,2.63,2.63,2.63
42.60,0.72,-1.90,0.72,-1.91,1.91,1.31,2.44,2.63,2.63,2.62
43.03,0.80,-1.82,0.81,-1.81,1.81,1.26,2.31,2.61,2.62,2.62
43.46,0.90,-1.72,0.89,-1.73,1.72,1.21,2.17,2.62,2.61,2.62
43.90,0.98,-1.64,0.99,-1.63,1.62,1.16,2.04,2.60,2.61,2.62
44.33,1.08,-1.53,1.09,-1.53,1.52,1.11,1.91,2.60,2.61,2.61
44.78,1.19,-1.42,1.18,-1.42,1.42,1.06,1.78,2.61,2.61,2.61
45.23,1.29,-1.32,1.28,-1.32,1.33,1.01,1.66,2.62,2.61,2.60
45.68,1.37,-1.23,1.38,-1.22,1.23,0.96,1.53,2.60,2.61,2.60
46.13,1.47,-1.13,1.47,-1.13,1.13,0.91,1.40,2.60,2.60,2.60
46.60,1.56,-1.03,1.56,-1.03,1.04,0.87,1.28,2.60,2.60,2.59
47.06,1.64,-0.95,1.65,-0.94,0.94,0.82,1.16,2.59,2.59,2.59
47.53,1.74,-0.84,1.73,-0.85,0.85,0.77,1.04,2.59,2.58,2.58
48.01,1.80,-0.78,1.81,-0.77,0.76,0.72,0.92,2.57,2.57,2.58
48.49,1.90,-0.67,1.89,-0.68,0.68,0.67,0.80,2.58,2.57,2.57
48.97,1.96,-0.61,1.97,-0.60,0.59,0.62,0.68,2.55,2.56,2.57
49.46,2.07,-0.49,2.06,-0.50,0.50,0.58,0.57,2.57,2.56,2.56
49.96,2.13,-0.43,2.14,-0.42,0.42,0.53,0.46,2.55,2.56,2.56
50.46,2.23,-0.32,2.22,-0.33,0.33,0.47,0.34,2.56,2.55,2.55
50.96,2.29,-0.25,2.30,-0.25,0.25,0.42,0.23,2.54,2.54,2.54
51.47,2.37,-0.17,2.37,-0.16,0.16,0.37,0.13,2.53,2.54,2.54
51.99,2.45,-0.08,2.44,-0.08,0.08,0.32,0.02,2.53,2.53,2.53
52.51,2.52,-0.00,2.52,-0.00,-0.00,0.26,-0.08,2.52,2.52,2.52
53.03,2.59,0.08,2.59,0.08,-0.08,0.20,-0.19,2.51,2.51,2.51
53.56,2.67,0.16,2.67,0.16,-0.16,0.14,-0.28,2.51,2.50,2.51
54.10,2.74,0.24,2.74,0.24,-0.24,0.08,-0.38,2.50,2.50,2.50
54.64,2.81,0.32,2.81,0.32,-0.32,0.02,-0.47,2.49,2.49,2.49
55.18,2.88,0.40,2.88,0.40,-0.39,-0.05,-0.57,2.49,2.48,2.48
55.74,2.94,0.47,2.94,0.47,-0.47,-0.12,-0.65,2.47,2.47,2.47
56.29,2.99,0.53,3.00,0.54,-0.54,-0.19,-0.74,2.45,2.46,2.46
56.86,3.06,0.61,3.05,0.60,-0.61,-0.26,-0.82,2.45,2.44,2.45
57.42,3.11,0.67,3.11,0.67,-0.68,-0.34,-0.89,2.43,2.43,2.44
58.00,3.17,0.74,3.17,0.74,-0.75,-0.43,-0.96,2.42,2.43,2.43
58.58,3.23,0.81,3.23,0.81,-0.81,-0.51,-1.03,2.42,2.42,2.42
59.16,3.29,0.89,3.29,0.88,-0.88,-0.60,-1.10,2.42,2.41,2.41
59.76,3.34,0.95,3.33,0.94,-0.94,-0.69,-1.15,2.40,2.40,2.39
60.35,3.37,0.99,3.38,1.00,-1.00,-0.79,-1.21,2.37,2.38,2.38
60.96,3.42,1.05,3.42,1.05,-1.05,-0.89,-1.26,2.37,2.37,2.37
61.57,3.47,1.12,3.46,1.11,-1.11,-0.99,-1.30,2.36,2.35,2.35
62.18,3.50,1.16,3.50,1.16,-1.16,-1.09,-1.34,2.34,2.34,2.34
62.80,3.53,1.21,3.54,1.21,-1.21,-1.20,-1.37,2.32,2.32,2.33
63.43,3.57,1.26,3.57,1.26,-1.26,-1.30,-1.40,2.31,2.31,2.31
64.07,3.61,1.32,3.61,1.31,-1.31,-1.40,-1.42,2.30,2.29,2.29
64.71,3.64,1.36,3.64,1.36,-1.36,-1.49,-1.44,2.28,2.28,2.28
65.35,3.67,1.41,3.67,1.41,-1.41,-1.58,-1.46,2.26,2.26,2.26
66.01,3.70,1.46,3.70,1.45,-1.46,-1.66,-1.46,2.24,2.24,2.24
66.67,3.73,1.50,3.73,1.50,-1.50,-1.72,-1.47,2.23,2.23,2.23
67.33,3.74,1.53,3.75,1.54,-1.54,-1.77,-1.47,2.20,2.21,2.21
68.01,3.78,1.59,3.77,1.58,-1.58,-1.81,-1.47,2.20,2.19,2.19
68.69,3.78,1.61,3.78,1.61,-1.61,-1.83,-1.46,2.17,2.17,2.17
69.37,3.78,1.63,3.79,1.64,-1.64,-1.83,-1.45,2.15,2.15,2.15
70.07,3.78,1.65,3.78,1.65,-1.66,-1.82,-1.44,2.13,2.13,2.13
70.77,3.78,1.67,3.78,1.67,-1.67,-1.78,-1.42,2.11,2.11,2.11
71.48,3.75,1.66,3.76,1.67,-1.67,-1.74,-1.41,2.08,2.09,2.09
72.19,3.74,1.68,3.73,1.67,-1.67,-1.68,-1.39,2.07,2.07,2.07
72.91,3.69,1.65,3.70,1.65,-1.65,-1.62,-1.36,2.04,2.04,2.04
73.64,3.65,1.63,3.65,1.63,-1.63,-1.54,-1.34,2.03,2.03,2.02
74.38,3.59,1.60,3.58,1.59,-1.59,-1.46,-1.32,2.01,2.00,2.00
75.12,3.51,1.54,3.51,1.54,-1.53,-1.38,-1.29,1.98,1.98,1.97
75.87,3.41,1.46,3.42,1.47,-1.46,-1.30,-1.26,1.95,1.96,1.95
76.63,3.32,1.40,3.31,1.39,-1.38,-1.21,-1.24,1.94,1.93,1.92
77.40,3.20,1.31,3.20,1.30,-1.29,-1.13,-1.21,1.91,1.91,1.89
78.17,3.06,1.19,3.07,1.20,-1.19,-1.05,-1.18,1.87,1.88,1.87
78.95,2.93,1.09,2.93,1.09,-1.09,-0.98,-1.15,1.84,1.84,1.84
79.74,2.79,0.98,2.79,0.98,-0.98,-0.91,-1.12,1.81,1.81,1.81
80.54,2.66,0.88,2.66,0.88,-0.89,-0.84,-1.10,1.78,1.77,1.78
81.35,2.53,0.78,2.54,0.78,-0.80,-0.77,-1.07,1.73,1.74,1.75
82.16,2.43,0.71,2.43,0.71,-0.72,-0.71,-1.04,1.71,1.71,1.72
82.98,2.35,0.66,2.35,0.65,-0.67,-0.66,-1.02,1.68,1.68,1.69
83.81,2.27,0.61,2.28,0.61,-0.64,-0.60,-0.99,1.64,1.64,1.66
84.65,2.23,0.60,2.22,0.59,-0.62,-0.56,-0.96,1.61,1.61,1.63
85.50,2.18,0.58,2.20,0.60,-0.61,-0.51,-0.94,1.57,1.58,1.60
86.35,2.18,0.62,2.18,0.61,-0.62,-0.47,-0.91,1.56,1.56,1.57
87.22,2.18,0.65,2.17,0.63,-0.63,-0.43,-0.89,1.55,1.54,1.53
88.09,2.14,0.64,2.15,0.66,-0.63,-0.39,-0.87,1.51,1.52,1.50
88.97,2.12,0.66,2.12,0.65,-0.63,-0.36,-0.85,1.49,1.48,1.46
89.86,2.07,0.64,2.06,0.63,-0.61,-0.33,-0.83,1.46,1.45,1.43
90.76,1.98,0.59,1.99,0.59,-0.58,-0.30,-0.81,1.40,1.41,1.40
91.66,1.90,0.54,1.90,0.54,-0.52,-0.27,-0.79,1.38,1.38,1.36
92.58,1.78,0.46,1.78,0.46,-0.44,-0.25,-0.77,1.34,1.34,1.32
93.51,1.66,0.37,1.65,0.36,-0.35,-0.22,-0.75,1.31,1.31,1.29
94.44,1.50,0.25,1.51,0.25,-0.24,-0.20,-0.73,1.26,1.27,1.25
95.39,1.35,0.14,1.35,0.13,-0.13,-0.18,-0.72,1.22,1.22,1.22
96.34,1.19,0.01,1.19,0.01,-0.01,-0.16,-0.70,1.18,1.17,1.18
97.30,1.02,-0.12,1.03,-0.11,0.10,-0.14,-0.69,1.12,1.13,1.14
98.28,0.90,-0.20,0.89,-0.21,0.19,-0.13,-0.67,1.09,1.09,1.10
99.26,0.77,-0.30,0.77,-0.30,0.28,-0.11,-0.66,1.05,1.05,1.07
100.25,0.67,-0.36,0.68,-0.35,0.34,-0.10,-0.65,1.01,1.02,1.03
101.25,0.60,-0.39,0.60,-0.39,0.38,-0.08,-0.63,0.98,0.98,0.99
102.27,0.55,-0.40,0.54,-0.41,0.40,-0.07,-0.62,0.96,0.95,0.95
103.29,0.50,-0.42,0.51,-0.41,0.41,-0.06,-0.61,0.91,0.92,0.92
104.32,0.49,-0.39,0.49,-0.39,0.39,-0.05,-0.60,0.88,0.88,0.88
105.37,0.48,-0.36,0.48,-0.36,0.36,-0.04,-0.59,0.84,0.84,0.84
106.42,0.48,-0.32,0.48,-0.32,0.32,-0.03,-0.58,0.80,0.80,0.80
107.48,0.49,-0.27,0.49,-0.27,0.26,-0.02,-0.57,0.75,0.75,0.76
108.56,0.52,-0.21,0.52,-0.21,0.19,-0.01,-0.56,0.71,0.71,0.73
109.64,0.55,-0.14,0.56,-0.13,0.12,-0.00,-0.55,0.67,0.68,0.69
110.74,0.60,-0.05,0.60,-0.05,0.05,0.01,-0.54,0.65,0.65,0.65
111.85,0.65,0.04,0.65,0.03,-0.03,0.02,-0.53,0.62,0.62,0.61
112.97,0.68,0.11,0.68,0.11,-0.09,0.02,-0.52,0.59,0.59,0.58
114.10,0.71,0.17,0.71,0.17,-0.15,0.03,-0.51,0.56,0.56,0.54
115.24,0.71,0.21,0.71,0.21,-0.19,0.04,-0.49,0.52,0.52,0.50
116.39,0.71,0.25,0.71,0.24,-0.22,0.04,-0.48,0.49,0.49,0.46
117.55,0.68,0.25,0.68,0.25,-0.24,0.05,-0.47,0.44,0.44,0.43
118.73,0.64,0.25,0.64,0.25,-0.24,0.06,-0.46,0.40,0.40,0.39
119.92,0.59,0.23,0.59,0.24,-0.24,0.06,-0.45,0.35,0.36,0.36
121.12,0.54,0.22,0.54,0.22,-0.23,0.07,-0.43,0.31,0.31,0.32
122.33,0.51,0.22,0.50,0.21,-0.23,0.07,-0.42,0.28,0.27,0.29
123.55,0.46,0.21,0.47,0.22,-0.24,0.08,-0.40,0.23,0.24,0.25
124.79,0.45,0.23,0.45,0.24,-0.25,0.09,-0.39,0.20,0.21,0.22
126.03,0.45,0.27,0.45,0.26,-0.27,0.09,-0.37,0.18,0.18,0.18
127.29,0.45,0.30,0.45,0.30,-0.30,0.10,-0.35,0.15,0.15,0.15
128.57,0.45,0.33,0.46,0.34,-0.33,0.10,-0.33,0.12,0.12,0.12
129.85,0.46,0.37,0.46,0.38,-0.38,0.11,-0.31,0.08,0.09,0.09
131.15,0.49,0.44,0.48,0.43,-0.43,0.11,-0.29,0.06,0.06,0.05
132.46,0.49,0.47,0.50,0.48,-0.48,0.12,-0.27,0.02,0.03,0.02
133.79,0.53,0.54,0.52,0.52,-0.52,0.12,-0.25,0.01,-0.01,-0.01
135.12,0.53,0.57,0.53,0.57,-0.57,0.13,-0.23,-0.04,-0.04,-0.04
136.48,0.54,0.61,0.55,0.62,-0.62,0.13,-0.21,-0.08,-0.07,-0.07
137.84,0.58,0.68,0.57,0.66,-0.66,0.14,-0.18,-0.08,-0.10,-0.10
139.22,0.58,0.70,0.58,0.70,-0.70,0.14,-0.16,-0.12,-0.12,-0.12
140.61,0.58,0.73,0.59,0.74,-0.73,0.15,-0.13,-0.15,-0.15,-0.15
142.02,0.58,0.76,0.58,0.76,-0.76,0.16,-0.11,-0.18,-0.18,-0.18
143.44,0.58,0.79,0.57,0.78,-0.78,0.16,-0.08,-0.20,-0.20,-0.21
144.87,0.56,0.79,0.56,0.79,-0.79,0.17,-0.05,-0.23,-0.23,-0.23
146.32,0.53,0.79,0.54,0.79,-0.79,0.17,-0.03,-0.26,-0.26,-0.26
147.78,0.51,0.79,0.51,0.79,-0.79,0.18,0.00,-0.28,-0.28,-0.28
149.26,0.47,0.78,0.47,0.78,-0.77,0.19,0.03,-0.30,-0.30,-0.31
150.75,0.42,0.75,0.42,0.75,-0.74,0.19,0.06,-0.32,-0.32,-0.33
152.26,0.37,0.72,0.37,0.72,-0.71,0.20,0.09,-0.34,-0.34,-0.35
153.78,0.30,0.67,0.30,0.68,-0.67,0.21,0.12,-0.37,-0.37,-0.37
155.32,0.23,0.63,0.23,0.63,-0.62,0.21,0.15,-0.39,-0.39,-0.40
156.88,0.16,0.58,0.16,0.57,-0.58,0.22,0.18,-0.42,-0.42,-0.42
158.44,0.08,0.52,0.08,0.52,-0.53,0.23,0.21,-0.45,-0.45,-0.44
160.03,0.01,0.47,0.01,0.47,-0.49,0.24,0.25,-0.48,-0.48,-0.46
161.63,-0.05,0.43,-0.05,0.43,-0.45,0.24,0.28,-0.50,-0.50,-0.48
163.24,-0.09,0.41,-0.10,0.40,-0.42,0.25,0.31,-0.51,-0.52,-0.50
164.88,-0.14,0.38,-0.14,0.38,-0.40,0.26,0.34,-0.54,-0.53,-0.52
166.53,-0.18,0.35,-0.17,0.36,-0.37,0.27,0.38,-0.54,-0.54,-0.53
168.19,-0.21,0.34,-0.21,0.34,-0.33,0.28,0.41,-0.54,-0.54,-0.55
169.87,-0.27,0.30,-0.27,0.30,-0.28,0.29,0.44,-0.54,-0.54,-0.57
171.57,-0.33,0.25,-0.34,0.24,-0.20,0.30,0.48,-0.53,-0.55,-0.58
173.29,-0.45,0.15,-0.44,0.15,-0.11,0.31,0.51,-0.56,-0.55,-0.60
175.02,-0.58,0.03,-0.58,0.04,0.01,0.32,0.55,-0.57,-0.57,-0.61
176.77,-0.72,-0.09,-0.73,-0.11,0.14,0.33,0.59,-0.58,-0.60,-0.63
178.54,-0.91,-0.27,-0.90,-0.26,0.27,0.35,0.62,-0.64,-0.63,-0.64
180.32,-1.06,-0.40,-1.06,-0.41,0.38,0.36,0.66,-0.68,-0.68,-0.66
182.13,-1.21,-0.54,-1.21,-0.54,0.48,0.37,0.70,-0.73,-0.73,-0.67
183.95,-1.32,-0.64,-1.31,-0.63,0.54,0.39,0.73,-0.78,-0.77,-0.68
185.79,-1.37,-0.67,-1.35,-0.66,0.58,0.40,0.77,-0.79,-0.77,-0.70
187.65,-1.34,-0.63,-1.34,-0.63,0.59,0.42,0.81,-0.75,-0.75,-0.71
189.52,-1.28,-0.56,-1.29,-0.57,0.58,0.44,0.85,-0.70,-0.71,-0.72
191.42,-1.24,-0.51,-1.24,-0.51,0.56,0.45,0.89,-0.68,-0.68,-0.73
193.33,-1.20,-0.46,-1.21,-0.47,0.53,0.47,0.93,-0.67,-0.68,-0.74
195.27,-1.22,-0.47,-1.22,-0.47,0.51,0.49,0.97,-0.71,-0.71,-0.75
197.22,-1.25,-0.49,-1.25,-0.49,0.51,0.51,1.01,-0.74,-0.74,-0.76
199.19,-1.30,-0.53,-1.30,-0.52,0.53,0.54,1.05,-0.77,-0.77,-0.77
201.18,-1.35,-0.57,-1.35,-0.57,0.57,0.56,1.09,-0.78,-0.79,-0.78
203.19,-1.41,-0.62,-1.41,-0.62,0.62,0.59,1.13,-0.79,-0.79,-0.79
205.23,-1.49,-0.69,-1.48,-0.69,0.68,0.61,1.17,-0.81,-0.80,-0.80
207.28,-1.55,-0.74,-1.56,-0.75,0.75,0.64,1.21,-0.80,-0.81,-0.81
209.35,-1.64,-0.83,-1.63,-0.82,0.82,0.67,1.25,-0.82,-0.81,-0.81
211.44,-1.71,-0.89,-1.71,-0.89,0.89,0.70,1.29,-0.82,-0.82,-0.82
213.56,-1.79,-0.96,-1.79,-0.96,0.95,0.74,1.33,-0.84,-0.83,-0.83
215.69,-1.86,-1.02,-1.86,-1.02,1.01,0.78,1.37,-0.85,-0.84,-0.83
217.85,-1.91,-1.07,-1.92,-1.08,1.07,0.81,1.40,-0.84,-0.85,-0.84
220.03,-1.99,-1.14,-1.98,-1.13,1.12,0.86,1.44,-0.87,-0.86,-0.85
222.23,-2.02,-1.17,-2.02,-1.17,1.16,0.90,1.48,-0.86,-0.86,-0.85
224.45,-2.07,-1.21,-2.07,-1.21,1.21,0.95,1.51,-0.86,-0.86,-0.86
226.70,-2.11,-1.24,-2.11,-1.25,1.25,1.00,1.54,-0.86,-0.86,-0.86
228.96,-2.17,-1.30,-2.16,-1.29,1.30,1.05,1.58,-0.87,-0.86,-0.87
231.25,-2.22,-1.34,-2.22,-1.35,1.36,1.11,1.61,-0.86,-0.86,-0.88
233.57,-2.28,-1.40,-2.29,-1.41,1.42,1.17,1.63,-0.86,-0.87,-0.88
235.90,-2.37,-1.48,-2.36,-1.48,1.49,1.24,1.66,-0.88,-0.87,-0.88
238.26,-2.45,-1.56,-2.45,-1.56,1.57,1.31,1.69,-0.87,-0.88,-0.89
240.64,-2.55,-1.66,-2.55,-1.66,1.67,1.38,1.71,-0.88,-0.89,-0.89
243.05,-2.66,-1.76,-2.65,-1.76,1.77,1.46,1.73,-0.89,-0.89,-0.90
245.48,-2.76,-1.86,-2.76,-1.86,1.87,1.54,1.75,-0.89,-0.89,-0.90
247.93,-2.86,-1.96,-2.87,-1.96,1.96,1.63,1.76,-0.90,-0.90,-0.90
250.41,-2.97,-2.06,-2.97,-2.06,2.05,1.72,1.78,-0.92,-0.92,-0.91
252.92,-3.06,-2.15,-3.06,-2.15,2.12,1.82,1.79,-0.94,-0.93,-0.91
255.45,-3.13,-2.22,-3.13,-2.22,2.18,1.92,1.80,-0.95,-0.95,-0.91
258.00,-3.18,-2.26,-3.17,-2.25,2.22,2.02,1.80,-0.96,-0.95,-0.92
260.58,-3.19,-2.27,-3.19,-2.27,2.25,2.12,1.81,-0.94,-0.94,-0.92
263.19,-3.19,-2.27,-3.19,-2.27,2.27,2.22,1.81,-0.92,-0.92,-0.92
265.82,-3.19,-2.26,-3.19,-2.26,2.28,2.32,1.81,-0.91,-0.90,-0.92
268.48,-3.19,-2.26,-3.20,-2.27,2.29,2.41,1.81,-0.90,-0.90,-0.93
271.16,-3.21,-2.28,-3.21,-2.28,2.30,2.50,1.81,-0.91,-0.91,-0.93
273.87,-3.24,-2.31,-3.23,-2.30,2.31,2.59,1.80,-0.93,-0.93,-0.93
276.61,-3.26,-2.33,-3.26,-2.33,2.32,2.66,1.80,-0.93,-0.94,-0.93
279.38,-3.29,-2.35,-3.29,-2.35,2.35,2.71,1.79,-0.94,-0.94,-0.93
282.17,-3.32,-2.38,-3.32,-2.38,2.38,2.76,1.78,-0.94,-0.94,-0.94
284.99,-3.35,-2.41,-3.35,-2.42,2.42,2.78,1.78,-0.93,-0.93,-0.94
287.84,-3.40,-2.46,-3.39,-2.45,2.46,2.79,1.77,-0.94,-0.93,-0.94
290.72,-3.43,-2.49,-3.44,-2.50,2.51,2.79,1.76,-0.92,-0.93,-0.94
293.63,-3.49,-2.55,-3.49,-2.55,2.56,2.76,1.75,-0.93,-0.93,-0.94
296.57,-3.55,-2.61,-3.55,-2.60,2.61,2.73,1.74,-0.94,-0.94,-0.94
299.53,-3.61,-2.67,-3.61,-2.66,2.67,2.67,1.73,-0.94,-0.94,-0.94
302.53,-3.66,-2.71,-3.66,-2.72,2.72,2.61,1.72,-0.94,-0.95,-0.94
305.55,-3.71,-2.76,-3.71,-2.76,2.76,2.54,1.71,-0.95,-0.95,-0.95
308.61,-3.74,-2.79,-3.74,-2.79,2.80,2.46,1.70,-0.94,-0.94,-0.95
311.69,-3.76,-2.81,-3.76,-2.81,2.82,2.38,1.69,-0.94,-0.94,-0.95
314.81,-3.76,-2.81,-3.77,-2.82,2.82,2.29,1.69,-0.94,-0.94,-0.95
317.96,-3.76,-2.81,-3.75,-2.80,2.80,2.21,1.68,-0.96,-0.95,-0.95
321.14,-3.70,-2.75,-3.70,-2.75,2.75,2.12,1.68,-0.95,-0.96,-0.95
324.35,-3.62,-2.67,-3.63,-2.68,2.66,2.04,1.67,-0.96,-0.97,-0.95
327.59,-3.52,-2.57,-3.51,-2.57,2.53,1.96,1.67,-0.99,-0.98,-0.95
330.87,-3.37,-2.42,-3.36,-2.41,2.36,1.89,1.67,-1.01,-1.00,-0.95
334.18,-3.16,-2.21,-3.16,-2.21,2.16,1.82,1.66,-1.00,-1.00,-0.95
337.52,-2.91,-1.96,-2.91,-1.96,1.92,1.75,1.67,-0.99,-0.99,-0.95
340.90,-2.64,-1.69,-2.63,-1.68,1.66,1.69,1.67,-0.98,-0.97,-0.95
344.30,-2.34,-1.39,-2.35,-1.40,1.40,1.64,1.67,-0.94,-0.95,-0.95
347.75,-2.08,-1.13,-2.08,-1.13,1.15,1.59,1.67,-0.93,-0.93,-0.95
351.23,-1.85,-0.90,-1.84,-0.89,0.93,1.54,1.68,-0.91,-0.90,-0.95
354.74,-1.64,-0.69,-1.65,-0.70,0.77,1.50,1.69,-0.87,-0.88,-0.95
358.28,-1.51,-0.56,-1.52,-0.57,0.66,1.46,1.69,-0.85,-0.86,-0.95
361.87,-1.47,-0.52,-1.48,-0.53,0.60,1.43,1.70,-0.87,-0.88,-0.95
365.49,-1.51,-0.56,-1.52,-0.57,0.60,1.41,1.72,-0.91,-0.91,-0.95
369.14,-1.62,-0.67,-1.61,-0.66,0.65,1.39,1.73,-0.97,-0.95,-0.95
372.83,-1.72,-0.77,-1.72,-0.77,0.74,1.37,1.74,-0.98,-0.98,-0.95
376.56,-1.84,-0.89,-1.84,-0.89,0.85,1.35,1.76,-0.99,-0.98,-0.95
380.33,-1.95,-1.00,-1.95,-1.01,0.98,1.34,1.77,-0.97,-0.98,-0.95
384.13,-2.07,-1.12,-2.07,-1.12,1.10,1.34,1.79,-0.97,-0.97,-0.95
387.97,-2.18,-1.23,-2.18,-1.23,1.22,1.33,1.81,-0.96,-0.96,-0.95
391.85,-2.28,-1.33,-2.28,-1.33,1.32,1.34,1.83,-0.96,-0.96,-0.95
395.77,-2.36,-1.41,-2.37,-1.42,1.42,1.34,1.85,-0.94,-0.95,-0.94
399.73,-2.46,-1.52,-2.45,-1.50,1.50,1.35,1.87,-0.96,-0.95,-0.94
403.72,-2.51,-1.57,-2.52,-1.57,1.57,1.36,1.89,-0.94,-0.94,-0.94
407.76,-2.58,-1.64,-2.58,-1.64,1.64,1.37,1.91,-0.94,-0.94,-0.94
411.84,-2.65,-1.71,-2.64,-1.70,1.70,1.39,1.93,-0.95,-0.94,-0.94
415.96,-2.69,-1.75,-2.69,-1.75,1.75,1.41,1.96,-0.94,-0.94,-0.94
420.12,-2.74,-1.80,-2.73,-1.79,1.79,1.44,1.98,-0.94,-0.94,-0.94
424.32,-2.77,-1.83,-2.77,-1.83,1.84,1.46,2.00,-0.93,-0.94,-0.94
428.56,-2.80,-1.86,-2.81,-1.87,1.87,1.49,2.02,-0.93,-0.94,-0.94
432.85,-2.85,-1.91,-2.84,-1.90,1.90,1.53,2.04,-0.95,-0.94,-0.94
437.18,-2.86,-1.92,-2.86,-1.93,1.93,1.56,2.06,-0.93,-0.94,-0.94
441.55,-2.89,-1.95,-2.89,-1.95,1.95,1.60,2.08,-0.94,-0.94,-0.94
445.96,-2.89,-1.95,-2.90,-1.97,1.96,1.64,2.10,-0.93,-0.94,-0.94
450.42,-2.93,-1.99,-2.92,-1.98,1.98,1.68,2.12,-0.95,-0.94,-0.93
454.93,-2.93,-2.00,-2.92,-1.99,1.99,1.72,2.14,-0.93,-0.93,-0.93
459.48,-2.93,-2.00,-2.93,-2.00,2.01,1.77,2.15,-0.92,-0.93,-0.93
464.07,-2.93,-2.00,-2.94,-2.01,2.02,1.81,2.16,-0.91,-0.92,-0.93
468.71,-2.96,-2.03,-2.96,-2.03,2.03,1.86,2.17,-0.93,-0.93,-0.93
473.40,-2.98,-2.05,-2.97,-2.04,2.04,1.91,2.18,-0.94,-0.93,-0.93
478.13,-2.98,-2.05,-2.98,-2.05,2.05,1.95,2.18,-0.93,-0.94,-0.93
482.91,-2.98,-2.05,-2.98,-2.05,2.05,2.00,2.18,-0.93,-0.93,-0.93
487.74,-2.98,-2.05,-2.98,-2.05,2.05,2.04,2.18,-0.93,-0.93,-0.93
492.62,-2.98,-2.05,-2.98,-2.06,2.05,2.08,2.17,-0.93,-0.93,-0.93
497.55,-2.98,-2.05,-2.97,-2.05,2.04,2.12,2.17,-0.94,-0.93,-0.92
502.52,-2.96,-2.04,-2.96,-2.03,2.04,2.15,2.15,-0.92,-0.92,-0.92
