frequency,raw,error,smoothed,error_smoothed,equalization,parametric_eq,fixed_band_eq,equalized_raw,equalized_smoothed,target
20.00,2.46,5.74,2.46,5.75,-5.72,-10.02,-5.03,-3.26,-3.26,-3.29
20.20,2.71,6.00,2.71,6.00,-5.99,-10.03,-5.16,-3.29,-3.29,-3.30
20.40,2.96,6.26,2.96,6.26,-6.26,-10.04,-5.29,-3.30,-3.30,-3.30
20.61,3.20,6.51,3.21,6.51,-6.53,-10.05,-5.42,-3.33,-3.32,-3.31
20.81,3.47,6.78,3.46,6.77,-6.79,-10.06,-5.56,-3.32,-3.33,-3.31
21.02,3.71,7.02,3.71,7.03,-7.05,-10.07,-5.71,-3.34,-3.34,-3.31
21.23,3.96,7.29,3.96,7.28,-7.30,-10.08,-5.85,-3.34,-3.34,-3.33
21.44,4.20,7.55,4.20,7.54,-7.55,-10.09,-6.01,-3.35,-3.35,-3.35
21.66,4.42,7.79,4.43,7.81,-7.80,-10.10,-6.16,-3.38,-3.37,-3.37
21.87,4.66,8.06,4.66,8.06,-8.05,-10.11,-6.32,-3.39,-3.39,-3.40
22.09,4.88,8.30,4.87,8.29,-8.29,-10.12,-6.48,-3.41,-3.41,-3.42
22.31,5.08,8.52,5.08,8.52,-8.51,-10.13,-6.66,-3.43,-3.44,-3.44
22.54,5.25,8.73,5.26,8.73,-8.73,-10.15,-6.83,-3.48,-3.47,-3.47
22.76,5.44,8.94,5.44,8.94,-8.94,-10.16,-7.01,-3.50,-3.50,-3.50
22.99,5.61,9.14,5.60,9.14,-9.13,-10.18,-7.19,-3.53,-3.53,-3.53
23.22,5.76,9.32,5.76,9.32,-9.32,-10.20,-7.38,-3.56,-3.55,-3.56
23.45,5.92,9.50,5.91,9.49,-9.49,-10.21,-7.57,-3.57,-3.58,-3.58
23.69,6.05,9.65,6.06,9.66,-9.66,-10.23,-7.76,-3.61,-3.60,-3.60
23.92,6.20,9.82,6.20,9.82,-9.82,-10.25,-7.96,-3.62,-3.62,-3.62
24.16,6.34,9.97,6.33,9.97,-9.98,-10.27,-8.17,-3.64,-3.65,-3.63
24.40,6.46,10.11,6.46,10.12,-10.13,-10.30,-8.38,-3.67,-3.66,-3.66
24.65,6.59,10.26,6.59,10.27,-10.27,-10.32,-8.59,-3.69,-3.68,-3.68
24.89,6.72,10.42,6.72,10.41,-10.41,-10.35,-8.81,-3.69,-3.70,-3.70
25.14,6.84,10.56,6.83,10.55,-10.54,-10.38,-9.03,-3.71,-3.71,-3.72
25.39,6.94,10.68,6.94,10.68,-10.67,-10.41,-9.26,-3.73,-3.73,-3.74
25.65,7.04,10.79,7.04,10.79,-10.79,-10.44,-9.49,-3.75,-3.75,-3.75
25.91,7.13,10.90,7.13,10.90,-10.90,-10.48,-9.72,-3.77,-3.77,-3.78
26.16,7.21,11.00,7.21,11.00,-11.00,-10.52,-9.96,-3.79,-3.79,-3.79
26.43,7.29,11.10,7.29,11.10,-11.09,-10.56,-10.19,-3.81,-3.81,-3.81
26.69,7.36,11.18,7.36,11.18,-11.18,-10.61,-10.43,-3.82,-3.82,-3.82
26.96,7.42,11.26,7.42,11.26,-11.26,-10.66,-10.66,-3.85,-3.84,-3.84
27.23,7.48,11.33,7.48,11.33,-11.34,-10.71,-10.90,-3.86,-3.87,-3.85
27.50,7.53,11.40,7.53,11.40,-11.41,-10.77,-11.13,-3.89,-3.88,-3.87
27.77,7.59,11.48,7.59,11.48,-11.48,-10.84,-11.36,-3.90,-3.90,-3.89
28.05,7.64,11.54,7.64,11.55,-11.55,-10.90,-11.59,-3.91,-3.91,-3.91
28.33,7.68,11.61,7.68,11.61,-11.60,-10.97,-11.80,-3.92,-3.92,-3.94
28.62,7.72,11.66,7.71,11.66,-11.65,-11.05,-12.01,-3.93,-3.94,-3.95
28.90,7.74,11.69,7.74,11.70,-11.69,-11.13,-12.20,-3.95,-3.95,-3.95
29.19,7.76,11.73,7.76,11.72,-11.72,-11.21,-12.39,-3.96,-3.96,-3.97
29.48,7.77,11.74,7.77,11.74,-11.74,-11.29,-12.55,-3.98,-3.98,-3.97
29.78,7.77,11.76,7.77,11.76,-11.76,-11.37,-12.71,-3.99,-3.99,-3.99
30.08,7.76,11.76,7.76,11.76,-11.77,-11.45,-12.84,-4.01,-4.01,-4.00
30.38,7.74,11.76,7.74,11.77,-11.77,-11.53,-12.95,-4.03,-4.03,-4.02
30.68,7.72,11.76,7.72,11.76,-11.76,-11.60,-13.04,-4.05,-4.04,-4.05
30.99,7.70,11.76,7.70,11.76,-11.76,-11.67,-13.11,-4.06,-4.06,-4.07
31.30,7.67,11.75,7.67,11.74,-11.74,-11.71,-13.15,-4.08,-4.08,-4.08
31.61,7.63,11.72,7.63,11.73,-11.73,-11.75,-13.17,-4.10,-4.10,-4.09
31.93,7.59,11.71,7.59,11.70,-11.70,-11.77,-13.16,-4.12,-4.12,-4.12
32.24,7.54,11.68,7.54,11.68,-11.68,-11.77,-13.14,-4.14,-4.14,-4.14
32.57,7.49,11.65,7.49,11.65,-11.65,-11.75,-13.09,-4.16,-4.16,-4.16
32.89,7.43,11.60,7.43,11.61,-11.62,-11.72,-13.03,-4.19,-4.18,-4.18
33.22,7.38,11.58,7.38,11.58,-11.58,-11.67,-12.94,-4.20,-4.20,-4.21
33.55,7.32,11.54,7.31,11.54,-11.54,-11.61,-12.84,-4.22,-4.22,-4.22
33.89,7.25,11.50,7.25,11.50,-11.49,-11.54,-12.72,-4.24,-4.24,-4.25
34.23,7.18,11.44,7.18,11.45,-11.44,-11.47,-12.60,-4.26,-4.26,-4.26
34.57,7.11,11.40,7.10,11.39,-11.39,-11.38,-12.46,-4.28,-4.29,-4.30
34.92,7.02,11.34,7.02,11.33,-11.33,-11.30,-12.32,-4.31,-4.31,-4.32
35.27,6.94,11.27,6.94,11.27,-11.27,-11.22,-12.17,-4.34,-4.34,-4.33
35.62,6.86,11.21,6.86,11.21,-11.22,-11.13,-12.01,-4.36,-4.36,-4.35
35.97,6.78,11.16,6.78,11.15,-11.16,-11.05,-11.85,-4.39,-4.38,-4.38
36.33,6.71,11.10,6.70,11.10,-11.11,-10.98,-11.70,-4.40,-4.41,-4.40
36.70,6.63,11.05,6.63,11.06,-11.06,-10.90,-11.54,-4.43,-4.43,-4.42
37.06,6.57,11.02,6.57,11.01,-11.01,-10.83,-11.38,-4.45,-4.45,-4.45
37.43,6.51,10.97,6.51,10.97,-10.97,-10.77,-11.23,-4.47,-4.47,-4.46
37.81,6.45,10.93,6.45,10.94,-10.93,-10.71,-11.08,-4.48,-4.48,-4.49
38.19,6.39,10.90,6.39,10.89,-10.89,-10.65,-10.93,-4.50,-4.50,-4.51
38.57,6.33,10.85,6.33,10.85,-10.85,-10.60,-10.78,-4.53,-4.52,-4.52
38.95,6.27,10.81,6.27,10.81,-10.81,-10.55,-10.65,-4.55,-4.55,-4.55
39.34,6.21,10.78,6.20,10.78,-10.77,-10.50,-10.51,-4.57,-4.57,-4.57
39.74,6.14,10.74,6.14,10.74,-10.74,-10.45,-10.39,-4.60,-4.60,-4.60
40.14,6.08,10.69,6.08,10.69,-10.69,-10.41,-10.26,-4.62,-4.62,-4.62
40.54,6.01,10.65,6.01,10.65,-10.65,-10.37,-10.15,-4.65,-4.64,-4.64
40.94,5.96,10.61,5.96,10.61,-10.61,-10.34,-10.04,-4.65,-4.66,-4.65
41.35,5.90,10.57,5.90,10.57,-10.57,-10.30,-9.94,-4.67,-4.67,-4.68
41.76,5.85,10.54,5.84,10.53,-10.53,-10.27,-9.84,-4.68,-4.69,-4.69
42.18,5.78,10.48,5.78,10.49,-10.49,-10.23,-9.75,-4.71,-4.71,-4.71
42.60,5.72,10.45,5.72,10.44,-10.45,-10.20,-9.67,-4.73,-4.73,-4.73
43.03,5.66,10.39,5.66,10.40,-10.41,-10.17,-9.59,-4.75,-4.75,-4.73
43.46,5.61,10.37,5.61,10.37,-10.37,-10.14,-9.52,-4.76,-4.77,-4.76
43.90,5.55,10.34,5.55,10.34,-10.33,-10.11,-9.46,-4.78,-4.78,-4.79
44.33,5.49,10.31,5.48,10.30,-10.29,-10.09,-9.40,-4.80,-4.81,-4.82
44.78,5.41,10.24,5.41,10.25,-10.24,-10.06,-9.35,-4.83,-4.83,-4.83
45.23,5.34,10.20,5.34,10.20,-10.19,-10.03,-9.31,-4.86,-4.86,-4.86
45.68,5.27,10.14,5.27,10.15,-10.14,-10.00,-9.27,-4.88,-4.88,-4.88
46.13,5.20,10.10,5.20,10.09,-10.09,-9.98,-9.24,-4.89,-4.89,-4.90
46.60,5.13,10.04,5.12,10.03,-10.03,-9.95,-9.22,-4.91,-4.91,-4.91
47.06,5.05,9.97,5.05,9.97,-9.98,-9.92,-9.20,-4.93,-4.93,-4.92
47.53,4.98,9.92,4.98,9.92,-9.92,-9.89,-9.19,-4.95,-4.95,-4.94
48.01,4.91,9.86,4.91,9.87,-9.87,-9.86,-9.18,-4.96,-4.96,-4.96
48.49,4.84,9.82,4.84,9.82,-9.82,-9.84,-9.18,-4.98,-4.98,-4.98
48.97,4.77,9.78,4.76,9.77,-9.77,-9.81,-9.19,-5.00,-5.01,-5.01
49.46,4.69,9.72,4.69,9.73,-9.72,-9.78,-9.20,-5.04,-5.04,-5.04
49.96,4.61,9.67,4.61,9.67,-9.68,-9.75,-9.21,-5.07,-5.06,-5.07
50.46,4.55,9.63,4.55,9.63,-9.63,-9.72,-9.23,-5.09,-5.09,-5.08
50.96,4.49,9.59,4.49,9.60,-9.59,-9.69,-9.25,-5.11,-5.10,-5.10
51.47,4.44,9.57,4.43,9.56,-9.55,-9.65,-9.28,-5.12,-5.12,-5.13
51.99,4.37,9.52,4.37,9.51,-9.52,-9.62,-9.31,-5.15,-5.15,-5.15
52.51,4.31,9.47,4.31,9.48,-9.48,-9.59,-9.34,-5.17,-5.17,-5.16
53.03,4.26,9.43,4.26,9.44,-9.44,-9.55,-9.38,-5.19,-5.18,-5.18
53.56,4.22,9.42,4.21,9.41,-9.41,-9.52,-9.41,-5.19,-5.20,-5.21
54.10,4.17,9.39,4.16,9.38,-9.38,-9.49,-9.45,-5.21,-5.22,-5.23
54.64,4.10,9.34,4.11,9.35,-9.35,-9.45,-9.49,-5.25,-5.24,-5.25
55.18,4.05,9.32,4.06,9.32,-9.33,-9.42,-9.53,-5.28,-5.27,-5.27
55.74,4.02,9.31,4.01,9.30,-9.31,-9.38,-9.56,-5.29,-5.30,-5.29
56.29,3.97,9.28,3.96,9.27,-9.29,-9.35,-9.60,-5.33,-5.33,-5.31
56.86,3.92,9.25,3.92,9.25,-9.27,-9.31,-9.63,-5.35,-5.35,-5.33
57.42,3.88,9.23,3.89,9.24,-9.24,-9.28,-9.66,-5.37,-5.35,-5.35
58.00,3.87,9.23,3.88,9.24,-9.21,-9.24,-9.69,-5.34,-5.33,-5.37
58.58,3.87,9.25,3.85,9.23,-9.18,-9.21,-9.71,-5.31,-5.33,-5.38
59.16,3.81,9.20,3.78,9.18,-9.14,-9.18,-9.73,-5.33,-5.36,-5.39
59.76,3.67,9.09,3.68,9.09,-9.10,-9.15,-9.74,-5.43,-5.42,-5.42
60.35,3.56,9.00,3.58,9.02,-9.06,-9.12,-9.75,-5.51,-5.48,-5.44
60.96,3.51,8.96,3.52,8.98,-9.03,-9.10,-9.75,-5.52,-5.51,-5.46
61.57,3.50,8.99,3.48,8.97,-8.99,-9.07,-9.74,-5.49,-5.51,-5.49
62.18,3.47,8.98,3.45,8.97,-8.96,-9.05,-9.72,-5.49,-5.51,-5.52
62.80,3.41,8.94,3.42,8.96,-8.94,-9.03,-9.70,-5.53,-5.52,-5.53
63.43,3.38,8.94,3.38,8.94,-8.92,-9.01,-9.67,-5.55,-5.54,-5.56
64.07,3.35,8.92,3.34,8.92,-8.91,-8.99,-9.64,-5.57,-5.57,-5.58
64.71,3.32,8.91,3.31,8.91,-8.91,-8.98,-9.60,-5.59,-5.60,-5.59
65.35,3.27,8.88,3.28,8.89,-8.90,-8.97,-9.55,-5.63,-5.62,-5.61
66.01,3.25,8.88,3.25,8.88,-8.89,-8.96,-9.49,-5.64,-5.64,-5.63
66.67,3.23,8.88,3.22,8.87,-8.88,-8.95,-9.43,-5.65,-5.66,-5.65
67.33,3.20,8.87,3.20,8.87,-8.87,-8.94,-9.36,-5.67,-5.67,-5.67
68.01,3.17,8.86,3.17,8.86,-8.86,-8.93,-9.29,-5.69,-5.69,-5.69
68.69,3.16,8.87,3.15,8.86,-8.85,-8.92,-9.22,-5.70,-5.71,-5.71
69.37,3.12,8.85,3.12,8.85,-8.85,-8.92,-9.14,-5.73,-5.73,-5.73
70.07,3.09,8.84,3.09,8.84,-8.84,-8.91,-9.06,-5.75,-5.74,-5.75
70.77,3.06,8.82,3.06,8.82,-8.82,-8.90,-8.98,-5.77,-5.77,-5.77
71.48,3.03,8.82,3.02,8.81,-8.81,-8.90,-8.90,-5.78,-5.79,-5.79
72.19,2.98,8.79,2.98,8.80,-8.79,-8.89,-8.81,-5.82,-5.81,-5.81
72.91,2.94,8.78,2.93,8.78,-8.78,-8.88,-8.73,-5.84,-5.84,-5.85
73.64,2.89,8.76,2.89,8.76,-8.76,-8.88,-8.65,-5.87,-5.87,-5.87
74.38,2.85,8.73,2.85,8.74,-8.74,-8.87,-8.57,-5.90,-5.89,-5.89
75.12,2.82,8.73,2.81,8.72,-8.73,-8.86,-8.49,-5.91,-5.91,-5.91
75.87,2.78,8.71,2.78,8.71,-8.71,-8.85,-8.41,-5.94,-5.94,-5.94
76.63,2.74,8.69,2.74,8.70,-8.70,-8.83,-8.34,-5.96,-5.96,-5.95
77.40,2.70,8.68,2.70,8.69,-8.69,-8.82,-8.27,-5.99,-5.99,-5.98
78.17,2.67,8.69,2.67,8.68,-8.68,-8.81,-8.20,-6.01,-6.01,-6.02
78.95,2.64,8.68,2.63,8.67,-8.66,-8.79,-8.13,-6.03,-6.03,-6.04
79.74,2.60,8.65,2.59,8.66,-8.65,-8.78,-8.07,-6.05,-6.06,-6.06
80.54,2.55,8.63,2.55,8.64,-8.64,-8.76,-8.02,-6.09,-6.09,-6.09
81.35,2.51,8.62,2.51,8.62,-8.63,-8.74,-7.97,-6.12,-6.12,-6.12
82.16,2.47,8.62,2.47,8.61,-8.62,-8.72,-7.92,-6.15,-6.15,-6.15
82.98,2.43,8.60,2.42,8.60,-8.60,-8.70,-7.88,-6.18,-6.18,-6.17
83.81,2.38,8.59,2.38,8.59,-8.59,-8.68,-7.85,-6.21,-6.21,-6.21
84.65,2.34,8.58,2.34,8.58,-8.58,-8.66,-7.82,-6.24,-6.24,-6.24
85.50,2.30,8.56,2.29,8.56,-8.56,-8.64,-7.79,-6.26,-6.27,-6.27
86.35,2.25,8.55,2.25,8.55,-8.54,-8.61,-7.77,-6.30,-6.29,-6.30
87.22,2.20,8.53,2.20,8.53,-8.52,-8.59,-7.76,-6.33,-6.32,-6.33
88.09,2.15,8.51,2.14,8.50,-8.50,-8.56,-7.75,-6.35,-6.36,-6.37
88.97,2.08,8.47,2.08,8.47,-8.47,-8.54,-7.75,-6.39,-6.39,-6.39
89.86,2.02,8.43,2.02,8.44,-8.44,-8.51,-7.75,-6.42,-6.42,-6.42
90.76,1.95,8.41,1.95,8.41,-8.41,-8.48,-7.76,-6.46,-6.46,-6.46
91.66,1.89,8.37,1.88,8.37,-8.37,-8.46,-7.77,-6.49,-6.49,-6.49
92.58,1.82,8.35,1.82,8.34,-8.34,-8.43,-7.79,-6.52,-6.53,-6.53
93.51,1.75,8.30,1.75,8.31,-8.31,-8.40,-7.81,-6.56,-6.56,-6.55
94.44,1.70,8.28,1.69,8.28,-8.29,-8.37,-7.85,-6.59,-6.59,-6.59
95.39,1.64,8.26,1.64,8.26,-8.26,-8.35,-7.88,-6.63,-6.63,-6.62
96.34,1.58,8.25,1.58,8.25,-8.24,-8.32,-7.92,-6.67,-6.66,-6.67
97.30,1.53,8.23,1.53,8.23,-8.23,-8.29,-7.96,-6.70,-6.71,-6.71
98.28,1.48,8.22,1.48,8.22,-8.22,-8.26,-8.01,-6.74,-6.75,-6.74
99.26,1.43,8.21,1.43,8.22,-8.22,-8.23,-8.06,-6.79,-6.79,-6.78
100.25,1.40,8.22,1.39,8.21,-8.22,-8.21,-8.12,-6.82,-6.83,-6.82
101.25,1.36,8.22,1.36,8.22,-8.22,-8.18,-8.18,-6.87,-6.87,-6.86
102.27,1.33,8.22,1.33,8.23,-8.23,-8.15,-8.24,-6.90,-6.90,-6.90
103.29,1.30,8.25,1.30,8.25,-8.24,-8.13,-8.31,-6.95,-6.94,-6.96
104.32,1.28,8.26,1.27,8.26,-8.26,-8.10,-8.38,-6.98,-6.98,-6.98
105.37,1.25,8.28,1.25,8.28,-8.27,-8.07,-8.45,-7.02,-7.03,-7.03
106.42,1.22,8.29,1.22,8.29,-8.29,-8.05,-8.52,-7.07,-7.07,-7.07
107.48,1.19,8.30,1.19,8.30,-8.31,-8.02,-8.60,-7.12,-7.12,-7.11
108.56,1.16,8.32,1.16,8.32,-8.32,-8.00,-8.67,-7.16,-7.16,-7.17
109.64,1.14,8.34,1.13,8.34,-8.34,-7.98,-8.74,-7.20,-7.21,-7.21
110.74,1.11,8.36,1.10,8.36,-8.36,-7.95,-8.81,-7.25,-7.25,-7.25
111.85,1.07,8.36,1.07,8.37,-8.37,-7.93,-8.88,-7.31,-7.30,-7.29
112.97,1.04,8.40,1.04,8.39,-8.39,-7.91,-8.95,-7.35,-7.35,-7.36
114.10,1.01,8.40,1.01,8.41,-8.41,-7.89,-9.01,-7.40,-7.40,-7.40
115.24,0.98,8.42,0.98,8.42,-8.42,-7.87,-9.07,-7.44,-7.44,-7.44
116.39,0.95,8.44,0.94,8.43,-8.43,-7.86,-9.12,-7.48,-7.49,-7.49
117.55,0.90,8.43,0.90,8.44,-8.43,-7.84,-9.17,-7.54,-7.53,-7.54
118.73,0.86,8.44,0.86,8.44,-8.43,-7.82,-9.21,-7.58,-7.57,-7.58
119.92,0.82,8.44,0.81,8.44,-8.43,-7.81,-9.24,-7.61,-7.62,-7.62
121.12,0.76,8.42,0.76,8.43,-8.42,-7.80,-9.27,-7.66,-7.66,-7.67
122.33,0.70,8.41,0.70,8.40,-8.41,-7.79,-9.28,-7.71,-7.71,-7.71
123.55,0.64,8.38,0.64,8.38,-8.39,-7.77,-9.30,-7.75,-7.75,-7.75
124.79,0.58,8.36,0.58,8.37,-8.38,-7.77,-9.29,-7.80,-7.79,-7.78
126.03,0.53,8.35,0.53,8.35,-8.36,-7.76,-9.29,-7.83,-7.83,-7.82
127.29,0.48,8.35,0.47,8.34,-8.34,-7.75,-9.27,-7.87,-7.87,-7.87
128.57,0.42,8.33,0.42,8.33,-8.33,-7.74,-9.24,-7.91,-7.91,-7.91
129.85,0.37,8.32,0.36,8.32,-8.31,-7.74,-9.21,-7.94,-7.95,-7.95
131.15,0.31,8.29,0.31,8.30,-8.30,-7.74,-9.17,-7.99,-7.98,-7.99
132.46,0.26,8.28,0.26,8.28,-8.28,-7.74,-9.11,-8.02,-8.02,-8.02
133.79,0.22,8.27,0.21,8.27,-8.26,-7.74,-9.06,-8.05,-8.05,-8.05
135.12,0.17,8.26,0.16,8.25,-8.25,-7.74,-8.99,-8.08,-8.09,-8.09
136.48,0.11,8.22,0.11,8.23,-8.24,-7.74,-8.93,-8.13,-8.12,-8.11
137.84,0.07,8.21,0.07,8.21,-8.22,-7.74,-8.85,-8.16,-8.15,-8.14
139.22,0.04,8.21,0.04,8.20,-8.21,-7.75,-8.78,-8.18,-8.18,-8.17
140.61,0.01,8.21,0.01,8.20,-8.20,-7.75,-8.70,-8.20,-8.19,-8.20
142.02,-0.01,8.19,-0.01,8.20,-8.19,-7.76,-8.62,-8.20,-8.21,-8.21
143.44,-0.04,8.19,-0.04,8.19,-8.18,-7.77,-8.53,-8.22,-8.22,-8.23
144.87,-0.07,8.18,-0.08,8.18,-8.17,-7.78,-8.45,-8.24,-8.24,-8.25
146.32,-0.11,8.16,-0.11,8.16,-8.15,-7.79,-8.36,-8.27,-8.27,-8.27
147.78,-0.15,8.13,-0.15,8.14,-8.14,-7.80,-8.28,-8.29,-8.29,-8.28
149.26,-0.18,8.12,-0.19,8.12,-8.12,-7.82,-8.19,-8.30,-8.31,-8.30
150.75,-0.23,8.10,-0.23,8.10,-8.10,-7.83,-8.11,-8.33,-8.33,-8.33
152.26,-0.26,8.09,-0.26,8.09,-8.08,-7.84,-8.03,-8.35,-8.35,-8.35
153.78,-0.29,8.07,-0.30,8.07,-8.07,-7.86,-7.95,-8.36,-8.36,-8.36
155.32,-0.33,8.05,-0.33,8.05,-8.05,-7.88,-7.88,-8.38,-8.38,-8.39
156.88,-0.36,8.04,-0.36,8.04,-8.04,-7.89,-7.81,-8.40,-8.40,-8.40
158.44,-0.39,8.03,-0.39,8.03,-8.03,-7.91,-7.74,-8.42,-8.42,-8.42
160.03,-0.42,8.02,-0.42,8.02,-8.02,-7.93,-7.68,-8.45,-8.45,-8.44
161.63,-0.45,8.02,-0.45,8.02,-8.02,-7.95,-7.62,-8.47,-8.47,-8.47
163.24,-0.47,8.02,-0.47,8.02,-8.02,-7.96,-7.56,-8.50,-8.49,-8.49
164.88,-0.48,8.02,-0.48,8.02,-8.03,-7.98,-7.52,-8.51,-8.51,-8.50
166.53,-0.49,8.03,-0.49,8.03,-8.04,-8.00,-7.47,-8.53,-8.53,-8.52
168.19,-0.50,8.05,-0.50,8.05,-8.05,-8.02,-7.43,-8.55,-8.55,-8.55
169.87,-0.51,8.06,-0.51,8.06,-8.05,-8.04,-7.39,-8.56,-8.56,-8.57
171.57,-0.52,8.07,-0.53,8.07,-8.05,-8.06,-7.37,-8.58,-8.58,-8.60
173.29,-0.55,8.06,-0.55,8.06,-8.05,-8.08,-7.34,-8.60,-8.60,-8.61
175.02,-0.58,8.06,-0.59,8.05,-8.04,-8.09,-7.32,-8.63,-8.63,-8.64
176.77,-0.64,8.03,-0.64,8.04,-8.03,-8.11,-7.31,-8.68,-8.67,-8.68
178.54,-0.69,8.02,-0.69,8.02,-8.02,-8.13,-7.30,-8.71,-8.71,-8.71
180.32,-0.74,7.99,-0.74,7.99,-8.00,-8.14,-7.30,-8.74,-8.74,-8.74
182.13,-0.79,7.97,-0.79,7.98,-7.98,-8.16,-7.30,-8.77,-8.77,-8.76
183.95,-0.84,7.96,-0.84,7.96,-7.96,-8.17,-7.31,-8.81,-8.80,-8.81
185.79,-0.88,7.95,-0.88,7.95,-7.95,-8.19,-7.32,-8.83,-8.83,-8.83
187.65,-0.92,7.94,-0.92,7.94,-7.94,-8.20,-7.34,-8.86,-8.86,-8.86
189.52,-0.96,7.92,-0.96,7.93,-7.93,-8.21,-7.36,-8.90,-8.89,-8.89
191.42,-0.98,7.94,-0.99,7.93,-7.93,-8.22,-7.39,-8.91,-8.92,-8.92
193.33,-1.01,7.93,-1.02,7.93,-7.93,-8.22,-7.42,-8.94,-8.95,-8.94
195.27,-1.04,7.93,-1.04,7.93,-7.93,-8.23,-7.45,-8.98,-8.97,-8.97
197.22,-1.06,7.93,-1.06,7.94,-7.94,-8.23,-7.50,-9.00,-9.00,-9.00
199.19,-1.07,7.96,-1.08,7.95,-7.95,-8.24,-7.54,-9.02,-9.02,-9.04
201.18,-1.09,7.95,-1.09,7.96,-7.95,-8.24,-7.59,-9.05,-9.05,-9.05
203.19,-1.11,7.95,-1.11,7.96,-7.96,-8.24,-7.64,-9.07,-9.07,-9.07
205.23,-1.12,7.98,-1.12,7.97,-7.97,-8.23,-7.69,-9.09,-9.09,-9.10
207.28,-1.12,7.97,-1.13,7.98,-7.98,-8.23,-7.75,-9.10,-9.10,-9.10
209.35,-1.13,7.99,-1.13,8.00,-7.99,-8.22,-7.81,-9.12,-9.12,-9.13
211.44,-1.13,8.02,-1.14,8.01,-8.00,-8.21,-7.87,-9.13,-9.14,-9.16
213.56,-1.15,8.01,-1.15,8.02,-8.02,-8.20,-7.93,-9.17,-9.17,-9.16
215.69,-1.14,8.02,-1.14,8.03,-8.04,-8.19,-7.99,-9.19,-9.19,-9.16
217.85,-1.13,8.05,-1.13,8.05,-8.07,-8.17,-8.05,-9.20,-9.20,-9.18
220.03,-1.10,8.09,-1.10,8.09,-8.10,-8.15,-8.11,-9.20,-9.20,-9.19
222.23,-1.06,8.13,-1.06,8.13,-8.13,-8.13,-8.17,-9.20,-9.20,-9.20
224.45,-1.01,8.17,-1.01,8.17,-8.17,-8.11,-8.22,-9.18,-9.18,-9.18
226.70,-0.97,8.21,-0.97,8.21,-8.20,-8.09,-8.27,-9.17,-9.17,-9.18
228.96,-0.93,8.25,-0.94,8.24,-8.23,-8.06,-8.32,-9.16,-9.17,-9.18
231.25,-0.91,8.25,-0.91,8.26,-8.25,-8.03,-8.36,-9.17,-9.16,-9.17
233.57,-0.89,8.27,-0.89,8.27,-8.27,-8.00,-8.40,-9.16,-9.16,-9.16
235.90,-0.88,8.27,-0.88,8.27,-8.27,-7.97,-8.43,-9.15,-9.15,-9.15
238.26,-0.87,8.27,-0.87,8.26,-8.26,-7.94,-8.46,-9.14,-9.14,-9.14
240.64,-0.88,8.24,-0.88,8.25,-8.25,-7.90,-8.47,-9.13,-9.12,-9.12
243.05,-0.88,8.22,-0.89,8.21,-8.22,-7.87,-8.49,-9.10,-9.11,-9.11
245.48,-0.91,8.17,-0.91,8.17,-8.18,-7.83,-8.48,-9.09,-9.09,-9.08
247.93,-0.94,8.11,-0.94,8.13,-8.13,-7.79,-8.48,-9.07,-9.06,-9.06
250.41,-0.97,8.08,-0.98,8.06,-8.06,-7.75,-8.46,-9.03,-9.03,-9.05
252.92,-1.02,7.99,-1.03,7.99,-7.97,-7.71,-8.44,-8.99,-9.00,-9.02
255.45,-1.10,7.89,-1.09,7.90,-7.86,-7.66,-8.40,-8.97,-8.96,-8.99
258.00,-1.18,7.79,-1.19,7.78,-7.75,-7.62,-8.36,-8.93,-8.94,-8.98
260.58,-1.29,7.66,-1.30,7.65,-7.63,-7.57,-8.30,-8.92,-8.93,-8.95
263.19,-1.43,7.49,-1.43,7.50,-7.51,-7.52,-8.25,-8.94,-8.94,-8.92
265.82,-1.55,7.36,-1.54,7.36,-7.40,-7.47,-8.18,-8.95,-8.95,-8.91
268.48,-1.63,7.24,-1.63,7.25,-7.31,-7.43,-8.11,-8.94,-8.94,-8.87
271.16,-1.67,7.17,-1.67,7.18,-7.23,-7.38,-8.02,-8.90,-8.90,-8.85
273.87,-1.68,7.15,-1.68,7.15,-7.17,-7.33,-7.94,-8.85,-8.85,-8.83
276.61,-1.67,7.13,-1.67,7.13,-7.12,-7.28,-7.85,-8.80,-8.80,-8.80
279.38,-1.66,7.12,-1.67,7.12,-7.09,-7.22,-7.75,-8.75,-8.76,-8.79
282.17,-1.66,7.10,-1.66,7.09,-7.07,-7.17,-7.65,-8.73,-8.73,-8.76
284.99,-1.67,7.06,-1.67,7.06,-7.05,-7.12,-7.55,-8.72,-8.72,-8.73
287.84,-1.68,7.02,-1.68,7.03,-7.02,-7.07,-7.45,-8.70,-8.70,-8.71
290.72,-1.69,6.99,-1.70,6.98,-6.99,-7.02,-7.35,-8.68,-8.68,-8.68
293.63,-1.71,6.94,-1.71,6.94,-6.94,-6.96,-7.24,-8.66,-8.65,-8.65
296.57,-1.73,6.89,-1.73,6.90,-6.89,-6.91,-7.14,-8.63,-8.62,-8.63
299.53,-1.75,6.85,-1.76,6.84,-6.84,-6.86,-7.03,-8.59,-8.60,-8.60
302.53,-1.79,6.79,-1.79,6.78,-6.78,-6.81,-6.93,-8.57,-8.57,-8.58
305.55,-1.82,6.71,-1.82,6.72,-6.72,-6.75,-6.83,-8.54,-8.54,-8.53
308.61,-1.85,6.65,-1.85,6.65,-6.65,-6.70,-6.73,-8.50,-8.50,-8.50
311.69,-1.88,6.58,-1.89,6.58,-6.58,-6.65,-6.63,-8.46,-8.46,-8.47
314.81,-1.92,6.50,-1.92,6.51,-6.51,-6.60,-6.53,-8.43,-8.43,-8.42
317.96,-1.96,6.44,-1.96,6.44,-6.44,-6.55,-6.44,-8.40,-8.40,-8.40
321.14,-2.00,6.37,-2.01,6.37,-6.37,-6.50,-6.35,-8.37,-8.37,-8.37
324.35,-2.05,6.29,-2.05,6.30,-6.30,-6.45,-6.26,-8.35,-8.35,-8.35
327.59,-2.08,6.23,-2.09,6.23,-6.24,-6.40,-6.18,-8.32,-8.32,-8.32
330.87,-2.12,6.17,-2.12,6.17,-6.18,-6.35,-6.10,-8.30,-8.30,-8.29
334.18,-2.15,6.12,-2.15,6.12,-6.12,-6.30,-6.03,-8.27,-8.27,-8.27
337.52,-2.18,6.07,-2.18,6.07,-6.06,-6.25,-5.95,-8.24,-8.24,-8.25
340.90,-2.21,6.01,-2.22,6.01,-6.01,-6.20,-5.89,-8.22,-8.22,-8.22
344.30,-2.25,5.95,-2.25,5.95,-5.95,-6.16,-5.82,-8.20,-8.20,-8.21
347.75,-2.29,5.89,-2.29,5.90,-5.90,-6.11,-5.76,-8.19,-8.19,-8.19
351.23,-2.31,5.86,-2.32,5.85,-5.85,-6.07,-5.71,-8.16,-8.17,-8.17
354.74,-2.34,5.81,-2.34,5.81,-5.81,-6.02,-5.66,-8.15,-8.15,-8.15
358.28,-2.37,5.76,-2.37,5.76,-5.76,-5.98,-5.61,-8.14,-8.13,-8.13
361.87,-2.39,5.72,-2.39,5.72,-5.73,-5.93,-5.57,-8.12,-8.12,-8.11
365.49,-2.41,5.68,-2.41,5.68,-5.69,-5.89,-5.53,-8.10,-8.10,-8.09
369.14,-2.42,5.66,-2.42,5.66,-5.66,-5.85,-5.49,-8.08,-8.08,-8.09
372.83,-2.43,5.63,-2.43,5.64,-5.63,-5.81,-5.46,-8.07,-8.06,-8.07
376.56,-2.43,5.63,-2.44,5.62,-5.61,-5.77,-5.44,-8.04,-8.04,-8.06
380.33,-2.44,5.59,-2.44,5.59,-5.59,-5.73,-5.41,-8.03,-8.03,-8.03
384.13,-2.44,5.57,-2.44,5.57,-5.57,-5.69,-5.40,-8.01,-8.01,-8.01
387.97,-2.45,5.54,-2.45,5.54,-5.55,-5.66,-5.38,-8.00,-8.00,-7.99
391.85,-2.44,5.54,-2.45,5.53,-5.53,-5.62,-5.37,-7.98,-7.98,-7.98
395.77,-2.44,5.51,-2.44,5.52,-5.52,-5.59,-5.36,-7.96,-7.96,-7.95
399.73,-2.43,5.50,-2.43,5.50,-5.50,-5.55,-5.35,-7.93,-7.93,-7.93
403.72,-2.42,5.49,-2.43,5.48,-5.48,-5.52,-5.35,-7.91,-7.91,-7.91
407.76,-2.42,5.47,-2.42,5.47,-5.47,-5.49,-5.35,-7.89,-7.89,-7.90
411.84,-2.42,5.44,-2.41,5.45,-5.45,-5.45,-5.35,-7.88,-7.87,-7.87
415.96,-2.40,5.44,-2.41,5.44,-5.44,-5.42,-5.36,-7.84,-7.85,-7.85
420.12,-2.40,5.43,-2.40,5.42,-5.43,-5.39,-5.36,-7.83,-7.83,-7.83
424.32,-2.40,5.41,-2.40,5.41,-5.41,-5.37,-5.37,-7.81,-7.81,-7.81
428.56,-2.39,5.40,-2.39,5.40,-5.40,-5.34,-5.38,-7.79,-7.79,-7.79
