frequency,raw,error,smoothed,error_smoothed,equalization,parametric_eq,fixed_band_eq,equalized_raw,equalized_smoothed,target
20.00,-10.39,-7.18,-10.39,-7.18,5.98,5.36,1.31,-4.41,-4.41,-3.21
20.20,-10.23,-7.11,-10.23,-7.11,5.99,5.31,1.36,-4.24,-4.24,-3.12
20.40,-10.07,-7.04,-10.07,-7.03,6.00,5.26,1.40,-4.07,-4.07,-3.03
20.61,-9.91,-6.95,-9.91,-6.95,6.01,5.22,1.44,-3.90,-3.90,-2.97
20.81,-9.75,-6.88,-9.75,-6.88,6.02,5.17,1.49,-3.73,-3.74,-2.87
21.02,-9.59,-6.80,-9.59,-6.79,6.02,5.12,1.53,-3.57,-3.58,-2.80
21.23,-9.44,-6.71,-9.44,-6.71,6.02,5.07,1.58,-3.43,-3.42,-2.74
21.44,-9.28,-6.60,-9.28,-6.61,6.01,5.02,1.63,-3.27,-3.27,-2.68
21.66,-9.12,-6.52,-9.12,-6.51,6.02,4.97,1.68,-3.10,-3.10,-2.61
21.87,-8.96,-6.40,-8.96,-6.40,6.02,4.92,1.73,-2.94,-2.94,-2.56
22.09,-8.80,-6.29,-8.80,-6.30,6.01,4.87,1.79,-2.79,-2.79,-2.51
22.31,-8.64,-6.18,-8.64,-6.18,5.99,4.82,1.84,-2.65,-2.65,-2.46
22.54,-8.48,-6.07,-8.48,-6.07,5.95,4.76,1.90,-2.54,-2.53,-2.41
22.76,-8.32,-5.95,-8.32,-5.95,5.89,4.71,1.96,-2.43,-2.43,-2.37
22.99,-8.16,-5.83,-8.16,-5.83,5.81,4.65,2.02,-2.35,-2.35,-2.33
23.22,-8.00,-5.71,-8.00,-5.71,5.72,4.60,2.08,-2.28,-2.28,-2.29
23.45,-7.83,-5.59,-7.84,-5.59,5.61,4.54,2.14,-2.22,-2.22,-2.24
23.69,-7.67,-5.47,-7.67,-5.47,5.49,4.48,2.20,-2.18,-2.18,-2.20
23.92,-7.51,-5.35,-7.51,-5.35,5.37,4.42,2.27,-2.14,-2.14,-2.16
24.16,-7.35,-5.24,-7.35,-5.24,5.24,4.36,2.33,-2.11,-2.11,-2.11
24.40,-7.19,-5.12,-7.19,-5.11,5.11,4.30,2.40,-2.08,-2.08,-2.07
24.65,-7.03,-4.99,-7.03,-4.99,4.99,4.24,2.47,-2.04,-2.04,-2.04
24.89,-6.87,-4.87,-6.87,-4.87,4.87,4.18,2.53,-2.00,-2.00,-2.00
25.14,-6.71,-4.75,-6.71,-4.75,4.75,4.12,2.60,-1.96,-1.96,-1.96
25.39,-6.55,-4.62,-6.55,-4.63,4.62,4.05,2.67,-1.92,-1.93,-1.92
25.65,-6.39,-4.51,-6.39,-4.50,4.50,3.99,2.74,-1.89,-1.89,-1.89
25.91,-6.23,-4.38,-6.23,-4.38,4.38,3.92,2.80,-1.86,-1.85,-1.86
26.16,-6.07,-4.25,-6.07,-4.25,4.25,3.86,2.87,-1.81,-1.82,-1.82
26.43,-5.91,-4.13,-5.91,-4.13,4.13,3.79,2.93,-1.78,-1.78,-1.79
26.69,-5.75,-4.00,-5.76,-4.01,4.01,3.72,3.00,-1.74,-1.75,-1.75
26.96,-5.60,-3.89,-5.60,-3.89,3.89,3.65,3.06,-1.72,-1.71,-1.71
27.23,-5.44,-3.76,-5.44,-3.77,3.76,3.58,3.12,-1.68,-1.68,-1.68
27.50,-5.28,-3.64,-5.29,-3.64,3.64,3.51,3.18,-1.64,-1.65,-1.64
27.77,-5.13,-3.52,-5.13,-3.52,3.52,3.43,3.23,-1.61,-1.61,-1.61
28.05,-4.97,-3.40,-4.97,-3.39,3.39,3.36,3.28,-1.58,-1.58,-1.57
28.33,-4.82,-3.27,-4.82,-3.27,3.27,3.29,3.32,-1.55,-1.55,-1.55
28.62,-4.66,-3.15,-4.66,-3.15,3.15,3.21,3.36,-1.52,-1.51,-1.52
28.90,-4.50,-3.03,-4.51,-3.03,3.03,3.13,3.40,-1.47,-1.48,-1.48
29.19,-4.35,-2.90,-4.35,-2.91,2.91,3.06,3.43,-1.44,-1.44,-1.45
29.48,-4.20,-2.80,-4.20,-2.79,2.80,2.98,3.45,-1.40,-1.40,-1.40
29.78,-4.05,-2.67,-4.06,-2.68,2.68,2.90,3.47,-1.37,-1.37,-1.38
30.08,-3.91,-2.57,-3.91,-2.57,2.57,2.81,3.47,-1.34,-1.34,-1.34
30.38,-3.77,-2.46,-3.77,-2.46,2.46,2.73,3.48,-1.31,-1.31,-1.31
30.68,-3.63,-2.36,-3.64,-2.36,2.36,2.65,3.47,-1.28,-1.28,-1.27
30.99,-3.50,-2.25,-3.50,-2.25,2.25,2.57,3.46,-1.25,-1.25,-1.25
31.30,-3.36,-2.15,-3.36,-2.14,2.14,2.48,3.44,-1.22,-1.22,-1.22
31.61,-3.22,-2.04,-3.22,-2.04,2.03,2.39,3.41,-1.19,-1.19,-1.19
31.93,-3.08,-1.92,-3.09,-1.92,1.92,2.31,3.37,-1.16,-1.16,-1.16
32.24,-2.95,-1.81,-2.95,-1.81,1.81,2.22,3.33,-1.14,-1.13,-1.14
32.57,-2.81,-1.70,-2.81,-1.70,1.70,2.13,3.28,-1.11,-1.11,-1.11
32.89,-2.67,-1.60,-2.67,-1.59,1.59,2.04,3.22,-1.08,-1.08,-1.07
33.22,-2.54,-1.49,-2.54,-1.48,1.49,1.94,3.15,-1.05,-1.05,-1.05
33.55,-2.41,-1.37,-2.41,-1.37,1.38,1.85,3.08,-1.03,-1.03,-1.04
33.89,-2.28,-1.26,-2.28,-1.27,1.27,1.76,3.00,-1.01,-1.01,-1.02
34.23,-2.15,-1.16,-2.16,-1.16,1.16,1.66,2.91,-0.99,-0.99,-0.99
34.57,-2.03,-1.06,-2.03,-1.05,1.05,1.57,2.82,-0.98,-0.98,-0.97
34.92,-1.90,-0.94,-1.90,-0.95,0.94,1.47,2.73,-0.96,-0.96,-0.96
35.27,-1.77,-0.84,-1.78,-0.83,0.83,1.37,2.63,-0.94,-0.95,-0.94
35.62,-1.65,-0.72,-1.65,-0.72,0.72,1.27,2.52,-0.93,-0.93,-0.93
35.97,-1.52,-0.60,-1.52,-0.61,0.61,1.17,2.41,-0.91,-0.92,-0.92
36.33,-1.40,-0.50,-1.40,-0.49,0.49,1.07,2.30,-0.91,-0.90,-0.90
36.70,-1.27,-0.38,-1.27,-0.38,0.38,0.97,2.19,-0.89,-0.89,-0.90
37.06,-1.15,-0.26,-1.15,-0.27,0.27,0.86,2.07,-0.88,-0.88,-0.89
37.43,-1.03,-0.16,-1.03,-0.15,0.16,0.76,1.95,-0.87,-0.87,-0.87
37.81,-0.91,-0.05,-0.91,-0.05,0.04,0.65,1.83,-0.87,-0.87,-0.86
38.19,-0.79,0.06,-0.79,0.06,-0.07,0.55,1.70,-0.86,-0.86,-0.86
38.57,-0.68,0.17,-0.68,0.18,-0.18,0.44,1.58,-0.86,-0.86,-0.85
38.95,-0.56,0.29,-0.56,0.29,-0.29,0.33,1.45,-0.85,-0.85,-0.85
39.34,-0.45,0.41,-0.45,0.40,-0.40,0.22,1.32,-0.85,-0.85,-0.86
39.74,-0.34,0.51,-0.34,0.51,-0.51,0.11,1.20,-0.85,-0.85,-0.85
40.14,-0.24,0.61,-0.24,0.61,-0.61,0.00,1.07,-0.85,-0.85,-0.85
40.54,-0.14,0.71,-0.14,0.72,-0.72,-0.11,0.94,-0.86,-0.85,-0.86
40.94,-0.03,0.82,-0.03,0.82,-0.82,-0.22,0.81,-0.85,-0.85,-0.85
41.35,0.07,0.92,0.07,0.92,-0.92,-0.33,0.68,-0.85,-0.85,-0.85
41.76,0.17,1.02,0.17,1.02,-1.02,-0.44,0.55,-0.85,-0.85,-0.85
42.18,0.27,1.11,0.27,1.12,-1.12,-0.56,0.42,-0.85,-0.85,-0.84
42.60,0.37,1.22,0.37,1.21,-1.22,-0.67,0.28,-0.85,-0.85,-0.85
43.03,0.47,1.31,0.47,1.31,-1.31,-0.78,0.15,-0.84,-0.85,-0.84
43.46,0.56,1.40,0.56,1.41,-1.41,-0.90,0.02,-0.85,-0.85,-0.85
43.90,0.65,1.51,0.65,1.50,-1.50,-1.01,-0.11,-0.86,-0.86,-0.86
44.33,0.73,1.60,0.73,1.60,-1.60,-1.12,-0.24,-0.87,-0.87,-0.87
44.78,0.82,1.69,0.82,1.69,-1.69,-1.24,-0.37,-0.87,-0.87,-0.87
45.23,0.90,1.77,0.90,1.78,-1.77,-1.35,-0.51,-0.88,-0.88,-0.88
45.68,0.98,1.86,0.98,1.86,-1.86,-1.46,-0.64,-0.88,-0.88,-0.88
46.13,1.06,1.95,1.06,1.94,-1.94,-1.57,-0.77,-0.88,-0.88,-0.89
46.60,1.13,2.01,1.13,2.02,-2.01,-1.68,-0.90,-0.88,-0.88,-0.88
47.06,1.20,2.08,1.20,2.08,-2.09,-1.79,-1.03,-0.89,-0.89,-0.88
47.53,1.27,2.16,1.27,2.15,-2.16,-1.90,-1.17,-0.89,-0.89,-0.89
48.01,1.34,2.21,1.34,2.22,-2.23,-2.01,-1.30,-0.89,-0.89,-0.87
48.49,1.40,2.29,1.40,2.29,-2.29,-2.12,-1.43,-0.89,-0.89,-0.89
48.97,1.46,2.36,1.46,2.35,-2.35,-2.22,-1.56,-0.89,-0.89,-0.90
49.46,1.51,2.41,1.51,2.42,-2.41,-2.32,-1.69,-0.90,-0.90,-0.90
49.96,1.57,2.48,1.57,2.47,-2.46,-2.43,-1.82,-0.90,-0.90,-0.91
50.46,1.62,2.51,1.62,2.52,-2.51,-2.52,-1.95,-0.90,-0.90,-0.89
50.96,1.67,2.56,1.67,2.56,-2.56,-2.62,-2.08,-0.89,-0.89,-0.89
51.47,1.71,2.61,1.71,2.60,-2.60,-2.72,-2.21,-0.89,-0.89,-0.90
51.99,1.75,2.63,1.75,2.64,-2.63,-2.81,-2.34,-0.89,-0.88,-0.89
52.51,1.79,2.66,1.79,2.67,-2.67,-2.89,-2.46,-0.88,-0.88,-0.88
53.03,1.83,2.69,1.82,2.69,-2.69,-2.98,-2.59,-0.87,-0.87,-0.86
53.56,1.86,2.72,1.86,2.72,-2.72,-3.06,-2.71,-0.86,-0.87,-0.86
54.10,1.88,2.74,1.88,2.74,-2.75,-3.14,-2.83,-0.87,-0.86,-0.86
54.64,1.91,2.76,1.91,2.77,-2.77,-3.22,-2.94,-0.86,-0.86,-0.85
55.18,1.94,2.79,1.94,2.79,-2.79,-3.29,-3.05,-0.85,-0.86,-0.86
55.74,1.96,2.81,1.96,2.81,-2.81,-3.35,-3.16,-0.85,-0.85,-0.86
56.29,1.98,2.84,1.98,2.83,-2.83,-3.42,-3.26,-0.85,-0.86,-0.86
56.86,1.99,2.85,1.99,2.85,-2.85,-3.48,-3.36,-0.86,-0.86,-0.86
57.42,2.00,2.87,2.00,2.87,-2.87,-3.53,-3.46,-0.87,-0.87,-0.87
58.00,2.01,2.88,2.01,2.88,-2.88,-3.58,-3.55,-0.87,-0.87,-0.87
58.58,2.02,2.90,2.02,2.90,-2.89,-3.63,-3.63,-0.88,-0.88,-0.88
59.16,2.03,2.91,2.03,2.91,-2.91,-3.67,-3.70,-0.88,-0.88,-0.88
59.76,2.03,2.91,2.03,2.92,-2.92,-3.70,-3.77,-0.89,-0.89,-0.88
60.35,2.03,2.93,2.03,2.93,-2.94,-3.74,-3.84,-0.91,-0.91,-0.90
60.96,2.03,2.94,2.03,2.95,-2.95,-3.76,-3.89,-0.92,-0.92,-0.91
61.57,2.03,2.97,2.03,2.97,-2.96,-3.79,-3.94,-0.93,-0.93,-0.94
62.18,2.03,2.99,2.02,2.98,-2.97,-3.81,-3.98,-0.94,-0.95,-0.96
62.80,2.01,2.98,2.01,2.99,-2.98,-3.82,-4.01,-0.97,-0.97,-0.97
63.43,2.00,3.00,2.00,2.99,-2.99,-3.83,-4.04,-0.99,-0.99,-1.00
64.07,1.99,2.99,1.99,2.99,-2.99,-3.84,-4.05,-1.01,-1.01,-1.00
64.71,1.98,2.99,1.98,2.99,-3.00,-3.84,-4.06,-1.02,-1.02,-1.01
65.35,1.98,3.00,1.98,3.00,-3.01,-3.84,-4.07,-1.03,-1.03,-1.02
66.01,1.99,3.02,1.99,3.02,-3.02,-3.83,-4.06,-1.03,-1.03,-1.03
66.67,2.00,3.04,2.00,3.03,-3.03,-3.82,-4.06,-1.03,-1.03,-1.04
67.33,2.01,3.04,2.01,3.05,-3.04,-3.81,-4.04,-1.03,-1.03,-1.04
68.01,2.02,3.06,2.02,3.06,-3.06,-3.80,-4.02,-1.04,-1.04,-1.04
68.69,2.04,3.08,2.04,3.08,-3.07,-3.78,-3.99,-1.04,-1.04,-1.04
69.37,2.06,3.10,2.06,3.10,-3.09,-3.76,-3.96,-1.04,-1.04,-1.04
70.07,2.08,3.12,2.08,3.11,-3.12,-3.74,-3.93,-1.04,-1.04,-1.04
70.77,2.10,3.13,2.10,3.13,-3.14,-3.71,-3.89,-1.04,-1.04,-1.03
71.48,2.12,3.15,2.12,3.16,-3.16,-3.69,-3.85,-1.05,-1.04,-1.04
72.19,2.15,3.19,2.15,3.19,-3.19,-3.66,-3.81,-1.04,-1.04,-1.04
72.91,2.18,3.22,2.17,3.22,-3.22,-3.63,-3.76,-1.04,-1.04,-1.04
73.64,2.20,3.26,2.20,3.25,-3.25,-3.60,-3.71,-1.05,-1.05,-1.06
74.38,2.22,3.27,2.22,3.27,-3.27,-3.57,-3.67,-1.06,-1.05,-1.05
75.12,2.24,3.30,2.24,3.30,-3.30,-3.54,-3.62,-1.06,-1.06,-1.06
75.87,2.27,3.32,2.27,3.32,-3.33,-3.50,-3.57,-1.06,-1.06,-1.05
76.63,2.29,3.35,2.29,3.35,-3.35,-3.47,-3.52,-1.06,-1.06,-1.06
77.40,2.31,3.37,2.31,3.37,-3.37,-3.44,-3.47,-1.06,-1.06,-1.06
78.17,2.33,3.40,2.33,3.39,-3.38,-3.41,-3.43,-1.05,-1.06,-1.07
78.95,2.34,3.39,2.34,3.39,-3.39,-3.37,-3.38,-1.05,-1.05,-1.06
79.74,2.35,3.39,2.35,3.40,-3.39,-3.34,-3.33,-1.04,-1.04,-1.04
80.54,2.36,3.39,2.36,3.39,-3.38,-3.31,-3.29,-1.03,-1.03,-1.03
81.35,2.36,3.38,2.36,3.38,-3.37,-3.28,-3.25,-1.01,-1.02,-1.02
82.16,2.35,3.36,2.35,3.36,-3.36,-3.25,-3.21,-1.01,-1.01,-1.01
82.98,2.34,3.32,2.34,3.33,-3.34,-3.22,-3.17,-1.00,-1.00,-0.99
83.81,2.33,3.31,2.33,3.31,-3.31,-3.19,-3.13,-0.99,-0.98,-0.98
84.65,2.33,3.30,2.33,3.29,-3.29,-3.17,-3.10,-0.97,-0.97,-0.97
85.50,2.33,3.26,2.33,3.27,-3.28,-3.14,-3.07,-0.95,-0.95,-0.93
86.35,2.34,3.25,2.33,3.25,-3.26,-3.12,-3.04,-0.92,-0.93,-0.92
87.22,2.34,3.24,2.34,3.24,-3.25,-3.10,-3.01,-0.91,-0.90,-0.90
88.09,2.35,3.24,2.35,3.24,-3.23,-3.07,-2.98,-0.88,-0.88,-0.89
88.97,2.36,3.23,2.35,3.23,-3.22,-3.06,-2.96,-0.86,-0.87,-0.87
89.86,2.35,3.21,2.35,3.22,-3.21,-3.04,-2.94,-0.86,-0.86,-0.86
90.76,2.34,3.21,2.34,3.20,-3.20,-3.02,-2.92,-0.86,-0.86,-0.87
91.66,2.33,3.18,2.33,3.19,-3.19,-3.01,-2.90,-0.86,-0.86,-0.85
92.58,2.31,3.18,2.31,3.17,-3.18,-3.00,-2.89,-0.87,-0.87,-0.87
93.51,2.29,3.15,2.29,3.16,-3.16,-2.99,-2.88,-0.88,-0.87,-0.87
94.44,2.27,3.14,2.27,3.15,-3.15,-2.98,-2.87,-0.88,-0.88,-0.87
95.39,2.25,3.14,2.25,3.14,-3.14,-2.97,-2.86,-0.89,-0.89,-0.89
96.34,2.22,3.14,2.22,3.13,-3.12,-2.96,-2.86,-0.91,-0.91,-0.92
97.30,2.18,3.12,2.18,3.12,-3.11,-2.96,-2.86,-0.93,-0.93,-0.94
98.28,2.14,3.11,2.13,3.10,-3.10,-2.95,-2.85,-0.96,-0.97,-0.97
99.26,2.08,3.08,2.08,3.09,-3.09,-2.95,-2.85,-1.01,-1.01,-1.00
100.25,2.03,3.07,2.03,3.06,-3.08,-2.94,-2.86,-1.05,-1.05,-1.04
101.25,1.98,3.05,1.98,3.05,-3.07,-2.94,-2.86,-1.09,-1.09,-1.08
102.27,1.94,3.04,1.95,3.06,-3.06,-2.94,-2.86,-1.12,-1.12,-1.10
103.29,1.92,3.07,1.91,3.06,-3.06,-2.93,-2.87,-1.14,-1.14,-1.15
104.32,1.88,3.06,1.87,3.06,-3.05,-2.93,-2.88,-1.17,-1.18,-1.18
105.37,1.83,3.05,1.83,3.05,-3.05,-2.92,-2.88,-1.22,-1.22,-1.22
106.42,1.78,3.03,1.79,3.04,-3.04,-2.91,-2.89,-1.26,-1.25,-1.25
107.48,1.75,3.03,1.74,3.03,-3.03,-2.91,-2.90,-1.28,-1.28,-1.29
108.56,1.70,3.02,1.70,3.02,-3.01,-2.89,-2.91,-1.31,-1.31,-1.32
109.64,1.64,3.00,1.64,3.00,-2.98,-2.88,-2.91,-1.34,-1.34,-1.36
110.74,1.58,2.97,1.57,2.96,-2.96,-2.87,-2.92,-1.38,-1.38,-1.39
111.85,1.50,2.91,1.50,2.92,-2.93,-2.85,-2.93,-1.43,-1.43,-1.41
112.97,1.43,2.88,1.43,2.88,-2.90,-2.83,-2.93,-1.47,-1.47,-1.46
114.10,1.37,2.84,1.37,2.85,-2.87,-2.81,-2.93,-1.50,-1.50,-1.47
115.24,1.33,2.83,1.33,2.83,-2.84,-2.79,-2.93,-1.51,-1.50,-1.50
116.39,1.30,2.82,1.29,2.82,-2.80,-2.76,-2.94,-1.50,-1.51,-1.52
117.55,1.26,2.80,1.25,2.79,-2.77,-2.74,-2.93,-1.51,-1.52,-1.54
118.73,1.19,2.75,1.19,2.74,-2.73,-2.71,-2.93,-1.54,-1.55,-1.56
119.92,1.12,2.69,1.12,2.70,-2.70,-2.68,-2.92,-1.58,-1.57,-1.57
121.12,1.06,2.64,1.07,2.65,-2.66,-2.65,-2.91,-1.60,-1.59,-1.58
122.33,1.03,2.63,1.02,2.62,-2.62,-2.62,-2.89,-1.59,-1.60,-1.60
123.55,0.99,2.59,0.98,2.59,-2.59,-2.59,-2.88,-1.60,-1.61,-1.60
124.79,0.93,2.55,0.93,2.55,-2.56,-2.56,-2.86,-1.63,-1.62,-1.62
126.03,0.89,2.52,0.89,2.52,-2.53,-2.53,-2.84,-1.64,-1.64,-1.63
127.29,0.86,2.49,0.86,2.50,-2.51,-2.49,-2.81,-1.65,-1.65,-1.64
128.57,0.84,2.50,0.84,2.49,-2.49,-2.46,-2.78,-1.65,-1.65,-1.66
129.85,0.82,2.49,0.82,2.49,-2.47,-2.43,-2.75,-1.66,-1.66,-1.67
131.15,0.79,2.47,0.79,2.47,-2.46,-2.40,-2.71,-1.67,-1.67,-1.68
132.46,0.76,2.45,0.75,2.45,-2.44,-2.37,-2.67,-1.68,-1.69,-1.70
133.79,0.72,2.42,0.72,2.42,-2.43,-2.34,-2.63,-1.71,-1.71,-1.70
135.12,0.67,2.40,0.68,2.40,-2.41,-2.31,-2.59,-1.74,-1.73,-1.73
136.48,0.65,2.38,0.65,2.38,-2.40,-2.28,-2.54,-1.75,-1.75,-1.73
137.84,0.62,2.37,0.62,2.38,-2.38,-2.25,-2.50,-1.76,-1.76,-1.75
139.22,0.60,2.38,0.60,2.37,-2.36,-2.23,-2.45,-1.76,-1.77,-1.78
140.61,0.57,2.36,0.56,2.35,-2.34,-2.20,-2.39,-1.78,-1.78,-1.80
142.02,0.52,2.32,0.53,2.34,-2.33,-2.17,-2.34,-1.81,-1.80,-1.80
143.44,0.49,2.31,0.49,2.31,-2.30,-2.15,-2.28,-1.81,-1.82,-1.82
144.87,0.44,2.29,0.43,2.28,-2.28,-2.12,-2.23,-1.84,-1.85,-1.85
146.32,0.38,2.25,0.38,2.25,-2.25,-2.10,-2.17,-1.87,-1.87,-1.88
147.78,0.31,2.19,0.32,2.21,-2.22,-2.07,-2.11,-1.91,-1.90,-1.88
149.26,0.27,2.18,0.26,2.18,-2.18,-2.05,-2.05,-1.91,-1.92,-1.91
150.75,0.20,2.15,0.20,2.14,-2.14,-2.02,-1.99,-1.94,-1.94,-1.95
152.26,0.14,2.11,0.14,2.11,-2.10,-2.00,-1.93,-1.96,-1.97,-1.98
153.78,0.06,2.06,0.06,2.07,-2.06,-1.98,-1.87,-2.00,-2.00,-2.00
155.32,-0.00,2.03,-0.00,2.02,-2.02,-1.95,-1.81,-2.02,-2.02,-2.03
156.88,-0.08,1.97,-0.08,1.98,-1.98,-1.93,-1.75,-2.06,-2.06,-2.05
158.44,-0.15,1.93,-0.16,1.93,-1.93,-1.91,-1.70,-2.08,-2.10,-2.09
160.03,-0.26,1.87,-0.24,1.88,-1.89,-1.88,-1.64,-2.15,-2.13,-2.13
161.63,-0.32,1.84,-0.32,1.84,-1.84,-1.86,-1.58,-2.16,-2.16,-2.16
163.24,-0.38,1.81,-0.40,1.79,-1.80,-1.84,-1.52,-2.18,-2.19,-2.19
164.88,-0.47,1.74,-0.46,1.76,-1.75,-1.82,-1.46,-2.22,-2.21,-2.21
166.53,-0.53,1.71,-0.53,1.71,-1.70,-1.79,-1.41,-2.23,-2.24,-2.24
168.19,-0.60,1.68,-0.61,1.66,-1.65,-1.77,-1.35,-2.25,-2.27,-2.28
169.87,-0.70,1.59,-0.69,1.61,-1.60,-1.75,-1.29,-2.31,-2.29,-2.30
171.57,-0.77,1.55,-0.77,1.55,-1.56,-1.72,-1.24,-2.33,-2.33,-2.32
173.29,-0.84,1.51,-0.85,1.49,-1.50,-1.70,-1.19,-2.35,-2.36,-2.35
175.02,-0.94,1.43,-0.93,1.44,-1.45,-1.67,-1.13,-2.39,-2.38,-2.37
176.77,-1.01,1.39,-1.01,1.39,-1.39,-1.65,-1.08,-2.40,-2.40,-2.40
178.54,-1.08,1.35,-1.08,1.34,-1.33,-1.63,-1.03,-2.41,-2.41,-2.43
180.32,-1.15,1.29,-1.15,1.29,-1.27,-1.60,-0.98,-2.42,-2.42,-2.44
182.13,-1.22,1.23,-1.24,1.22,-1.20,-1.58,-0.93,-2.42,-2.44,-2.45
183.95,-1.35,1.12,-1.33,1.14,-1.14,-1.55,-0.88,-2.49,-2.47,-2.47
185.79,-1.42,1.07,-1.42,1.06,-1.07,-1.52,-0.83,-2.50,-2.50,-2.49
187.65,-1.50,1.00,-1.50,1.00,-1.01,-1.50,-0.78,-2.51,-2.51,-2.50
189.52,-1.56,0.95,-1.57,0.95,-0.95,-1.47,-0.74,-2.51,-2.52,-2.51
191.42,-1.63,0.89,-1.63,0.89,-0.90,-1.44,-0.69,-2.53,-2.53,-2.53
193.33,-1.69,0.85,-1.69,0.85,-0.85,-1.41,-0.64,-2.54,-2.54,-2.54
195.27,-1.74,0.81,-1.74,0.81,-0.81,-1.39,-0.60,-2.56,-2.56,-2.55
197.22,-1.78,0.78,-1.78,0.78,-0.78,-1.36,-0.56,-2.57,-2.57,-2.56
199.19,-1.82,0.77,-1.82,0.76,-0.76,-1.33,-0.51,-2.58,-2.58,-2.59
201.18,-1.85,0.74,-1.85,0.75,-0.74,-1.29,-0.47,-2.60,-2.59,-2.59
203.19,-1.87,0.73,-1.87,0.74,-0.73,-1.26,-0.43,-2.61,-2.61,-2.60
205.23,-1.89,0.73,-1.89,0.73,-0.73,-1.23,-0.39,-2.62,-2.62,-2.62
207.28,-1.90,0.72,-1.90,0.73,-0.74,-1.20,-0.35,-2.64,-2.64,-2.62
209.35,-1.91,0.73,-1.91,0.74,-0.75,-1.16,-0.32,-2.66,-2.66,-2.64
211.44,-1.91,0.75,-1.91,0.75,-0.76,-1.13,-0.28,-2.67,-2.66,-2.66
213.56,-1.89,0.77,-1.89,0.77,-0.77,-1.09,-0.25,-2.66,-2.66,-2.66
215.69,-1.87,0.79,-1.87,0.79,-0.79,-1.05,-0.21,-2.66,-2.66,-2.66
217.85,-1.86,0.81,-1.86,0.81,-0.80,-1.01,-0.18,-2.66,-2.66,-2.67
220.03,-1.86,0.83,-1.86,0.82,-0.80,-0.97,-0.15,-2.66,-2.67,-2.69
222.23,-1.87,0.82,-1.87,0.81,-0.80,-0.93,-0.12,-2.68,-2.68,-2.69
224.45,-1.89,0.79,-1.89,0.80,-0.80,-0.89,-0.09,-2.69,-2.69,-2.68
226.70,-1.91,0.78,-1.91,0.78,-0.79,-0.84,-0.07,-2.70,-2.70,-2.69
228.96,-1.93,0.76,-1.93,0.76,-0.77,-0.80,-0.05,-2.70,-2.70,-2.70
231.25,-1.95,0.74,-1.95,0.74,-0.75,-0.75,-0.03,-2.70,-2.70,-2.69
233.57,-1.97,0.73,-1.98,0.72,-0.72,-0.70,-0.01,-2.69,-2.70,-2.70
235.90,-2.03,0.67,-2.02,0.69,-0.69,-0.65,0.01,-2.72,-2.71,-2.71
238.26,-2.05,0.67,-2.06,0.66,-0.65,-0.59,0.02,-2.71,-2.71,-2.72
240.64,-2.10,0.62,-2.10,0.62,-0.61,-0.54,0.03,-2.71,-2.71,-2.72
243.05,-2.14,0.58,-2.15,0.57,-0.57,-0.48,0.04,-2.71,-2.71,-2.72
245.48,-2.20,0.52,-2.21,0.51,-0.51,-0.42,0.05,-2.71,-2.72,-2.72
247.93,-2.29,0.43,-2.28,0.45,-0.45,-0.35,0.05,-2.74,-2.73,-2.72
250.41,-2.34,0.39,-2.35,0.37,-0.38,-0.29,0.05,-2.72,-2.73,-2.73
252.92,-2.41,0.30,-2.41,0.31,-0.31,-0.22,0.05,-2.72,-2.72,-2.71
255.45,-2.47,0.23,-2.47,0.23,-0.23,-0.15,0.05,-2.70,-2.70,-2.70
258.00,-2.53,0.16,-2.54,0.15,-0.14,-0.08,0.04,-2.68,-2.68,-2.69
260.58,-2.62,0.07,-2.61,0.07,-0.06,-0.00,0.03,-2.68,-2.67,-2.69
263.19,-2.68,-0.02,-2.69,-0.03,0.03,0.08,0.02,-2.65,-2.66,-2.66
265.82,-2.78,-0.13,-2.78,-0.12,0.12,0.15,0.01,-2.66,-2.65,-2.66
268.48,-2.86,-0.22,-2.85,-0.22,0.21,0.23,-0.01,-2.65,-2.64,-2.64
271.16,-2.92,-0.30,-2.93,-0.31,0.29,0.31,-0.03,-2.63,-2.64,-2.62
273.87,-3.00,-0.39,-2.99,-0.39,0.37,0.39,-0.05,-2.63,-2.62,-2.61
276.61,-3.05,-0.46,-3.04,-0.45,0.44,0.47,-0.07,-2.61,-2.60,-2.59
279.38,-3.08,-0.50,-3.09,-0.51,0.50,0.55,-0.10,-2.58,-2.58,-2.58
282.17,-3.12,-0.54,-3.13,-0.56,0.56,0.62,-0.13,-2.56,-2.57,-2.58
284.99,-3.16,-0.61,-3.16,-0.60,0.60,0.69,-0.15,-2.56,-2.56,-2.55
287.84,-3.19,-0.65,-3.18,-0.64,0.64,0.75,-0.18,-2.55,-2.54,-2.54
290.72,-3.19,-0.67,-3.20,-0.67,0.67,0.81,-0.22,-2.52,-2.52,-2.53
293.63,-3.20,-0.69,-3.21,-0.70,0.70,0.86,-0.25,-2.50,-2.51,-2.51
296.57,-3.22,-0.74,-3.22,-0.73,0.73,0.90,-0.28,-2.49,-2.49,-2.48
299.53,-3.23,-0.76,-3.22,-0.75,0.76,0.93,-0.32,-2.47,-2.47,-2.47
302.53,-3.22,-0.76,-3.22,-0.77,0.78,0.95,-0.36,-2.44,-2.44,-2.46
305.55,-3.21,-0.79,-3.22,-0.79,0.80,0.96,-0.40,-2.41,-2.42,-2.42
308.61,-3.21,-0.81,-3.21,-0.81,0.81,0.95,-0.43,-2.40,-2.39,-2.40
311.69,-3.19,-0.82,-3.20,-0.83,0.82,0.93,-0.48,-2.37,-2.37,-2.37
314.81,-3.18,-0.85,-3.18,-0.83,0.82,0.90,-0.52,-2.36,-2.35,-2.34
317.96,-3.14,-0.82,-3.14,-0.82,0.82,0.86,-0.56,-2.33,-2.32,-2.32
321.14,-3.09,-0.80,-3.09,-0.80,0.80,0.80,-0.60,-2.29,-2.29,-2.29
324.35,-3.03,-0.76,-3.04,-0.77,0.77,0.74,-0.65,-2.26,-2.27,-2.27
327.59,-2.97,-0.73,-2.97,-0.73,0.73,0.66,-0.69,-2.24,-2.25,-2.24
330.87,-2.90,-0.69,-2.90,-0.68,0.67,0.58,-0.74,-2.23,-2.22,-2.22
334.18,-2.81,-0.61,-2.81,-0.61,0.60,0.49,-0.79,-2.21,-2.20,-2.20
337.52,-2.69,-0.52,-2.70,-0.53,0.52,0.39,-0.83,-2.17,-2.18,-2.17
340.90,-2.58,-0.44,-2.58,-0.43,0.43,0.29,-0.88,-2.15,-2.15,-2.14
344.30,-2.44,-0.33,-2.45,-0.33,0.33,0.19,-0.93,-2.11,-2.12,-2.11
347.75,-2.31,-0.22,-2.31,-0.22,0.22,0.08,-0.98,-2.09,-2.09,-2.09
351.23,-2.16,-0.10,-2.16,-0.09,0.10,-0.03,-1.03,-2.06,-2.06,-2.07
354.74,-2.01,0.03,-2.01,0.03,-0.02,-0.14,-1.08,-2.04,-2.04,-2.04
358.28,-1.85,0.17,-1.86,0.16,-0.15,-0.25,-1.14,-2.01,-2.01,-2.02
361.87,-1.71,0.28,-1.70,0.29,-0.29,-0.37,-1.19,-2.00,-1.99,-1.99
365.49,-1.54,0.43,-1.55,0.42,-0.43,-0.48,-1.24,-1.97,-1.98,-1.97
369.14,-1.38,0.57,-1.39,0.57,-0.58,-0.60,-1.30,-1.96,-1.96,-1.95
372.83,-1.23,0.70,-1.21,0.72,-0.72,-0.71,-1.35,-1.95,-1.94,-1.93
376.56,-1.03,0.88,-1.04,0.87,-0.87,-0.83,-1.41,-1.90,-1.91,-1.91
380.33,-0.87,1.01,-0.87,1.02,-1.01,-0.95,-1.47,-1.89,-1.89,-1.89
384.13,-0.71,1.17,-0.71,1.17,-1.16,-1.07,-1.52,-1.87,-1.87,-1.88
387.97,-0.56,1.31,-0.56,1.30,-1.30,-1.19,-1.58,-1.86,-1.86,-1.87
391.85,-0.42,1.44,-0.42,1.44,-1.43,-1.31,-1.64,-1.86,-1.85,-1.86
395.77,-0.28,1.56,-0.28,1.56,-1.56,-1.43,-1.70,-1.85,-1.84,-1.84
399.73,-0.14,1.69,-0.14,1.69,-1.69,-1.55,-1.76,-1.83,-1.83,-1.83
403.72,-0.01,1.81,-0.01,1.81,-1.81,-1.67,-1.82,-1.82,-1.82,-1.82
407.76,0.11,1.92,0.11,1.92,-1.92,-1.79,-1.88,-1.81,-1.81,-1.81
411.84,0.23,2.02,0.22,2.02,-2.03,-1.90,-1.93,-1.80,-1.80,-1.79
415.96,0.33,2.12,0.33,2.12,-2.13,-2.02,-1.99,-1.80,-1.80,-1.79
420.12,0.43,2.22,0.43,2.22,-2.22,-2.13,-2.05,-1.79,-1.79,-1.79
424.32,0.52,2.31,0.52,2.31,-2.31,-2.23,-2.11,-1.79,-1.79,-1.80
428.56,0.60,2.39,0.60,2.40,-2.39,-2.33,-2.16,-1.80,-1.79,-1.80
432.85,0.68,2.48,0.68,2.47,-2.47,-2.42,-2.22,-1.79,-1.80,-1.80
437.18,0.75,2.55,0.74,2.54,-2.54,-2.51,-2.27,-1.80,-1.80,-1.80
441.55,0.80,2.60,0.80,2.60,-2.61,-2.58,-2.33,-1.81,-1.80,-1.80
445.96,0.86,2.66,0.86,2.66,-2.66,-2.64,-2.38,-1.80,-1.81,-1.80
450.42,0.91,2.72,0.91,2.71,-2.71,-2.68,-2.43,-1.80,-1.80,-1.81
