frequency,raw,error,smoothed,error_smoothed,equalization,parametric_eq,fixed_band_eq,equalized_raw,equalized_smoothed,target
20.00,13.24,13.38,13.24,13.38,-13.39,-13.31,-6.35,-0.15,-0.15,-0.15
20.20,13.19,13.36,13.18,13.36,-13.36,-13.33,-6.50,-0.17,-0.17,-0.18
20.40,13.13,13.33,13.14,13.33,-13.33,-13.35,-6.66,-0.20,-0.20,-0.20
20.61,13.10,13.31,13.09,13.31,-13.31,-13.37,-6.81,-0.22,-0.22,-0.22
20.81,13.05,13.29,13.05,13.29,-13.29,-13.38,-6.98,-0.24,-0.24,-0.24
21.02,13.02,13.27,13.02,13.28,-13.27,-13.40,-7.15,-0.26,-0.26,-0.26
21.23,12.99,13.26,12.98,13.26,-13.26,-13.41,-7.32,-0.28,-0.28,-0.28
21.44,12.95,13.25,12.95,13.25,-13.25,-13.42,-7.50,-0.29,-0.29,-0.30
21.66,12.93,13.24,12.93,13.24,-13.24,-13.43,-7.68,-0.31,-0.31,-0.32
21.87,12.91,13.23,12.90,13.23,-13.23,-13.43,-7.87,-0.32,-0.33,-0.33
22.09,12.89,13.23,12.88,13.23,-13.23,-13.44,-8.06,-0.34,-0.34,-0.35
22.31,12.87,13.22,12.87,13.22,-13.23,-13.44,-8.26,-0.36,-0.36,-0.36
22.54,12.86,13.22,12.86,13.22,-13.24,-13.44,-8.46,-0.38,-0.38,-0.37
22.76,12.86,13.23,12.85,13.23,-13.25,-13.44,-8.67,-0.39,-0.39,-0.38
22.99,12.86,13.24,12.86,13.25,-13.26,-13.43,-8.88,-0.40,-0.40,-0.39
23.22,12.88,13.27,12.88,13.27,-13.27,-13.43,-9.10,-0.40,-0.40,-0.40
23.45,12.90,13.30,12.89,13.30,-13.29,-13.42,-9.32,-0.39,-0.40,-0.41
23.69,12.91,13.32,12.90,13.31,-13.30,-13.42,-9.55,-0.39,-0.40,-0.42
23.92,12.90,13.31,12.90,13.32,-13.31,-13.41,-9.79,-0.41,-0.41,-0.42
24.16,12.89,13.31,12.89,13.31,-13.31,-13.40,-10.03,-0.42,-0.42,-0.43
24.40,12.88,13.30,12.87,13.30,-13.30,-13.39,-10.28,-0.43,-0.43,-0.43
24.65,12.86,13.29,12.86,13.29,-13.29,-13.38,-10.54,-0.44,-0.44,-0.44
24.89,12.83,13.27,12.83,13.27,-13.27,-13.36,-10.80,-0.44,-0.44,-0.44
25.14,12.80,13.25,12.81,13.25,-13.25,-13.35,-11.07,-0.45,-0.45,-0.45
25.39,12.77,13.23,12.78,13.23,-13.23,-13.33,-11.34,-0.45,-0.45,-0.46
25.65,12.75,13.20,12.75,13.21,-13.20,-13.32,-11.62,-0.46,-0.46,-0.46
25.91,12.72,13.18,12.72,13.18,-13.18,-13.30,-11.90,-0.46,-0.46,-0.47
26.16,12.68,13.15,12.68,13.15,-13.15,-13.29,-12.19,-0.47,-0.47,-0.47
26.43,12.66,13.12,12.65,13.13,-13.13,-13.27,-12.48,-0.47,-0.47,-0.47
26.69,12.63,13.10,12.63,13.10,-13.11,-13.25,-12.77,-0.48,-0.48,-0.48
26.96,12.61,13.08,12.60,13.08,-13.09,-13.23,-13.07,-0.49,-0.49,-0.48
27.23,12.59,13.07,12.59,13.07,-13.08,-13.21,-13.37,-0.49,-0.49,-0.49
27.50,12.58,13.06,12.57,13.06,-13.06,-13.19,-13.66,-0.49,-0.49,-0.49
27.77,12.57,13.05,12.57,13.06,-13.06,-13.17,-13.96,-0.49,-0.49,-0.49
28.05,12.56,13.05,12.55,13.05,-13.05,-13.15,-14.25,-0.49,-0.49,-0.50
28.33,12.55,13.04,12.54,13.04,-13.04,-13.12,-14.53,-0.49,-0.50,-0.50
28.62,12.53,13.02,12.53,13.03,-13.03,-13.10,-14.81,-0.50,-0.50,-0.50
28.90,12.52,13.02,12.52,13.02,-13.01,-13.08,-15.07,-0.50,-0.50,-0.51
29.19,12.51,13.01,12.50,13.01,-13.00,-13.06,-15.31,-0.49,-0.50,-0.51
29.48,12.48,12.98,12.48,12.98,-12.98,-13.03,-15.54,-0.50,-0.50,-0.51
29.78,12.45,12.95,12.45,12.96,-12.96,-13.01,-15.74,-0.51,-0.51,-0.51
30.08,12.42,12.92,12.42,12.93,-12.94,-12.98,-15.91,-0.52,-0.52,-0.51
30.38,12.40,12.91,12.39,12.91,-12.91,-12.96,-16.06,-0.52,-0.52,-0.52
30.68,12.37,12.88,12.37,12.88,-12.89,-12.93,-16.17,-0.52,-0.52,-0.52
30.99,12.35,12.86,12.34,12.86,-12.86,-12.90,-16.25,-0.51,-0.52,-0.52
31.30,12.32,12.83,12.32,12.84,-12.83,-12.88,-16.29,-0.52,-0.52,-0.52
31.61,12.29,12.81,12.29,12.81,-12.80,-12.85,-16.30,-0.52,-0.52,-0.53
31.93,12.26,12.78,12.25,12.78,-12.78,-12.82,-16.27,-0.52,-0.52,-0.53
32.24,12.21,12.74,12.22,12.75,-12.75,-12.80,-16.21,-0.53,-0.53,-0.53
32.57,12.19,12.72,12.18,12.71,-12.72,-12.77,-16.12,-0.54,-0.54,-0.54
32.89,12.15,12.68,12.15,12.69,-12.70,-12.74,-16.00,-0.55,-0.55,-0.54
33.22,12.13,12.66,12.13,12.67,-12.68,-12.71,-15.86,-0.55,-0.55,-0.54
33.55,12.11,12.65,12.10,12.65,-12.65,-12.68,-15.69,-0.55,-0.55,-0.55
33.89,12.09,12.63,12.09,12.63,-12.63,-12.65,-15.51,-0.54,-0.54,-0.55
34.23,12.07,12.61,12.06,12.61,-12.60,-12.62,-15.32,-0.54,-0.54,-0.55
34.57,12.04,12.59,12.03,12.59,-12.57,-12.59,-15.12,-0.54,-0.54,-0.56
34.92,12.00,12.55,12.00,12.55,-12.54,-12.56,-14.91,-0.55,-0.55,-0.56
35.27,11.96,12.51,11.95,12.52,-12.51,-12.53,-14.70,-0.55,-0.55,-0.56
35.62,11.91,12.47,11.91,12.47,-12.47,-12.50,-14.48,-0.57,-0.56,-0.57
35.97,11.86,12.43,11.86,12.43,-12.44,-12.47,-14.26,-0.57,-0.57,-0.57
36.33,11.82,12.38,11.82,12.39,-12.40,-12.44,-14.05,-0.59,-0.58,-0.57
36.70,11.79,12.35,11.78,12.35,-12.37,-12.41,-13.84,-0.58,-0.58,-0.57
37.06,11.76,12.32,11.76,12.33,-12.34,-12.38,-13.63,-0.58,-0.58,-0.57
37.43,11.74,12.31,11.74,12.31,-12.31,-12.34,-13.43,-0.57,-0.57,-0.58
37.81,11.72,12.29,11.71,12.29,-12.28,-12.31,-13.23,-0.56,-0.57,-0.58
38.19,11.69,12.26,11.68,12.26,-12.25,-12.28,-13.04,-0.56,-0.57,-0.58
38.57,11.65,12.23,11.65,12.23,-12.22,-12.25,-12.86,-0.58,-0.57,-0.59
38.95,11.60,12.19,11.60,12.19,-12.19,-12.21,-12.68,-0.59,-0.59,-0.59
39.34,11.55,12.15,11.56,12.15,-12.16,-12.18,-12.52,-0.61,-0.60,-0.60
39.74,11.52,12.11,11.52,12.12,-12.13,-12.14,-12.36,-0.61,-0.61,-0.60
40.14,11.49,12.09,11.48,12.09,-12.10,-12.11,-12.20,-0.61,-0.61,-0.61
40.54,11.46,12.06,11.45,12.06,-12.06,-12.07,-12.06,-0.61,-0.61,-0.61
40.94,11.43,12.03,11.43,12.03,-12.03,-12.04,-11.92,-0.61,-0.60,-0.61
41.35,11.40,12.00,11.40,12.00,-12.00,-12.00,-11.79,-0.60,-0.60,-0.61
41.76,11.36,11.97,11.36,11.97,-11.96,-11.97,-11.67,-0.59,-0.60,-0.61
42.18,11.33,11.93,11.32,11.93,-11.92,-11.93,-11.56,-0.59,-0.60,-0.61
42.60,11.27,11.88,11.28,11.88,-11.88,-11.90,-11.45,-0.60,-0.60,-0.61
43.03,11.24,11.83,11.23,11.83,-11.84,-11.86,-11.36,-0.60,-0.61,-0.60
43.46,11.19,11.78,11.19,11.78,-11.80,-11.82,-11.27,-0.61,-0.61,-0.60
43.90,11.15,11.74,11.15,11.74,-11.76,-11.78,-11.19,-0.61,-0.61,-0.60
44.33,11.12,11.71,11.11,11.71,-11.72,-11.75,-11.11,-0.60,-0.60,-0.60
44.78,11.09,11.68,11.08,11.68,-11.68,-11.71,-11.05,-0.60,-0.60,-0.60
45.23,11.06,11.65,11.06,11.65,-11.65,-11.67,-10.99,-0.59,-0.59,-0.60
45.68,11.03,11.62,11.03,11.62,-11.62,-11.63,-10.94,-0.59,-0.59,-0.60
46.13,10.99,11.59,10.99,11.59,-11.59,-11.59,-10.89,-0.59,-0.59,-0.60
46.60,10.96,11.55,10.96,11.55,-11.55,-11.55,-10.86,-0.60,-0.60,-0.60
47.06,10.92,11.51,10.92,11.52,-11.52,-11.51,-10.83,-0.61,-0.60,-0.60
47.53,10.89,11.49,10.88,11.48,-11.49,-11.47,-10.80,-0.60,-0.61,-0.61
48.01,10.85,11.45,10.85,11.45,-11.45,-11.43,-10.79,-0.61,-0.61,-0.61
48.49,10.81,11.41,10.81,11.42,-11.42,-11.39,-10.77,-0.61,-0.61,-0.61
48.97,10.78,11.38,10.77,11.38,-11.38,-11.35,-10.77,-0.61,-0.61,-0.61
49.46,10.74,11.34,10.74,11.34,-11.34,-11.31,-10.77,-0.61,-0.61,-0.61
49.96,10.70,11.30,10.70,11.31,-11.30,-11.27,-10.78,-0.61,-0.61,-0.61
50.46,10.67,11.27,10.66,11.27,-11.26,-11.22,-10.79,-0.60,-0.60,-0.61
50.96,10.62,11.22,10.62,11.22,-11.21,-11.18,-10.80,-0.60,-0.60,-0.61
51.47,10.58,11.17,10.57,11.17,-11.17,-11.14,-10.82,-0.59,-0.59,-0.60
51.99,10.52,11.11,10.52,11.12,-11.11,-11.09,-10.84,-0.60,-0.60,-0.60
52.51,10.47,11.06,10.46,11.06,-11.06,-11.05,-10.87,-0.60,-0.60,-0.60
53.03,10.41,11.00,10.41,11.00,-11.01,-11.01,-10.90,-0.61,-0.60,-0.60
53.56,10.36,10.95,10.36,10.95,-10.96,-10.96,-10.93,-0.60,-0.60,-0.60
54.10,10.31,10.89,10.31,10.90,-10.91,-10.92,-10.96,-0.60,-0.60,-0.59
54.64,10.27,10.85,10.27,10.85,-10.85,-10.87,-10.99,-0.59,-0.59,-0.59
55.18,10.23,10.81,10.23,10.81,-10.80,-10.83,-11.02,-0.58,-0.58,-0.59
55.74,10.19,10.77,10.18,10.77,-10.75,-10.78,-11.05,-0.57,-0.57,-0.59
56.29,10.14,10.71,10.13,10.71,-10.71,-10.73,-11.08,-0.57,-0.58,-0.58
56.86,10.08,10.65,10.08,10.66,-10.66,-10.69,-11.10,-0.59,-0.58,-0.58
57.42,10.03,10.60,10.03,10.60,-10.61,-10.64,-11.12,-0.59,-0.59,-0.58
58.00,9.99,10.55,9.99,10.56,-10.57,-10.59,-11.14,-0.58,-0.58,-0.57
58.58,9.96,10.52,9.95,10.52,-10.52,-10.55,-11.15,-0.56,-0.56,-0.57
59.16,9.92,10.49,9.92,10.48,-10.47,-10.50,-11.15,-0.55,-0.55,-0.57
59.76,9.88,10.43,9.88,10.44,-10.43,-10.45,-11.14,-0.55,-0.55,-0.56
60.35,9.83,10.38,9.83,10.38,-10.38,-10.40,-11.13,-0.56,-0.56,-0.56
60.96,9.78,10.33,9.77,10.33,-10.34,-10.35,-11.11,-0.56,-0.57,-0.56
61.57,9.73,10.28,9.73,10.29,-10.30,-10.30,-11.08,-0.57,-0.57,-0.56
62.18,9.69,10.24,9.69,10.25,-10.25,-10.25,-11.04,-0.56,-0.56,-0.56
62.80,9.66,10.21,9.65,10.21,-10.20,-10.20,-10.99,-0.54,-0.55,-0.56
63.43,9.61,10.16,9.61,10.16,-10.15,-10.15,-10.93,-0.55,-0.54,-0.56
64.07,9.56,10.11,9.55,10.11,-10.10,-10.10,-10.87,-0.55,-0.55,-0.56
64.71,9.50,10.05,9.49,10.05,-10.05,-10.05,-10.79,-0.56,-0.56,-0.56
65.35,9.44,9.99,9.44,10.00,-10.00,-10.00,-10.70,-0.57,-0.56,-0.56
66.01,9.39,9.94,9.39,9.95,-9.95,-9.95,-10.61,-0.57,-0.57,-0.56
66.67,9.35,9.90,9.34,9.90,-9.90,-9.90,-10.51,-0.56,-0.56,-0.56
67.33,9.30,9.85,9.30,9.85,-9.85,-9.85,-10.40,-0.56,-0.55,-0.56
68.01,9.25,9.80,9.25,9.80,-9.80,-9.79,-10.29,-0.55,-0.55,-0.56
68.69,9.20,9.75,9.19,9.75,-9.75,-9.74,-10.17,-0.55,-0.56,-0.56
69.37,9.14,9.69,9.14,9.70,-9.70,-9.69,-10.04,-0.56,-0.56,-0.56
70.07,9.09,9.64,9.09,9.64,-9.64,-9.64,-9.91,-0.56,-0.56,-0.56
70.77,9.04,9.59,9.03,9.59,-9.59,-9.58,-9.78,-0.55,-0.55,-0.56
71.48,8.98,9.52,8.98,9.53,-9.53,-9.53,-9.65,-0.55,-0.55,-0.55
72.19,8.93,9.47,8.92,9.47,-9.47,-9.47,-9.52,-0.54,-0.55,-0.55
72.91,8.87,9.41,8.86,9.41,-9.41,-9.42,-9.39,-0.54,-0.54,-0.55
73.64,8.81,9.35,8.81,9.35,-9.35,-9.37,-9.25,-0.54,-0.54,-0.55
74.38,8.75,9.28,8.75,9.29,-9.29,-9.31,-9.12,-0.54,-0.54,-0.54
75.12,8.69,9.22,8.69,9.22,-9.23,-9.26,-8.99,-0.54,-0.54,-0.54
75.87,8.64,9.16,8.63,9.16,-9.17,-9.20,-8.86,-0.53,-0.54,-0.53
76.63,8.58,9.10,8.58,9.10,-9.11,-9.15,-8.74,-0.53,-0.53,-0.53
77.40,8.53,9.05,8.53,9.05,-9.05,-9.09,-8.61,-0.52,-0.52,-0.53
78.17,8.48,8.99,8.48,9.00,-8.99,-9.03,-8.49,-0.52,-0.52,-0.52
78.95,8.43,8.94,8.43,8.94,-8.94,-8.98,-8.38,-0.51,-0.51,-0.52
79.74,8.38,8.89,8.37,8.88,-8.88,-8.92,-8.27,-0.51,-0.51,-0.52
80.54,8.32,8.82,8.32,8.83,-8.83,-8.87,-8.16,-0.51,-0.51,-0.51
81.35,8.26,8.76,8.26,8.77,-8.77,-8.81,-8.06,-0.52,-0.51,-0.51
82.16,8.22,8.72,8.21,8.72,-8.71,-8.75,-7.96,-0.50,-0.51,-0.51
82.98,8.16,8.66,8.16,8.66,-8.66,-8.69,-7.87,-0.50,-0.50,-0.51
83.81,8.10,8.60,8.10,8.60,-8.60,-8.64,-7.78,-0.50,-0.50,-0.51
84.65,8.04,8.53,8.03,8.53,-8.54,-8.58,-7.69,-0.50,-0.50,-0.50
85.50,7.97,8.46,7.97,8.47,-8.47,-8.52,-7.62,-0.51,-0.50,-0.50
86.35,7.92,8.41,7.91,8.41,-8.41,-8.46,-7.54,-0.50,-0.50,-0.50
87.22,7.86,8.35,7.85,8.35,-8.35,-8.41,-7.48,-0.49,-0.49,-0.50
88.09,7.80,8.29,7.79,8.29,-8.28,-8.35,-7.41,-0.49,-0.49,-0.50
88.97,7.73,8.22,7.72,8.22,-8.22,-8.29,-7.36,-0.50,-0.50,-0.50
89.86,7.66,8.15,7.66,8.15,-8.16,-8.23,-7.30,-0.50,-0.50,-0.50
90.76,7.59,8.08,7.59,8.09,-8.10,-8.17,-7.26,-0.51,-0.51,-0.50
91.66,7.54,8.03,7.54,8.03,-8.04,-8.12,-7.22,-0.50,-0.50,-0.50
92.58,7.49,7.98,7.48,7.98,-7.98,-8.06,-7.18,-0.49,-0.50,-0.50
93.51,7.43,7.92,7.42,7.92,-7.91,-8.00,-7.15,-0.49,-0.49,-0.50
94.44,7.36,7.85,7.36,7.86,-7.85,-7.94,-7.12,-0.50,-0.50,-0.50
95.39,7.30,7.79,7.30,7.79,-7.79,-7.88,-7.10,-0.50,-0.50,-0.50
96.34,7.24,7.73,7.24,7.73,-7.73,-7.82,-7.08,-0.50,-0.49,-0.50
97.30,7.19,7.67,7.18,7.67,-7.67,-7.76,-7.07,-0.49,-0.49,-0.49
98.28,7.13,7.61,7.12,7.61,-7.61,-7.70,-7.06,-0.48,-0.49,-0.49
99.26,7.06,7.54,7.06,7.54,-7.54,-7.64,-7.05,-0.49,-0.49,-0.49
100.25,6.99,7.47,6.99,7.48,-7.48,-7.59,-7.05,-0.50,-0.49,-0.49
101.25,6.93,7.41,6.93,7.41,-7.42,-7.53,-7.05,-0.49,-0.49,-0.49
102.27,6.87,7.35,6.87,7.35,-7.35,-7.47,-7.05,-0.49,-0.48,-0.49
103.29,6.82,7.30,6.81,7.29,-7.28,-7.41,-7.06,-0.47,-0.48,-0.49
104.32,6.75,7.22,6.74,7.23,-7.22,-7.35,-7.07,-0.47,-0.47,-0.48
105.37,6.68,7.15,6.68,7.15,-7.15,-7.29,-7.08,-0.47,-0.47,-0.48
106.42,6.61,7.08,6.61,7.08,-7.08,-7.23,-7.09,-0.48,-0.47,-0.48
107.48,6.55,7.01,6.54,7.01,-7.02,-7.17,-7.10,-0.47,-0.48,-0.47
108.56,6.48,6.94,6.48,6.94,-6.95,-7.11,-7.12,-0.48,-0.48,-0.47
109.64,6.42,6.88,6.42,6.88,-6.89,-7.05,-7.13,-0.48,-0.48,-0.47
110.74,6.37,6.83,6.36,6.83,-6.84,-6.99,-7.14,-0.47,-0.47,-0.47
111.85,6.32,6.78,6.32,6.78,-6.78,-6.93,-7.15,-0.47,-0.46,-0.47
112.97,6.28,6.73,6.28,6.74,-6.73,-6.87,-7.16,-0.45,-0.45,-0.46
114.10,6.24,6.69,6.23,6.69,-6.68,-6.81,-7.17,-0.44,-0.45,-0.46
115.24,6.19,6.64,6.18,6.64,-6.63,-6.75,-7.17,-0.45,-0.45,-0.46
116.39,6.13,6.58,6.13,6.58,-6.59,-6.69,-7.17,-0.46,-0.46,-0.46
117.55,6.08,6.52,6.08,6.53,-6.54,-6.64,-7.17,-0.47,-0.46,-0.45
118.73,6.04,6.48,6.04,6.49,-6.50,-6.58,-7.16,-0.46,-0.46,-0.45
119.92,6.01,6.45,6.01,6.45,-6.45,-6.52,-7.15,-0.45,-0.45,-0.45
121.12,5.98,6.42,5.97,6.42,-6.41,-6.46,-7.13,-0.43,-0.44,-0.45
122.33,5.94,6.37,5.93,6.37,-6.36,-6.40,-7.10,-0.43,-0.43,-0.44
123.55,5.89,6.32,5.89,6.32,-6.32,-6.34,-7.07,-0.43,-0.43,-0.44
124.79,5.85,6.27,5.85,6.27,-6.28,-6.28,-7.03,-0.43,-0.43,-0.43
126.03,5.81,6.23,5.81,6.23,-6.23,-6.22,-6.99,-0.43,-0.43,-0.43
127.29,5.77,6.18,5.76,6.18,-6.19,-6.16,-6.94,-0.42,-0.42,-0.42
128.57,5.73,6.14,5.72,6.14,-6.14,-6.11,-6.89,-0.41,-0.42,-0.42
129.85,5.68,6.09,5.68,6.09,-6.10,-6.05,-6.82,-0.42,-0.42,-0.42
131.15,5.64,6.05,5.64,6.05,-6.05,-5.99,-6.76,-0.42,-0.41,-0.42
132.46,5.61,6.01,5.60,6.01,-6.01,-5.93,-6.68,-0.41,-0.41,-0.41
133.79,5.57,5.97,5.56,5.97,-5.98,-5.87,-6.61,-0.41,-0.41,-0.41
135.12,5.53,5.93,5.53,5.93,-5.94,-5.81,-6.52,-0.41,-0.41,-0.41
136.48,5.49,5.89,5.49,5.90,-5.90,-5.76,-6.44,-0.41,-0.41,-0.41
137.84,5.46,5.86,5.46,5.86,-5.86,-5.70,-6.35,-0.41,-0.41,-0.41
139.22,5.43,5.83,5.42,5.83,-5.82,-5.64,-6.25,-0.40,-0.40,-0.41
140.61,5.39,5.79,5.39,5.79,-5.78,-5.58,-6.15,-0.40,-0.39,-0.41
142.02,5.35,5.74,5.34,5.74,-5.74,-5.53,-6.06,-0.39,-0.40,-0.40
143.44,5.30,5.69,5.29,5.69,-5.70,-5.47,-5.95,-0.40,-0.40,-0.40
144.87,5.25,5.64,5.25,5.64,-5.65,-5.41,-5.85,-0.41,-0.40,-0.40
146.32,5.21,5.59,5.21,5.60,-5.61,-5.36,-5.75,-0.40,-0.40,-0.39
147.78,5.18,5.56,5.17,5.56,-5.56,-5.30,-5.65,-0.38,-0.38,-0.39
149.26,5.14,5.52,5.13,5.52,-5.50,-5.24,-5.54,-0.37,-0.37,-0.39
150.75,5.09,5.46,5.08,5.47,-5.45,-5.19,-5.44,-0.37,-0.37,-0.38
152.26,5.03,5.40,5.03,5.40,-5.40,-5.13,-5.34,-0.37,-0.37,-0.38
153.78,4.97,5.34,4.97,5.34,-5.34,-5.08,-5.24,-0.38,-0.38,-0.38
155.32,4.91,5.27,4.91,5.28,-5.29,-5.02,-5.14,-0.38,-0.38,-0.37
156.88,4.86,5.22,4.85,5.22,-5.23,-4.97,-5.04,-0.37,-0.37,-0.37
158.44,4.81,5.17,4.80,5.17,-5.17,-4.91,-4.94,-0.36,-0.37,-0.37
160.03,4.75,5.11,4.75,5.12,-5.11,-4.86,-4.85,-0.37,-0.36,-0.37
161.63,4.70,5.06,4.69,5.06,-5.05,-4.80,-4.76,-0.36,-0.36,-0.37
163.24,4.64,4.99,4.64,5.00,-4.99,-4.75,-4.67,-0.36,-0.36,-0.36
164.88,4.58,4.93,4.58,4.94,-4.94,-4.69,-4.58,-0.36,-0.36,-0.36
166.53,4.53,4.88,4.52,4.88,-4.88,-4.64,-4.50,-0.35,-0.36,-0.36
168.19,4.47,4.82,4.46,4.82,-4.82,-4.59,-4.42,-0.35,-0.35,-0.36
169.87,4.41,4.75,4.41,4.76,-4.76,-4.53,-4.34,-0.35,-0.35,-0.35
171.57,4.35,4.69,4.35,4.70,-4.70,-4.48,-4.26,-0.35,-0.35,-0.35
173.29,4.30,4.64,4.29,4.64,-4.64,-4.43,-4.19,-0.34,-0.35,-0.35
175.02,4.24,4.58,4.24,4.58,-4.58,-4.37,-4.12,-0.34,-0.34,-0.35
176.77,4.19,4.52,4.18,4.52,-4.52,-4.32,-4.06,-0.34,-0.34,-0.34
178.54,4.13,4.46,4.13,4.46,-4.46,-4.27,-3.99,-0.34,-0.34,-0.34
180.32,4.07,4.40,4.07,4.41,-4.41,-4.22,-3.93,-0.34,-0.34,-0.34
182.13,4.02,4.35,4.01,4.35,-4.35,-4.17,-3.87,-0.33,-0.34,-0.34
183.95,3.96,4.29,3.96,4.29,-4.29,-4.12,-3.82,-0.34,-0.34,-0.34
185.79,3.90,4.23,3.90,4.24,-4.24,-4.06,-3.77,-0.34,-0.34,-0.34
187.65,3.85,4.18,3.84,4.18,-4.18,-4.01,-3.72,-0.34,-0.34,-0.34
189.52,3.79,4.12,3.79,4.12,-4.13,-3.96,-3.67,-0.34,-0.34,-0.34
191.42,3.74,4.07,3.74,4.07,-4.07,-3.91,-3.62,-0.34,-0.34,-0.34
193.33,3.69,4.02,3.68,4.02,-4.02,-3.86,-3.58,-0.34,-0.34,-0.34
195.27,3.64,3.97,3.63,3.97,-3.97,-3.81,-3.54,-0.33,-0.33,-0.34
197.22,3.58,3.91,3.58,3.92,-3.91,-3.77,-3.51,-0.34,-0.33,-0.34
199.19,3.53,3.86,3.52,3.86,-3.86,-3.72,-3.47,-0.33,-0.33,-0.34
201.18,3.48,3.80,3.47,3.80,-3.80,-3.67,-3.44,-0.33,-0.33,-0.33
203.19,3.42,3.74,3.42,3.75,-3.75,-3.62,-3.41,-0.33,-0.33,-0.33
205.23,3.38,3.69,3.37,3.69,-3.69,-3.57,-3.38,-0.32,-0.32,-0.32
207.28,3.32,3.63,3.32,3.63,-3.63,-3.52,-3.35,-0.32,-0.32,-0.32
209.35,3.27,3.58,3.26,3.58,-3.58,-3.48,-3.32,-0.31,-0.31,-0.32
211.44,3.21,3.51,3.21,3.52,-3.52,-3.43,-3.30,-0.31,-0.31,-0.31
213.56,3.16,3.46,3.15,3.46,-3.46,-3.38,-3.28,-0.30,-0.31,-0.31
215.69,3.10,3.40,3.10,3.40,-3.40,-3.34,-3.25,-0.30,-0.30,-0.31
217.85,3.05,3.35,3.04,3.35,-3.34,-3.29,-3.23,-0.29,-0.30,-0.31
220.03,2.99,3.28,2.98,3.28,-3.28,-3.25,-3.21,-0.29,-0.30,-0.30
222.23,2.92,3.21,2.92,3.22,-3.22,-3.20,-3.19,-0.31,-0.30,-0.30
224.45,2.86,3.15,2.86,3.15,-3.17,-3.16,-3.16,-0.31,-0.31,-0.30
226.70,2.81,3.10,2.81,3.10,-3.11,-3.11,-3.14,-0.31,-0.30,-0.30
228.96,2.77,3.05,2.76,3.06,-3.05,-3.07,-3.12,-0.29,-0.29,-0.29
231.25,2.73,3.01,2.72,3.01,-3.00,-3.02,-3.10,-0.27,-0.28,-0.29
233.57,2.68,2.96,2.68,2.96,-2.95,-2.98,-3.08,-0.27,-0.27,-0.29
235.90,2.63,2.90,2.62,2.90,-2.90,-2.94,-3.05,-0.27,-0.27,-0.28
238.26,2.57,2.84,2.57,2.84,-2.85,-2.89,-3.03,-0.28,-0.28,-0.28
240.64,2.52,2.78,2.52,2.78,-2.80,-2.85,-3.00,-0.28,-0.28,-0.27
243.05,2.48,2.73,2.48,2.74,-2.75,-2.81,-2.97,-0.27,-0.27,-0.26
245.48,2.45,2.69,2.45,2.70,-2.70,-2.77,-2.94,-0.25,-0.25,-0.25
247.93,2.42,2.66,2.41,2.65,-2.65,-2.73,-2.91,-0.23,-0.24,-0.25
250.41,2.38,2.61,2.37,2.61,-2.60,-2.68,-2.88,-0.22,-0.23,-0.24
252.92,2.33,2.55,2.33,2.56,-2.55,-2.64,-2.84,-0.23,-0.22,-0.23
255.45,2.29,2.50,2.29,2.51,-2.51,-2.60,-2.81,-0.22,-0.22,-0.22
258.00,2.25,2.46,2.24,2.46,-2.46,-2.56,-2.77,-0.22,-0.22,-0.22
260.58,2.21,2.41,2.20,2.41,-2.41,-2.52,-2.73,-0.21,-0.21,-0.21
263.19,2.16,2.36,2.16,2.36,-2.37,-2.48,-2.69,-0.21,-0.21,-0.21
265.82,2.12,2.32,2.12,2.32,-2.32,-2.44,-2.65,-0.21,-0.21,-0.21
268.48,2.08,2.27,2.08,2.28,-2.28,-2.40,-2.61,-0.20,-0.20,-0.20
271.16,2.05,2.24,2.04,2.24,-2.24,-2.37,-2.56,-0.19,-0.20,-0.20
273.87,2.01,2.20,2.00,2.20,-2.20,-2.33,-2.51,-0.19,-0.19,-0.20
276.61,1.97,2.15,1.97,2.16,-2.15,-2.29,-2.47,-0.19,-0.19,-0.19
279.38,1.93,2.11,1.93,2.11,-2.11,-2.25,-2.42,-0.19,-0.18,-0.19
282.17,1.90,2.07,1.89,2.07,-2.07,-2.22,-2.37,-0.17,-0.17,-0.18
284.99,1.86,2.03,1.85,2.03,-2.02,-2.18,-2.32,-0.17,-0.17,-0.18
287.84,1.81,1.98,1.81,1.98,-1.98,-2.14,-2.27,-0.17,-0.17,-0.18
290.72,1.76,1.93,1.76,1.94,-1.94,-2.10,-2.22,-0.18,-0.18,-0.18
293.63,1.72,1.89,1.71,1.89,-1.90,-2.07,-2.17,-0.18,-0.18,-0.18
296.57,1.68,1.85,1.68,1.85,-1.86,-2.03,-2.12,-0.18,-0.18,-0.18
299.53,1.65,1.81,1.65,1.82,-1.83,-2.00,-2.07,-0.18,-0.18,-0.17
302.53,1.63,1.79,1.62,1.79,-1.80,-1.96,-2.02,-0.17,-0.17,-0.17
305.55,1.61,1.77,1.61,1.77,-1.77,-1.93,-1.97,-0.16,-0.16,-0.17
308.61,1.60,1.75,1.59,1.75,-1.75,-1.89,-1.92,-0.15,-0.15,-0.16
311.69,1.58,1.73,1.57,1.73,-1.72,-1.86,-1.87,-0.15,-0.15,-0.16
314.81,1.56,1.70,1.56,1.71,-1.70,-1.82,-1.82,-0.15,-0.15,-0.15
317.96,1.54,1.68,1.54,1.68,-1.68,-1.79,-1.77,-0.15,-0.15,-0.15
321.14,1.52,1.65,1.51,1.65,-1.66,-1.76,-1.73,-0.14,-0.15,-0.14
324.35,1.50,1.63,1.50,1.63,-1.64,-1.72,-1.68,-0.14,-0.14,-0.14
327.59,1.48,1.61,1.48,1.61,-1.61,-1.69,-1.64,-0.14,-0.13,-0.14
330.87,1.47,1.59,1.46,1.59,-1.58,-1.66,-1.59,-0.12,-0.12,-0.13
334.18,1.45,1.56,1.44,1.56,-1.55,-1.62,-1.55,-0.11,-0.11,-0.12
337.52,1.42,1.53,1.42,1.53,-1.53,-1.59,-1.50,-0.11,-0.11,-0.12
340.90,1.39,1.49,1.39,1.50,-1.49,-1.56,-1.46,-0.11,-0.11,-0.11
344.30,1.36,1.46,1.35,1.46,-1.46,-1.53,-1.42,-0.11,-0.11,-0.11
347.75,1.33,1.43,1.32,1.43,-1.44,-1.50,-1.38,-0.11,-0.11,-0.11
351.23,1.30,1.40,1.30,1.40,-1.41,-1.46,-1.34,-0.11,-0.11,-0.11
354.74,1.28,1.37,1.28,1.38,-1.38,-1.43,-1.30,-0.11,-0.11,-0.10
358.28,1.26,1.35,1.26,1.36,-1.36,-1.40,-1.26,-0.10,-0.10,-0.10
361.87,1.25,1.34,1.24,1.34,-1.34,-1.37,-1.23,-0.09,-0.10,-0.10
365.49,1.23,1.32,1.22,1.32,-1.32,-1.34,-1.19,-0.09,-0.09,-0.10
369.14,1.21,1.30,1.21,1.30,-1.30,-1.31,-1.16,-0.09,-0.09,-0.10
372.83,1.19,1.28,1.19,1.28,-1.28,-1.28,-1.12,-0.09,-0.09,-0.10
376.56,1.17,1.25,1.17,1.26,-1.26,-1.25,-1.09,-0.09,-0.09,-0.09
380.33,1.15,1.23,1.15,1.23,-1.23,-1.22,-1.06,-0.09,-0.09,-0.09
384.13,1.13,1.21,1.12,1.21,-1.21,-1.19,-1.02,-0.09,-0.09,-0.09
387.97,1.11,1.19,1.10,1.19,-1.18,-1.16,-0.99,-0.08,-0.08,-0.09
391.85,1.08,1.15,1.08,1.16,-1.16,-1.13,-0.96,-0.08,-0.08,-0.08
395.77,1.06,1.13,1.05,1.13,-1.13,-1.10,-0.93,-0.07,-0.08,-0.08
399.73,1.03,1.09,1.03,1.10,-1.10,-1.07,-0.90,-0.07,-0.07,-0.07
403.72,1.01,1.07,1.00,1.07,-1.07,-1.04,-0.88,-0.06,-0.06,-0.07
407.76,0.98,1.03,0.98,1.03,-1.03,-1.01,-0.85,-0.06,-0.06,-0.06
411.84,0.95,1.00,0.95,1.00,-1.00,-0.98,-0.82,-0.05,-0.05,-0.06
