frequency,raw,error,smoothed,error_smoothed,equalization,parametric_eq,fixed_band_eq,equalized_raw,equalized_smoothed,target
20.00,7.28,5.06,7.28,5.06,-5.06,-4.64,-2.61,2.22,2.22,2.23
20.20,7.32,5.06,7.32,5.05,-5.05,-4.69,-2.68,2.27,2.26,2.27
20.40,7.35,5.05,7.35,5.05,-5.05,-4.74,-2.76,2.30,2.30,2.31
20.61,7.39,5.07,7.39,5.05,-5.05,-4.79,-2.84,2.34,2.34,2.32
20.81,7.42,5.06,7.42,5.06,-5.06,-4.83,-2.92,2.37,2.37,2.37
21.02,7.46,5.06,7.46,5.07,-5.06,-4.88,-3.01,2.40,2.40,2.40
21.23,7.50,5.08,7.50,5.07,-5.08,-4.93,-3.09,2.43,2.42,2.42
21.44,7.54,5.10,7.54,5.09,-5.09,-4.97,-3.18,2.45,2.45,2.44
21.66,7.57,5.11,7.57,5.11,-5.11,-5.02,-3.28,2.46,2.46,2.46
21.87,7.61,5.14,7.61,5.13,-5.14,-5.07,-3.37,2.48,2.47,2.47
22.09,7.65,5.16,7.65,5.16,-5.17,-5.11,-3.47,2.49,2.49,2.49
22.31,7.69,5.19,7.69,5.19,-5.20,-5.16,-3.57,2.49,2.49,2.50
22.54,7.74,5.24,7.74,5.23,-5.23,-5.20,-3.67,2.51,2.50,2.50
22.76,7.78,5.27,7.78,5.27,-5.27,-5.24,-3.77,2.51,2.51,2.51
22.99,7.83,5.32,7.83,5.31,-5.31,-5.29,-3.88,2.52,2.52,2.51
23.22,7.87,5.35,7.87,5.35,-5.35,-5.33,-3.99,2.52,2.53,2.52
23.45,7.92,5.39,7.92,5.39,-5.38,-5.37,-4.10,2.54,2.54,2.53
23.69,7.97,5.43,7.97,5.42,-5.42,-5.41,-4.22,2.55,2.55,2.54
23.92,8.01,5.45,8.01,5.45,-5.45,-5.45,-4.33,2.56,2.56,2.56
24.16,8.05,5.47,8.05,5.48,-5.48,-5.48,-4.45,2.57,2.57,2.58
24.40,8.09,5.50,8.09,5.50,-5.51,-5.52,-4.57,2.58,2.58,2.59
24.65,8.13,5.54,8.13,5.54,-5.53,-5.56,-4.70,2.60,2.60,2.59
24.89,8.17,5.56,8.17,5.56,-5.55,-5.59,-4.82,2.62,2.62,2.61
25.14,8.20,5.58,8.20,5.58,-5.57,-5.62,-4.95,2.63,2.63,2.62
25.39,8.22,5.59,8.22,5.59,-5.59,-5.66,-5.07,2.63,2.63,2.63
25.65,8.24,5.60,8.24,5.60,-5.61,-5.69,-5.20,2.63,2.63,2.64
25.91,8.26,5.61,8.26,5.62,-5.63,-5.72,-5.33,2.63,2.64,2.65
26.16,8.29,5.64,8.29,5.64,-5.65,-5.75,-5.46,2.64,2.65,2.66
26.43,8.33,5.67,8.33,5.66,-5.67,-5.77,-5.58,2.66,2.66,2.67
26.69,8.37,5.69,8.37,5.69,-5.69,-5.80,-5.71,2.68,2.68,2.68
26.96,8.41,5.72,8.41,5.72,-5.71,-5.82,-5.83,2.70,2.70,2.69
27.23,8.45,5.75,8.45,5.74,-5.73,-5.85,-5.96,2.72,2.71,2.70
27.50,8.48,5.76,8.48,5.76,-5.76,-5.87,-6.08,2.72,2.72,2.72
27.77,8.50,5.78,8.50,5.78,-5.78,-5.89,-6.19,2.72,2.73,2.72
28.05,8.53,5.79,8.53,5.79,-5.80,-5.90,-6.30,2.74,2.73,2.74
28.33,8.55,5.81,8.55,5.81,-5.81,-5.92,-6.41,2.74,2.74,2.74
28.62,8.58,5.82,8.58,5.83,-5.83,-5.94,-6.51,2.75,2.76,2.76
28.90,8.61,5.84,8.61,5.84,-5.84,-5.95,-6.60,2.77,2.77,2.77
29.19,8.63,5.85,8.63,5.85,-5.85,-5.96,-6.69,2.78,2.78,2.78
29.48,8.65,5.85,8.65,5.86,-5.86,-5.97,-6.76,2.79,2.79,2.80
29.78,8.67,5.86,8.67,5.87,-5.86,-5.98,-6.83,2.81,2.81,2.81
30.08,8.69,5.88,8.69,5.87,-5.87,-5.99,-6.89,2.82,2.82,2.81
30.38,8.69,5.87,8.69,5.87,-5.86,-5.99,-6.94,2.83,2.83,2.82
30.68,8.70,5.87,8.70,5.87,-5.86,-6.00,-6.98,2.84,2.84,2.83
30.99,8.69,5.85,8.69,5.85,-5.85,-6.00,-7.01,2.84,2.84,2.84
31.30,8.69,5.84,8.69,5.84,-5.84,-6.00,-7.03,2.85,2.85,2.85
31.61,8.68,5.81,8.68,5.82,-5.83,-6.00,-7.03,2.85,2.86,2.87
31.93,8.68,5.81,8.68,5.81,-5.82,-6.00,-7.03,2.87,2.87,2.87
32.24,8.68,5.80,8.68,5.80,-5.80,-5.99,-7.01,2.88,2.88,2.88
32.57,8.68,5.80,8.68,5.79,-5.79,-5.99,-6.99,2.89,2.89,2.88
32.89,8.68,5.78,8.68,5.78,-5.78,-5.98,-6.95,2.90,2.90,2.90
33.22,8.68,5.78,8.68,5.77,-5.77,-5.97,-6.91,2.91,2.91,2.90
33.55,8.68,5.76,8.68,5.76,-5.76,-5.96,-6.85,2.92,2.92,2.92
33.89,8.68,5.76,8.68,5.76,-5.76,-5.95,-6.79,2.92,2.92,2.92
34.23,8.68,5.74,8.68,5.75,-5.75,-5.93,-6.72,2.93,2.93,2.94
34.57,8.68,5.75,8.68,5.74,-5.74,-5.92,-6.65,2.94,2.94,2.94
34.92,8.68,5.74,8.68,5.74,-5.74,-5.90,-6.57,2.94,2.94,2.94
35.27,8.68,5.73,8.68,5.74,-5.73,-5.88,-6.48,2.95,2.95,2.95
35.62,8.68,5.73,8.68,5.73,-5.73,-5.86,-6.40,2.95,2.95,2.95
35.97,8.68,5.73,8.68,5.72,-5.73,-5.84,-6.30,2.96,2.96,2.95
36.33,8.68,5.72,8.68,5.72,-5.72,-5.82,-6.21,2.96,2.96,2.97
36.70,8.68,5.72,8.68,5.72,-5.72,-5.80,-6.11,2.96,2.96,2.96
37.06,8.68,5.73,8.68,5.72,-5.73,-5.77,-6.02,2.95,2.95,2.95
37.43,8.68,5.72,8.68,5.73,-5.73,-5.75,-5.92,2.95,2.95,2.96
37.81,8.68,5.73,8.68,5.73,-5.73,-5.72,-5.82,2.95,2.95,2.96
38.19,8.69,5.74,8.69,5.74,-5.74,-5.69,-5.72,2.95,2.95,2.95
38.57,8.70,5.74,8.70,5.74,-5.74,-5.66,-5.63,2.96,2.96,2.96
38.95,8.70,5.75,8.70,5.75,-5.74,-5.63,-5.53,2.96,2.96,2.95
39.34,8.69,5.75,8.69,5.75,-5.74,-5.60,-5.44,2.95,2.95,2.94
39.74,8.67,5.74,8.68,5.74,-5.73,-5.57,-5.35,2.94,2.94,2.93
40.14,8.66,5.72,8.66,5.72,-5.72,-5.54,-5.26,2.94,2.93,2.94
40.54,8.63,5.71,8.63,5.70,-5.71,-5.50,-5.17,2.92,2.92,2.92
40.94,8.61,5.68,8.61,5.68,-5.69,-5.47,-5.09,2.92,2.92,2.93
41.35,8.59,5.66,8.59,5.66,-5.66,-5.44,-5.00,2.93,2.93,2.93
41.76,8.57,5.65,8.57,5.64,-5.64,-5.40,-4.93,2.93,2.93,2.92
42.18,8.54,5.61,8.54,5.61,-5.60,-5.36,-4.85,2.94,2.93,2.93
42.60,8.50,5.57,8.50,5.57,-5.57,-5.33,-4.78,2.93,2.93,2.93
43.03,8.46,5.53,8.46,5.53,-5.53,-5.29,-4.71,2.93,2.93,2.93
43.46,8.42,5.49,8.42,5.49,-5.49,-5.25,-4.64,2.93,2.92,2.93
43.90,8.37,5.45,8.37,5.45,-5.45,-5.21,-4.58,2.92,2.92,2.92
44.33,8.32,5.40,8.33,5.41,-5.41,-5.18,-4.52,2.91,2.91,2.92
44.78,8.28,5.37,8.28,5.37,-5.37,-5.14,-4.47,2.91,2.91,2.91
45.23,8.25,5.33,8.25,5.33,-5.33,-5.10,-4.42,2.92,2.91,2.92
45.68,8.21,5.30,8.21,5.30,-5.29,-5.06,-4.37,2.92,2.92,2.91
46.13,8.18,5.26,8.18,5.26,-5.25,-5.02,-4.32,2.93,2.93,2.92
46.60,8.15,5.22,8.15,5.22,-5.22,-4.98,-4.28,2.93,2.93,2.93
47.06,8.11,5.19,8.11,5.18,-5.18,-4.94,-4.24,2.93,2.93,2.93
47.53,8.07,5.14,8.07,5.14,-5.14,-4.90,-4.20,2.93,2.93,2.93
48.01,8.03,5.09,8.03,5.10,-5.10,-4.86,-4.17,2.93,2.93,2.94
48.49,7.99,5.05,8.00,5.06,-5.07,-4.82,-4.14,2.92,2.93,2.94
48.97,7.96,5.04,7.96,5.03,-5.03,-4.78,-4.11,2.93,2.92,2.92
49.46,7.92,5.01,7.92,5.01,-5.00,-4.74,-4.09,2.92,2.91,2.91
49.96,7.87,4.98,7.88,4.97,-4.97,-4.70,-4.07,2.90,2.91,2.90
50.46,7.83,4.92,7.83,4.93,-4.94,-4.66,-4.05,2.90,2.90,2.91
50.96,7.80,4.90,7.80,4.90,-4.90,-4.62,-4.03,2.90,2.90,2.90
51.47,7.76,4.88,7.76,4.87,-4.86,-4.59,-4.02,2.90,2.90,2.88
51.99,7.72,4.84,7.72,4.84,-4.83,-4.55,-4.01,2.89,2.89,2.88
52.51,7.67,4.79,7.67,4.79,-4.79,-4.51,-4.00,2.88,2.88,2.88
53.03,7.61,4.74,7.62,4.74,-4.75,-4.47,-3.99,2.86,2.87,2.88
53.56,7.56,4.70,7.56,4.70,-4.71,-4.43,-3.98,2.85,2.86,2.87
54.10,7.51,4.67,7.51,4.66,-4.67,-4.40,-3.97,2.85,2.85,2.85
54.64,7.46,4.63,7.46,4.63,-4.62,-4.36,-3.97,2.84,2.84,2.84
55.18,7.41,4.59,7.41,4.59,-4.58,-4.32,-3.97,2.83,2.83,2.83
55.74,7.35,4.55,7.35,4.54,-4.54,-4.29,-3.96,2.81,2.81,2.80
56.29,7.30,4.50,7.30,4.50,-4.50,-4.25,-3.96,2.80,2.80,2.80
56.86,7.24,4.46,7.24,4.46,-4.45,-4.22,-3.96,2.79,2.79,2.78
57.42,7.18,4.42,7.18,4.41,-4.41,-4.18,-3.96,2.77,2.77,2.76
58.00,7.11,4.36,7.11,4.37,-4.36,-4.15,-3.96,2.75,2.75,2.75
58.58,7.05,4.32,7.05,4.31,-4.32,-4.11,-3.95,2.73,2.73,2.73
59.16,6.98,4.26,6.99,4.27,-4.27,-4.08,-3.95,2.71,2.71,2.72
59.76,6.93,4.22,6.93,4.22,-4.23,-4.05,-3.95,2.70,2.70,2.71
60.35,6.87,4.19,6.87,4.18,-4.19,-4.02,-3.94,2.68,2.68,2.68
60.96,6.80,4.14,6.80,4.15,-4.14,-3.99,-3.94,2.66,2.66,2.66
61.57,6.73,4.11,6.73,4.11,-4.10,-3.96,-3.93,2.63,2.63,2.62
62.18,6.66,4.06,6.66,4.06,-4.06,-3.93,-3.93,2.60,2.60,2.60
62.80,6.59,4.02,6.59,4.02,-4.01,-3.90,-3.92,2.58,2.58,2.57
63.43,6.51,3.96,6.51,3.97,-3.96,-3.87,-3.91,2.55,2.55,2.55
64.07,6.44,3.92,6.44,3.92,-3.92,-3.84,-3.90,2.53,2.52,2.52
64.71,6.36,3.86,6.36,3.86,-3.87,-3.82,-3.89,2.50,2.50,2.50
65.35,6.29,3.82,6.29,3.81,-3.81,-3.79,-3.88,2.48,2.47,2.47
66.01,6.21,3.76,6.21,3.76,-3.76,-3.77,-3.87,2.45,2.45,2.46
66.67,6.13,3.70,6.14,3.71,-3.71,-3.75,-3.86,2.42,2.43,2.43
67.33,6.06,3.66,6.06,3.66,-3.66,-3.72,-3.85,2.40,2.40,2.40
68.01,5.98,3.60,5.98,3.61,-3.60,-3.70,-3.84,2.38,2.38,2.38
68.69,5.90,3.55,5.90,3.56,-3.55,-3.68,-3.82,2.35,2.35,2.35
69.37,5.83,3.51,5.83,3.50,-3.50,-3.66,-3.81,2.33,2.33,2.32
70.07,5.75,3.45,5.75,3.45,-3.45,-3.64,-3.80,2.30,2.30,2.30
70.77,5.68,3.40,5.68,3.40,-3.41,-3.63,-3.78,2.28,2.27,2.28
71.48,5.61,3.35,5.61,3.35,-3.36,-3.61,-3.77,2.25,2.25,2.26
72.19,5.54,3.31,5.54,3.31,-3.32,-3.59,-3.76,2.22,2.23,2.23
72.91,5.48,3.27,5.48,3.27,-3.28,-3.58,-3.75,2.21,2.21,2.21
73.64,5.43,3.25,5.43,3.24,-3.23,-3.57,-3.74,2.20,2.19,2.18
74.38,5.37,3.20,5.37,3.20,-3.19,-3.55,-3.74,2.18,2.18,2.17
75.12,5.31,3.16,5.31,3.16,-3.15,-3.54,-3.73,2.16,2.16,2.15
75.87,5.25,3.10,5.25,3.11,-3.10,-3.53,-3.72,2.15,2.15,2.15
76.63,5.19,3.06,5.19,3.06,-3.06,-3.52,-3.72,2.13,2.13,2.13
77.40,5.13,3.01,5.13,3.01,-3.01,-3.52,-3.72,2.12,2.12,2.12
78.17,5.07,2.97,5.07,2.96,-2.96,-3.51,-3.72,2.11,2.11,2.10
78.95,5.02,2.92,5.02,2.92,-2.91,-3.51,-3.73,2.11,2.11,2.10
79.74,4.97,2.88,4.97,2.87,-2.87,-3.50,-3.73,2.10,2.10,2.10
80.54,4.92,2.84,4.92,2.83,-2.84,-3.50,-3.74,2.09,2.08,2.09
81.35,4.87,2.80,4.87,2.80,-2.80,-3.50,-3.75,2.07,2.07,2.07
82.16,4.83,2.77,4.83,2.77,-2.78,-3.50,-3.77,2.05,2.05,2.06
82.98,4.81,2.75,4.81,2.76,-2.76,-3.50,-3.78,2.05,2.05,2.06
83.81,4.80,2.76,4.80,2.76,-2.75,-3.51,-3.80,2.05,2.05,2.04
84.65,4.80,2.76,4.79,2.76,-2.75,-3.51,-3.83,2.05,2.04,2.04
85.50,4.79,2.76,4.79,2.76,-2.76,-3.52,-3.85,2.03,2.03,2.03
86.35,4.79,2.77,4.80,2.77,-2.78,-3.52,-3.88,2.02,2.02,2.02
87.22,4.81,2.80,4.81,2.79,-2.80,-3.53,-3.91,2.01,2.00,2.01
88.09,4.83,2.83,4.83,2.83,-2.84,-3.55,-3.94,1.99,1.99,2.00
88.97,4.87,2.87,4.87,2.88,-2.88,-3.56,-3.98,1.99,1.99,2.00
89.86,4.92,2.93,4.92,2.93,-2.93,-3.57,-4.02,1.99,1.99,1.99
90.76,4.98,3.01,4.98,3.00,-2.99,-3.59,-4.06,1.99,1.99,1.97
91.66,5.04,3.07,5.04,3.07,-3.06,-3.61,-4.11,1.98,1.98,1.98
92.58,5.10,3.14,5.10,3.14,-3.13,-3.62,-4.16,1.97,1.97,1.96
93.51,5.17,3.21,5.17,3.21,-3.21,-3.65,-4.21,1.96,1.96,1.96
94.44,5.24,3.29,5.24,3.29,-3.29,-3.67,-4.26,1.95,1.95,1.95
95.39,5.31,3.36,5.32,3.38,-3.38,-3.69,-4.32,1.93,1.94,1.95
96.34,5.40,3.48,5.40,3.47,-3.47,-3.72,-4.38,1.93,1.93,1.92
97.30,5.48,3.57,5.48,3.57,-3.56,-3.75,-4.44,1.92,1.91,1.91
98.28,5.56,3.66,5.57,3.67,-3.67,-3.78,-4.50,1.89,1.90,1.90
99.26,5.66,3.78,5.66,3.77,-3.77,-3.81,-4.57,1.89,1.88,1.88
100.25,5.75,3.88,5.75,3.88,-3.89,-3.84,-4.64,1.86,1.86,1.87
101.25,5.85,4.00,5.85,4.00,-4.00,-3.88,-4.70,1.85,1.85,1.85
102.27,5.95,4.12,5.95,4.12,-4.12,-3.91,-4.77,1.83,1.83,1.83
103.29,6.06,4.26,6.06,4.25,-4.25,-3.95,-4.85,1.81,1.81,1.80
104.32,6.17,4.38,6.17,4.38,-4.38,-3.99,-4.92,1.79,1.79,1.80
105.37,6.28,4.51,6.28,4.51,-4.51,-4.03,-4.99,1.77,1.77,1.77
106.42,6.38,4.63,6.38,4.64,-4.64,-4.08,-5.06,1.74,1.74,1.75
107.48,6.48,4.76,6.48,4.77,-4.77,-4.13,-5.13,1.71,1.71,1.72
108.56,6.58,4.90,6.58,4.90,-4.90,-4.17,-5.20,1.68,1.68,1.68
109.64,6.67,5.02,6.67,5.02,-5.02,-4.22,-5.27,1.65,1.65,1.65
110.74,6.75,5.14,6.76,5.14,-5.14,-4.27,-5.33,1.61,1.61,1.61
111.85,6.83,5.25,6.83,5.26,-5.26,-4.33,-5.40,1.57,1.57,1.58
112.97,6.91,5.38,6.90,5.37,-5.37,-4.38,-5.46,1.54,1.53,1.53
114.10,6.96,5.47,6.96,5.47,-5.47,-4.44,-5.51,1.49,1.50,1.49
115.24,7.01,5.56,7.01,5.56,-5.56,-4.49,-5.56,1.45,1.45,1.46
116.39,7.05,5.64,7.05,5.64,-5.64,-4.55,-5.61,1.42,1.41,1.41
117.55,7.07,5.70,7.07,5.71,-5.70,-4.61,-5.65,1.37,1.37,1.37
118.73,7.08,5.76,7.08,5.75,-5.75,-4.67,-5.69,1.33,1.33,1.32
119.92,7.07,5.79,7.07,5.79,-5.78,-4.73,-5.72,1.29,1.29,1.29
121.12,7.05,5.80,7.05,5.80,-5.80,-4.80,-5.74,1.25,1.25,1.25
122.33,7.02,5.81,7.02,5.81,-5.80,-4.86,-5.76,1.22,1.22,1.21
123.55,6.98,5.79,6.98,5.79,-5.79,-4.92,-5.76,1.19,1.18,1.19
124.79,6.92,5.77,6.92,5.77,-5.77,-4.99,-5.76,1.15,1.15,1.15
126.03,6.85,5.73,6.85,5.74,-5.74,-5.05,-5.76,1.11,1.11,1.12
127.29,6.78,5.70,6.78,5.70,-5.70,-5.11,-5.74,1.08,1.08,1.08
128.57,6.70,5.66,6.70,5.66,-5.65,-5.17,-5.72,1.05,1.05,1.04
129.85,6.61,5.60,6.61,5.60,-5.60,-5.23,-5.70,1.01,1.01,1.01
131.15,6.52,5.54,6.52,5.54,-5.54,-5.29,-5.66,0.98,0.98,0.98
132.46,6.42,5.46,6.43,5.47,-5.47,-5.35,-5.62,0.95,0.95,0.96
133.79,6.34,5.40,6.34,5.41,-5.41,-5.41,-5.57,0.93,0.93,0.94
135.12,6.25,5.35,6.25,5.34,-5.34,-5.46,-5.52,0.91,0.91,0.90
136.48,6.16,5.28,6.16,5.28,-5.28,-5.52,-5.46,0.88,0.88,0.88
137.84,6.07,5.21,6.07,5.22,-5.21,-5.57,-5.40,0.86,0.86,0.86
139.22,5.98,5.16,5.99,5.15,-5.15,-5.61,-5.33,0.83,0.83,0.82
140.61,5.91,5.11,5.91,5.10,-5.10,-5.65,-5.26,0.81,0.81,0.80
142.02,5.83,5.03,5.83,5.04,-5.05,-5.69,-5.19,0.79,0.79,0.80
143.44,5.76,4.99,5.76,5.00,-5.00,-5.73,-5.11,0.76,0.77,0.77
144.87,5.70,4.96,5.70,4.96,-4.96,-5.75,-5.04,0.74,0.74,0.74
146.32,5.65,4.94,5.65,4.93,-4.93,-5.78,-4.96,0.72,0.72,0.71
147.78,5.59,4.89,5.60,4.90,-4.90,-5.80,-4.88,0.69,0.69,0.70
149.26,5.55,4.88,5.55,4.88,-4.88,-5.81,-4.80,0.67,0.66,0.67
150.75,5.51,4.87,5.51,4.87,-4.88,-5.82,-4.72,0.63,0.63,0.64
152.26,5.48,4.88,5.48,4.87,-4.88,-5.82,-4.64,0.60,0.60,0.60
153.78,5.46,4.88,5.46,4.88,-4.89,-5.82,-4.56,0.58,0.57,0.58
155.32,5.44,4.89,5.45,4.90,-4.90,-5.81,-4.48,0.54,0.55,0.55
156.88,5.44,4.92,5.44,4.92,-4.92,-5.80,-4.40,0.52,0.52,0.52
158.44,5.44,4.95,5.44,4.95,-4.95,-5.78,-4.33,0.49,0.49,0.49
160.03,5.43,4.98,5.43,4.98,-4.98,-5.76,-4.25,0.45,0.46,0.45
161.63,5.43,5.01,5.43,5.01,-5.01,-5.73,-4.18,0.42,0.42,0.42
163.24,5.42,5.04,5.42,5.04,-5.04,-5.69,-4.11,0.38,0.39,0.38
164.88,5.42,5.06,5.42,5.07,-5.07,-5.65,-4.04,0.35,0.36,0.36
166.53,5.42,5.10,5.42,5.10,-5.09,-5.61,-3.98,0.33,0.33,0.32
168.19,5.41,5.12,5.41,5.12,-5.11,-5.56,-3.92,0.30,0.30,0.29
169.87,5.38,5.13,5.38,5.13,-5.12,-5.51,-3.86,0.26,0.26,0.25
171.57,5.35,5.14,5.35,5.14,-5.14,-5.45,-3.80,0.21,0.21,0.22
173.29,5.31,5.14,5.31,5.14,-5.14,-5.40,-3.75,0.17,0.17,0.17
175.02,5.27,5.14,5.27,5.14,-5.15,-5.34,-3.70,0.12,0.12,0.13
176.77,5.23,5.15,5.23,5.15,-5.15,-5.27,-3.65,0.08,0.08,0.09
178.54,5.18,5.15,5.18,5.15,-5.15,-5.21,-3.60,0.03,0.03,0.03
180.32,5.13,5.15,5.13,5.15,-5.14,-5.15,-3.56,-0.01,-0.01,-0.02
182.13,5.08,5.14,5.08,5.14,-5.14,-5.08,-3.52,-0.05,-0.06,-0.06
183.95,5.01,5.12,5.02,5.13,-5.12,-5.02,-3.48,-0.11,-0.11,-0.11
185.79,4.95,5.11,4.95,5.11,-5.11,-4.96,-3.45,-0.16,-0.16,-0.16
187.65,4.88,5.09,4.88,5.09,-5.09,-4.90,-3.41,-0.21,-0.21,-0.21
189.52,4.80,5.05,4.81,5.06,-5.07,-4.84,-3.38,-0.26,-0.26,-0.25
191.42,4.73,5.03,4.73,5.03,-5.04,-4.78,-3.36,-0.30,-0.30,-0.30
193.33,4.66,5.00,4.66,5.00,-5.00,-4.73,-3.33,-0.34,-0.34,-0.34
195.27,4.58,4.96,4.58,4.96,-4.96,-4.68,-3.31,-0.37,-0.38,-0.38
197.22,4.48,4.91,4.48,4.92,-4.91,-4.64,-3.29,-0.42,-0.42,-0.43
199.19,4.38,4.86,4.38,4.86,-4.85,-4.60,-3.27,-0.47,-0.47,-0.48
201.18,4.27,4.79,4.27,4.79,-4.78,-4.56,-3.25,-0.51,-0.52,-0.52
203.19,4.15,4.70,4.15,4.71,-4.71,-4.52,-3.24,-0.56,-0.56,-0.55
205.23,4.03,4.62,4.04,4.63,-4.63,-4.49,-3.23,-0.60,-0.60,-0.59
207.28,3.92,4.54,3.92,4.55,-4.55,-4.45,-3.21,-0.63,-0.63,-0.62
209.35,3.79,4.46,3.79,4.46,-4.46,-4.41,-3.20,-0.67,-0.67,-0.67
211.44,3.65,4.37,3.65,4.36,-4.36,-4.37,-3.19,-0.71,-0.71,-0.72
213.56,3.51,4.26,3.51,4.26,-4.26,-4.32,-3.18,-0.75,-0.75,-0.75
215.69,3.37,4.15,3.38,4.16,-4.16,-4.26,-3.17,-0.79,-0.79,-0.78
217.85,3.25,4.07,3.24,4.06,-4.06,-4.19,-3.17,-0.81,-0.82,-0.82
220.03,3.11,3.96,3.11,3.96,-3.96,-4.10,-3.16,-0.84,-0.85,-0.85
222.23,2.97,3.85,2.98,3.85,-3.85,-4.00,-3.15,-0.88,-0.87,-0.88
224.45,2.84,3.74,2.84,3.74,-3.74,-3.90,-3.14,-0.90,-0.90,-0.90
226.70,2.72,3.64,2.72,3.64,-3.64,-3.78,-3.13,-0.92,-0.92,-0.91
228.96,2.60,3.54,2.60,3.54,-3.54,-3.65,-3.12,-0.94,-0.94,-0.94
231.25,2.48,3.43,2.48,3.43,-3.44,-3.52,-3.11,-0.96,-0.96,-0.95
233.57,2.37,3.34,2.37,3.33,-3.34,-3.39,-3.09,-0.97,-0.97,-0.96
235.90,2.26,3.23,2.27,3.24,-3.24,-3.27,-3.08,-0.98,-0.97,-0.97
238.26,2.18,3.17,2.18,3.16,-3.15,-3.14,-3.06,-0.97,-0.98,-0.99
240.64,2.09,3.07,2.08,3.07,-3.06,-3.02,-3.04,-0.97,-0.98,-0.98
243.05,1.99,2.97,1.99,2.98,-2.97,-2.90,-3.02,-0.98,-0.98,-0.98
245.48,1.90,2.88,1.90,2.88,-2.89,-2.79,-3.00,-0.98,-0.98,-0.98
247.93,1.82,2.80,1.82,2.80,-2.80,-2.68,-2.97,-0.98,-0.98,-0.98
250.41,1.74,2.72,1.74,2.71,-2.72,-2.58,-2.94,-0.97,-0.97,-0.98
252.92,1.67,2.63,1.67,2.63,-2.63,-2.48,-2.91,-0.96,-0.96,-0.96
255.45,1.60,2.54,1.60,2.55,-2.55,-2.38,-2.88,-0.95,-0.95,-0.94
258.00,1.53,2.47,1.53,2.47,-2.47,-2.29,-2.84,-0.94,-0.94,-0.93
260.58,1.46,2.39,1.46,2.39,-2.39,-2.20,-2.80,-0.93,-0.92,-0.93
263.19,1.40,2.31,1.39,2.31,-2.31,-2.12,-2.76,-0.91,-0.91,-0.91
265.82,1.32,2.23,1.33,2.23,-2.23,-2.03,-2.72,-0.91,-0.90,-0.91
268.48,1.26,2.14,1.26,2.15,-2.15,-1.95,-2.67,-0.88,-0.88,-0.88
271.16,1.20,2.06,1.19,2.06,-2.06,-1.88,-2.63,-0.86,-0.87,-0.86
273.87,1.12,1.98,1.12,1.98,-1.98,-1.80,-2.58,-0.86,-0.86,-0.86
276.61,1.05,1.89,1.05,1.90,-1.90,-1.73,-2.53,-0.84,-0.84,-0.84
279.38,0.98,1.81,0.98,1.81,-1.81,-1.65,-2.47,-0.83,-0.83,-0.83
282.17,0.91,1.73,0.91,1.73,-1.72,-1.58,-2.42,-0.81,-0.81,-0.82
284.99,0.83,1.63,0.83,1.63,-1.63,-1.51,-2.36,-0.80,-0.80,-0.80
287.84,0.75,1.54,0.75,1.54,-1.54,-1.44,-2.31,-0.79,-0.79,-0.79
290.72,0.66,1.44,0.67,1.45,-1.45,-1.37,-2.25,-0.78,-0.78,-0.78
293.63,0.59,1.36,0.59,1.35,-1.35,-1.30,-2.19,-0.76,-0.76,-0.77
296.57,0.51,1.26,0.50,1.26,-1.25,-1.23,-2.14,-0.74,-0.75,-0.75
299.53,0.41,1.15,0.41,1.15,-1.15,-1.16,-2.08,-0.74,-0.74,-0.74
302.53,0.31,1.05,0.32,1.05,-1.05,-1.09,-2.02,-0.74,-0.74,-0.73
305.55,0.23,0.95,0.23,0.95,-0.95,-1.02,-1.96,-0.72,-0.72,-0.72
308.61,0.15,0.86,0.15,0.86,-0.85,-0.95,-1.90,-0.70,-0.71,-0.71
311.69,0.07,0.76,0.07,0.76,-0.76,-0.88,-1.85,-0.69,-0.69,-0.69
314.81,-0.01,0.66,-0.01,0.66,-0.66,-0.81,-1.79,-0.67,-0.67,-0.67
317.96,-0.10,0.57,-0.10,0.57,-0.57,-0.73,-1.73,-0.67,-0.66,-0.66
321.14,-0.18,0.48,-0.18,0.48,-0.48,-0.66,-1.68,-0.66,-0.66,-0.66
324.35,-0.26,0.39,-0.26,0.39,-0.39,-0.58,-1.62,-0.65,-0.65,-0.65
327.59,-0.33,0.31,-0.33,0.31,-0.32,-0.50,-1.56,-0.65,-0.65,-0.64
330.87,-0.40,0.23,-0.39,0.24,-0.24,-0.42,-1.51,-0.64,-0.64,-0.63
334.18,-0.45,0.17,-0.45,0.17,-0.18,-0.34,-1.46,-0.63,-0.63,-0.62
337.52,-0.50,0.13,-0.50,0.12,-0.12,-0.26,-1.40,-0.62,-0.62,-0.62
340.90,-0.55,0.06,-0.55,0.07,-0.06,-0.18,-1.35,-0.61,-0.61,-0.61
344.30,-0.59,0.02,-0.59,0.02,-0.01,-0.10,-1.30,-0.60,-0.60,-0.61
347.75,-0.63,-0.03,-0.63,-0.03,0.03,-0.02,-1.25,-0.60,-0.60,-0.60
351.23,-0.67,-0.07,-0.67,-0.07,0.08,0.06,-1.20,-0.59,-0.59,-0.60
354.74,-0.72,-0.12,-0.72,-0.12,0.12,0.13,-1.15,-0.60,-0.60,-0.60
358.28,-0.76,-0.17,-0.76,-0.16,0.16,0.20,-1.10,-0.60,-0.60,-0.59
361.87,-0.80,-0.21,-0.80,-0.20,0.20,0.27,-1.05,-0.60,-0.60,-0.59
365.49,-0.83,-0.23,-0.83,-0.24,0.24,0.33,-1.01,-0.59,-0.60,-0.59
369.14,-0.87,-0.26,-0.87,-0.27,0.27,0.38,-0.96,-0.60,-0.60,-0.61
372.83,-0.91,-0.30,-0.91,-0.30,0.31,0.42,-0.92,-0.60,-0.60,-0.61
376.56,-0.94,-0.33,-0.94,-0.33,0.34,0.45,-0.87,-0.60,-0.60,-0.61
380.33,-0.97,-0.37,-0.97,-0.36,0.36,0.46,-0.83,-0.61,-0.60,-0.60
384.13,-0.99,-0.38,-0.99,-0.39,0.39,0.47,-0.79,-0.60,-0.61,-0.61
387.97,-1.02,-0.41,-1.02,-0.41,0.40,0.47,-0.75,-0.62,-0.61,-0.61
391.85,-1.04,-0.42,-1.03,-0.42,0.42,0.46,-0.71,-0.62,-0.62,-0.62
395.77,-1.04,-0.43,-1.04,-0.42,0.42,0.44,-0.67,-0.62,-0.62,-0.61
399.73,-1.04,-0.42,-1.04,-0.42,0.41,0.42,-0.63,-0.62,-0.62,-0.62
403.72,-1.03,-0.41,-1.03,-0.41,0.40,0.39,-0.59,-0.63,-0.63,-0.62
407.76,-1.01,-0.38,-1.01,-0.39,0.38,0.35,-0.55,-0.63,-0.63,-0.62
411.84,-0.98,-0.36,-0.98,-0.36,0.35,0.32,-0.52,-0.63,-0.63,-0.61
415.96,-0.94,-0.32,-0.94,-0.32,0.32,0.28,-0.48,-0.62,-0.62,-0.62
420.12,-0.90,-0.28,-0.90,-0.28,0.28,0.24,-0.45,-0.62,-0.62,-0.62
424.32,-0.86,-0.24,-0.86,-0.24,0.25,0.20,-0.41,-0.61,-0.61,-0.62
428.56,-0.83,-0.20,-0.83,-0.20,0.22,0.16,-0.38,-0.61,-0.61,-0.63
432.85,-0.80,-0.17,-0.80,-0.17,0.19,0.12,-0.35,-0.61,-0.61,-0.63
437.18,-0.78,-0.15,-0.78,-0.15,0.16,0.08,-0.32,-0.62,-0.62,-0.63
441.55,-0.76,-0.14,-0.76,-0.14,0.14,0.05,-0.29,-0.62,-0.62,-0.62
445.96,-0.75,-0.13,-0.75,-0.13,0.13,0.02,-0.26,-0.62,-0.62,-0.62
450.42,-0.74,-0.11,-0.74,-0.12,0.11,-0.01,-0.23,-0.62,-0.62,-0.63
454.93,-0.73,-0.11,-0.73,-0.11,0.11,-0.04,-0.21,-0.62,-0.62,-0.62
459.48,-0.72,-0.10,-0.72,-0.10,0.10,-0.07,-0.18,-0.62,-0.62,-0.62
464.07,-0.71,-0.09,-0.71,-0.09,0.09,-0.09,-0.16,-0.62,-0.62,-0.62
468.71,-0.70,-0.09,-0.70,-0.08,0.08,-0.12,-0.14,-0.62,-0.62,-0.61
473.40,-0.68,-0.06,-0.68,-0.06,0.07,-0.14,-0.12,-0.61,-0.61,-0.62
478.13,-0.66,-0.05,-0.66,-0.05,0.05,-0.16,-0.10,-0.61,-0.61,-0.61
482.91,-0.64,-0.03,-0.64,-0.03,0.03,-0.18,-0.08,-0.61,-0.61,-0.61
487.74,-0.62,-0.01,-0.62,-0.01,0.00,-0.19,-0.07,-0.62,-0.62,-0.61
492.62,-0.59,0.01,-0.59,0.02,-0.03,-0.21,-0.05,-0.62,-0.62,-0.60
497.55,-0.55,0.06,-0.55,0.06,-0.07,-0.23,-0.04,-0.62,-0.62,-0.61
502.52,-0.51,0.09,-0.51,0.10,-0.10,-0.24,-0.03,-0.61,-0.61,-0.60
507.55,-0.46,0.15,-0.46,0.15,-0.14,-0.25,-0.02,-0.60,-0.60,-0.61
