frequency,raw,error,smoothed,error_smoothed,equalization,parametric_eq,fixed_band_eq,equalized_raw,equalized_smoothed,target
20.00,-8.46,-10.69,-8.48,-10.70,6.00,5.68,2.87,-2.46,-2.48,2.23
20.20,-8.40,-10.63,-8.39,-10.62,6.00,5.71,2.95,-2.40,-2.39,2.23
20.40,-8.31,-10.54,-8.30,-10.53,6.00,5.74,3.03,-2.31,-2.30,2.23
20.61,-8.19,-10.42,-8.19,-10.43,6.00,5.78,3.11,-2.19,-2.19,2.23
20.81,-8.07,-10.31,-8.07,-10.30,6.00,5.81,3.20,-2.07,-2.07,2.23
21.02,-7.94,-10.18,-7.95,-10.18,6.00,5.84,3.29,-1.94,-1.95,2.24
21.23,-7.83,-10.07,-7.83,-10.07,6.00,5.87,3.38,-1.83,-1.83,2.24
21.44,-7.72,-9.96,-7.72,-9.96,6.00,5.89,3.48,-1.72,-1.72,2.24
21.66,-7.61,-9.85,-7.61,-9.85,6.00,5.92,3.57,-1.61,-1.61,2.24
21.87,-7.50,-9.74,-7.50,-9.74,6.00,5.95,3.67,-1.50,-1.50,2.24
22.09,-7.39,-9.63,-7.40,-9.64,6.00,5.97,3.78,-1.39,-1.40,2.24
22.31,-7.31,-9.55,-7.30,-9.55,6.00,5.99,3.88,-1.31,-1.30,2.24
22.54,-7.20,-9.45,-7.21,-9.46,6.00,6.02,3.99,-1.20,-1.21,2.24
22.76,-7.14,-9.39,-7.13,-9.38,6.00,6.04,4.10,-1.14,-1.13,2.24
22.99,-7.04,-9.29,-7.05,-9.30,6.00,6.06,4.22,-1.04,-1.05,2.25
23.22,-6.97,-9.22,-6.97,-9.22,6.00,6.08,4.33,-0.97,-0.97,2.25
23.45,-6.90,-9.15,-6.89,-9.14,6.00,6.09,4.45,-0.90,-0.89,2.25
23.69,-6.79,-9.04,-6.81,-9.06,6.00,6.11,4.57,-0.79,-0.81,2.25
23.92,-6.73,-8.98,-6.72,-8.97,6.00,6.13,4.70,-0.73,-0.72,2.25
24.16,-6.62,-8.87,-6.63,-8.88,6.00,6.14,4.82,-0.62,-0.63,2.25
24.40,-6.55,-8.80,-6.54,-8.79,6.00,6.15,4.95,-0.55,-0.54,2.25
24.65,-6.45,-8.71,-6.46,-8.71,6.00,6.17,5.08,-0.45,-0.46,2.25
24.89,-6.37,-8.62,-6.38,-8.64,6.00,6.18,5.21,-0.37,-0.38,2.25
25.14,-6.31,-8.57,-6.31,-8.57,6.00,6.19,5.35,-0.31,-0.31,2.25
25.39,-6.25,-8.51,-6.24,-8.50,6.00,6.19,5.48,-0.25,-0.24,2.25
25.65,-6.16,-8.42,-6.15,-8.41,6.00,6.20,5.62,-0.16,-0.15,2.26
25.91,-6.06,-8.31,-6.06,-8.31,6.00,6.21,5.75,-0.06,-0.06,2.26
26.16,-5.94,-8.20,-5.96,-8.21,6.00,6.21,5.89,0.06,0.04,2.26
26.43,-5.88,-8.14,-5.88,-8.14,6.00,6.21,6.02,0.12,0.12,2.26
26.69,-5.81,-8.07,-5.82,-8.08,6.00,6.21,6.16,0.19,0.18,2.26
26.96,-5.77,-8.03,-5.77,-8.03,6.00,6.21,6.29,0.23,0.23,2.26
27.23,-5.72,-7.98,-5.72,-7.98,6.00,6.21,6.42,0.28,0.28,2.26
27.50,-5.66,-7.92,-5.65,-7.91,6.00,6.21,6.54,0.34,0.35,2.26
27.77,-5.56,-7.82,-5.57,-7.83,6.00,6.21,6.67,0.44,0.43,2.26
28.05,-5.46,-7.72,-5.46,-7.73,6.00,6.20,6.78,0.54,0.54,2.26
28.33,-5.35,-7.61,-5.35,-7.61,6.00,6.20,6.90,0.65,0.65,2.26
28.62,-5.24,-7.51,-5.24,-7.51,6.00,6.19,7.00,0.76,0.76,2.26
28.90,-5.13,-7.40,-5.14,-7.41,6.00,6.18,7.10,0.87,0.86,2.26
29.19,-5.05,-7.32,-5.04,-7.31,6.00,6.17,7.19,0.95,0.96,2.26
29.48,-4.96,-7.23,-4.95,-7.22,6.00,6.16,7.27,1.04,1.05,2.26
29.78,-4.85,-7.12,-4.87,-7.14,6.00,6.15,7.34,1.15,1.13,2.26
30.08,-4.80,-7.07,-4.80,-7.06,6.00,6.13,7.40,1.20,1.20,2.27
30.38,-4.74,-7.01,-4.74,-7.01,6.00,6.12,7.44,1.26,1.26,2.27
30.68,-4.69,-6.96,-4.70,-6.97,6.00,6.10,7.48,1.31,1.30,2.27
30.99,-4.66,-6.93,-4.66,-6.93,6.00,6.09,7.50,1.34,1.34,2.27
31.30,-4.62,-6.89,-4.62,-6.89,6.00,6.07,7.52,1.38,1.38,2.27
31.61,-4.57,-6.84,-4.58,-6.84,6.00,6.05,7.52,1.43,1.42,2.27
31.93,-4.52,-6.79,-4.53,-6.79,6.00,6.03,7.51,1.48,1.47,2.27
32.24,-4.47,-6.74,-4.47,-6.74,6.00,6.01,7.48,1.53,1.53,2.27
32.57,-4.41,-6.68,-4.41,-6.67,6.00,5.99,7.45,1.59,1.59,2.27
32.89,-4.33,-6.60,-4.33,-6.60,6.00,5.96,7.41,1.67,1.67,2.27
33.22,-4.26,-6.53,-4.26,-6.53,6.00,5.94,7.35,1.74,1.74,2.27
33.55,-4.18,-6.45,-4.19,-6.46,6.00,5.91,7.29,1.82,1.81,2.27
33.89,-4.14,-6.41,-4.14,-6.41,6.00,5.89,7.21,1.86,1.86,2.27
34.23,-4.09,-6.36,-4.10,-6.36,6.00,5.86,7.13,1.91,1.91,2.27
34.57,-4.06,-6.33,-4.05,-6.32,6.01,5.83,7.05,1.94,1.95,2.27
34.92,-3.98,-6.25,-3.99,-6.25,6.01,5.80,6.96,2.02,2.02,2.26
35.27,-3.93,-6.20,-3.92,-6.18,6.00,5.77,6.86,2.07,2.08,2.26
35.62,-3.82,-6.09,-3.84,-6.10,5.99,5.74,6.76,2.17,2.16,2.26
35.97,-3.77,-6.03,-3.77,-6.03,5.98,5.71,6.65,2.21,2.22,2.26
36.33,-3.69,-5.95,-3.71,-5.97,5.97,5.68,6.55,2.27,2.26,2.26
36.70,-3.68,-5.94,-3.68,-5.94,5.94,5.64,6.44,2.26,2.27,2.26
37.06,-3.64,-5.90,-3.64,-5.90,5.91,5.61,6.33,2.27,2.27,2.26
37.43,-3.62,-5.88,-3.62,-5.87,5.88,5.58,6.22,2.25,2.26,2.26
37.81,-3.57,-5.83,-3.58,-5.83,5.83,5.54,6.11,2.26,2.25,2.26
38.19,-3.52,-5.78,-3.53,-5.79,5.77,5.51,6.00,2.25,2.25,2.26
38.57,-3.48,-5.74,-3.47,-5.73,5.71,5.47,5.90,2.23,2.24,2.26
38.95,-3.40,-5.66,-3.41,-5.66,5.65,5.43,5.79,2.24,2.24,2.25
39.34,-3.34,-5.59,-3.33,-5.58,5.58,5.40,5.69,2.24,2.25,2.25
39.74,-3.23,-5.48,-3.25,-5.50,5.51,5.36,5.59,2.27,2.26,2.25
40.14,-3.17,-5.42,-3.17,-5.42,5.44,5.32,5.49,2.26,2.26,2.25
40.54,-3.10,-5.35,-3.11,-5.36,5.37,5.28,5.39,2.27,2.26,2.25
40.94,-3.06,-5.31,-3.06,-5.30,5.31,5.24,5.30,2.25,2.26,2.24
41.35,-3.01,-5.25,-3.01,-5.25,5.26,5.20,5.21,2.25,2.25,2.24
41.76,-2.95,-5.19,-2.96,-5.20,5.21,5.16,5.12,2.26,2.25,2.24
42.18,-2.92,-5.16,-2.92,-5.16,5.16,5.12,5.04,2.24,2.24,2.24
42.60,-2.89,-5.13,-2.89,-5.13,5.12,5.08,4.96,2.22,2.22,2.23
43.03,-2.86,-5.09,-2.86,-5.09,5.07,5.04,4.88,2.20,2.21,2.23
43.46,-2.81,-5.04,-2.80,-5.03,5.01,5.00,4.81,2.20,2.21,2.23
43.90,-2.73,-4.96,-2.74,-4.96,4.95,4.96,4.74,2.22,2.22,2.23
44.33,-2.65,-4.87,-2.66,-4.89,4.89,4.92,4.68,2.24,2.23,2.22
44.78,-2.60,-4.82,-2.60,-4.82,4.83,4.88,4.62,2.23,2.23,2.22
45.23,-2.54,-4.76,-2.54,-4.76,4.77,4.83,4.56,2.23,2.23,2.21
45.68,-2.49,-4.70,-2.49,-4.70,4.71,4.79,4.50,2.22,2.22,2.21
46.13,-2.43,-4.64,-2.44,-4.65,4.66,4.75,4.45,2.23,2.22,2.21
46.60,-2.40,-4.61,-2.40,-4.61,4.61,4.71,4.40,2.21,2.21,2.20
47.06,-2.37,-4.57,-2.37,-4.57,4.57,4.67,4.36,2.19,2.20,2.20
47.53,-2.34,-4.54,-2.34,-4.53,4.52,4.62,4.32,2.18,2.19,2.19
48.01,-2.29,-4.48,-2.30,-4.49,4.48,4.58,4.28,2.19,2.18,2.19
48.49,-2.25,-4.44,-2.26,-4.44,4.43,4.54,4.24,2.18,2.17,2.18
48.97,-2.22,-4.40,-2.22,-4.39,4.38,4.49,4.21,2.16,2.17,2.18
49.46,-2.17,-4.34,-2.17,-4.34,4.33,4.45,4.18,2.16,2.16,2.17
49.96,-2.11,-4.28,-2.12,-4.28,4.28,4.41,4.16,2.17,2.16,2.17
50.46,-2.06,-4.22,-2.06,-4.22,4.23,4.36,4.13,2.17,2.17,2.16
50.96,-2.00,-4.16,-2.01,-4.16,4.18,4.32,4.11,2.18,2.17,2.15
51.47,-1.96,-4.11,-1.97,-4.12,4.14,4.28,4.09,2.18,2.17,2.15
51.99,-1.96,-4.10,-1.95,-4.09,4.10,4.24,4.07,2.13,2.14,2.14
52.51,-1.92,-4.06,-1.93,-4.07,4.05,4.19,4.05,2.13,2.12,2.13
53.03,-1.92,-4.05,-1.91,-4.04,4.02,4.15,4.04,2.09,2.10,2.12
53.56,-1.87,-3.99,-1.87,-3.99,3.98,4.11,4.02,2.11,2.11,2.12
54.10,-1.84,-3.95,-1.84,-3.95,3.95,4.06,4.01,2.10,2.10,2.11
54.64,-1.79,-3.89,-1.80,-3.90,3.91,4.02,3.99,2.12,2.11,2.10
55.18,-1.78,-3.87,-1.77,-3.86,3.88,3.98,3.98,2.09,2.11,2.09
55.74,-1.73,-3.81,-1.75,-3.83,3.84,3.94,3.97,2.11,2.09,2.08
56.29,-1.73,-3.80,-1.73,-3.80,3.80,3.89,3.95,2.07,2.07,2.07
56.86,-1.71,-3.77,-1.71,-3.77,3.76,3.85,3.94,2.04,2.05,2.06
57.42,-1.68,-3.73,-1.68,-3.73,3.72,3.81,3.92,2.03,2.03,2.05
58.00,-1.65,-3.69,-1.64,-3.68,3.67,3.77,3.90,2.02,2.03,2.04
58.58,-1.59,-3.62,-1.60,-3.63,3.62,3.73,3.89,2.03,2.02,2.03
59.16,-1.55,-3.57,-1.55,-3.57,3.58,3.69,3.87,2.02,2.02,2.02
59.76,-1.51,-3.52,-1.51,-3.52,3.53,3.64,3.84,2.01,2.01,2.00
60.35,-1.47,-3.46,-1.48,-3.47,3.48,3.60,3.82,2.01,2.00,1.99
60.96,-1.45,-3.43,-1.45,-3.42,3.43,3.56,3.79,1.98,1.98,1.98
61.57,-1.41,-3.38,-1.42,-3.38,3.39,3.52,3.77,1.97,1.97,1.96
62.18,-1.40,-3.35,-1.40,-3.35,3.35,3.48,3.73,1.94,1.95,1.95
62.80,-1.37,-3.31,-1.38,-3.31,3.31,3.44,3.70,1.93,1.93,1.94
63.43,-1.36,-3.28,-1.36,-3.28,3.27,3.40,3.66,1.91,1.91,1.92
64.07,-1.33,-3.24,-1.33,-3.24,3.23,3.36,3.62,1.90,1.90,1.90
64.71,-1.31,-3.20,-1.31,-3.20,3.20,3.32,3.58,1.88,1.89,1.89
65.35,-1.27,-3.15,-1.28,-3.15,3.16,3.28,3.54,1.89,1.88,1.87
66.01,-1.26,-3.12,-1.27,-3.13,3.13,3.24,3.49,1.86,1.86,1.85
66.67,-1.26,-3.10,-1.26,-3.10,3.09,3.20,3.44,1.83,1.84,1.84
67.33,-1.26,-3.08,-1.25,-3.07,3.06,3.16,3.39,1.80,1.81,1.82
68.01,-1.22,-3.02,-1.24,-3.04,3.03,3.12,3.34,1.81,1.80,1.80
68.69,-1.22,-3.00,-1.23,-3.01,3.01,3.08,3.28,1.78,1.78,1.78
69.37,-1.22,-2.98,-1.22,-2.98,2.99,3.04,3.23,1.76,1.77,1.76
70.07,-1.22,-2.96,-1.22,-2.96,2.97,3.01,3.17,1.75,1.75,1.74
70.77,-1.22,-2.94,-1.22,-2.94,2.95,2.97,3.11,1.73,1.73,1.72
71.48,-1.22,-2.92,-1.22,-2.92,2.93,2.93,3.05,1.71,1.71,1.70
72.19,-1.22,-2.90,-1.24,-2.91,2.91,2.89,2.99,1.69,1.68,1.68
72.91,-1.25,-2.91,-1.25,-2.90,2.89,2.85,2.93,1.63,1.64,1.65
73.64,-1.26,-2.89,-1.25,-2.88,2.86,2.82,2.87,1.59,1.60,1.63
74.38,-1.24,-2.85,-1.24,-2.85,2.82,2.78,2.81,1.58,1.58,1.61
75.12,-1.21,-2.79,-1.21,-2.79,2.79,2.74,2.75,1.58,1.58,1.58
75.87,-1.17,-2.73,-1.18,-2.74,2.75,2.71,2.69,1.58,1.57,1.56
76.63,-1.17,-2.70,-1.16,-2.69,2.72,2.67,2.63,1.54,1.55,1.53
77.40,-1.15,-2.66,-1.16,-2.66,2.68,2.63,2.57,1.53,1.52,1.50
78.17,-1.15,-2.63,-1.16,-2.64,2.64,2.60,2.51,1.49,1.48,1.48
78.95,-1.17,-2.62,-1.16,-2.61,2.61,2.56,2.45,1.44,1.45,1.45
79.74,-1.17,-2.59,-1.17,-2.59,2.58,2.53,2.39,1.41,1.41,1.42
80.54,-1.17,-2.57,-1.17,-2.57,2.56,2.49,2.33,1.39,1.38,1.39
81.35,-1.17,-2.54,-1.17,-2.54,2.54,2.46,2.28,1.36,1.36,1.36
82.16,-1.17,-2.51,-1.17,-2.51,2.51,2.42,2.22,1.34,1.34,1.33
82.98,-1.17,-2.48,-1.17,-2.48,2.48,2.39,2.17,1.31,1.31,1.30
83.81,-1.17,-2.44,-1.17,-2.44,2.45,2.35,2.12,1.27,1.27,1.27
84.65,-1.17,-2.41,-1.18,-2.42,2.41,2.32,2.07,1.24,1.23,1.24
85.50,-1.17,-2.38,-1.17,-2.38,2.37,2.28,2.02,1.20,1.20,1.21
86.35,-1.17,-2.35,-1.16,-2.33,2.33,2.25,1.97,1.16,1.17,1.18
87.22,-1.12,-2.27,-1.14,-2.29,2.28,2.21,1.93,1.16,1.14,1.14
88.09,-1.12,-2.23,-1.12,-2.23,2.24,2.18,1.88,1.11,1.11,1.11
88.97,-1.12,-2.20,-1.11,-2.18,2.19,2.15,1.84,1.06,1.08,1.07
89.86,-1.08,-2.12,-1.10,-2.14,2.14,2.11,1.80,1.05,1.04,1.04
90.76,-1.08,-2.09,-1.07,-2.08,2.08,2.08,1.76,1.00,1.01,1.01
91.66,-1.05,-2.02,-1.05,-2.03,2.03,2.04,1.72,0.97,0.97,0.97
92.58,-1.03,-1.97,-1.04,-1.98,1.97,2.01,1.68,0.94,0.93,0.93
93.51,-1.03,-1.93,-1.02,-1.92,1.91,1.98,1.64,0.88,0.89,0.90
94.44,-1.01,-1.88,-1.01,-1.87,1.86,1.95,1.60,0.84,0.85,0.86
95.39,-0.98,-1.81,-0.99,-1.82,1.80,1.91,1.57,0.82,0.81,0.83
96.34,-0.97,-1.76,-0.96,-1.75,1.76,1.88,1.54,0.78,0.79,0.79
97.30,-0.94,-1.70,-0.95,-1.70,1.72,1.85,1.50,0.78,0.77,0.75
98.28,-0.94,-1.66,-0.96,-1.67,1.69,1.81,1.47,0.75,0.74,0.72
99.26,-0.98,-1.66,-0.98,-1.65,1.68,1.78,1.44,0.70,0.70,0.68
100.25,-1.03,-1.67,-1.03,-1.67,1.68,1.75,1.41,0.65,0.65,0.64
101.25,-1.07,-1.68,-1.09,-1.69,1.69,1.72,1.39,0.62,0.61,0.60
102.27,-1.16,-1.73,-1.15,-1.72,1.72,1.68,1.36,0.55,0.56,0.56
103.29,-1.22,-1.75,-1.23,-1.75,1.75,1.65,1.33,0.53,0.52,0.53
104.32,-1.30,-1.79,-1.30,-1.79,1.79,1.62,1.31,0.48,0.48,0.49
105.37,-1.37,-1.82,-1.37,-1.82,1.83,1.59,1.29,0.45,0.46,0.45
106.42,-1.43,-1.85,-1.43,-1.85,1.86,1.55,1.26,0.42,0.42,0.41
107.48,-1.49,-1.87,-1.49,-1.87,1.88,1.52,1.24,0.38,0.38,0.37
108.56,-1.54,-1.88,-1.55,-1.89,1.88,1.49,1.22,0.34,0.33,0.34
109.64,-1.59,-1.89,-1.60,-1.90,1.86,1.46,1.20,0.27,0.26,0.30
110.74,-1.62,-1.88,-1.61,-1.87,1.82,1.42,1.18,0.20,0.21,0.26
111.85,-1.60,-1.83,-1.58,-1.81,1.77,1.39,1.16,0.17,0.19,0.22
112.97,-1.50,-1.69,-1.52,-1.71,1.70,1.36,1.14,0.20,0.18,0.19
114.10,-1.44,-1.59,-1.45,-1.60,1.62,1.32,1.12,0.17,0.17,0.15
115.24,-1.38,-1.50,-1.38,-1.50,1.52,1.29,1.10,0.14,0.14,0.11
116.39,-1.33,-1.41,-1.33,-1.41,1.43,1.25,1.09,0.09,0.10,0.08
117.55,-1.28,-1.32,-1.28,-1.32,1.33,1.22,1.07,0.05,0.05,0.04
118.73,-1.22,-1.23,-1.23,-1.24,1.24,1.18,1.05,0.02,0.01,0.00
119.92,-1.19,-1.16,-1.19,-1.16,1.16,1.15,1.04,-0.04,-0.04,-0.03
121.12,-1.16,-1.10,-1.16,-1.09,1.08,1.11,1.02,-0.08,-0.08,-0.07
122.33,-1.12,-1.02,-1.12,-1.01,1.01,1.07,1.00,-0.11,-0.11,-0.10
123.55,-1.07,-0.94,-1.08,-0.95,0.94,1.03,0.99,-0.13,-0.14,-0.14
124.79,-1.04,-0.87,-1.05,-0.87,0.88,0.99,0.97,-0.16,-0.17,-0.17
126.03,-1.03,-0.83,-1.02,-0.81,0.82,0.94,0.96,-0.21,-0.19,-0.21
127.29,-0.98,-0.74,-1.00,-0.76,0.77,0.90,0.95,-0.21,-0.23,-0.24
128.57,-0.98,-0.71,-0.98,-0.71,0.72,0.85,0.93,-0.26,-0.26,-0.27
129.85,-0.98,-0.68,-0.98,-0.68,0.68,0.80,0.92,-0.31,-0.31,-0.30
131.15,-0.98,-0.65,-0.98,-0.65,0.63,0.75,0.90,-0.35,-0.35,-0.33
132.46,-0.98,-0.62,-0.97,-0.61,0.60,0.70,0.89,-0.39,-0.38,-0.37
133.79,-0.95,-0.56,-0.96,-0.56,0.56,0.64,0.88,-0.39,-0.40,-0.40
135.12,-0.94,-0.52,-0.95,-0.52,0.53,0.59,0.87,-0.42,-0.42,-0.43
136.48,-0.94,-0.49,-0.94,-0.48,0.49,0.53,0.85,-0.45,-0.45,-0.46
137.84,-0.94,-0.46,-0.94,-0.46,0.46,0.48,0.84,-0.48,-0.48,-0.49
139.22,-0.94,-0.43,-0.94,-0.43,0.43,0.43,0.83,-0.52,-0.52,-0.51
140.61,-0.94,-0.40,-0.94,-0.40,0.39,0.39,0.82,-0.55,-0.55,-0.54
142.02,-0.94,-0.37,-0.94,-0.37,0.36,0.35,0.81,-0.58,-0.58,-0.57
143.44,-0.94,-0.35,-0.94,-0.35,0.34,0.33,0.79,-0.60,-0.60,-0.59
144.87,-0.94,-0.32,-0.94,-0.32,0.33,0.31,0.78,-0.62,-0.61,-0.62
146.32,-0.94,-0.30,-0.94,-0.29,0.32,0.31,0.77,-0.63,-0.62,-0.65
147.78,-0.94,-0.27,-0.96,-0.28,0.31,0.31,0.76,-0.63,-0.64,-0.67
149.26,-0.98,-0.29,-0.99,-0.29,0.31,0.31,0.75,-0.67,-0.68,-0.70
150.75,-1.04,-0.32,-1.04,-0.32,0.31,0.32,0.74,-0.73,-0.73,-0.72
152.26,-1.08,-0.34,-1.08,-0.34,0.31,0.34,0.73,-0.77,-0.77,-0.74
153.78,-1.12,-0.36,-1.11,-0.35,0.32,0.35,0.73,-0.81,-0.80,-0.76
155.32,-1.12,-0.34,-1.12,-0.34,0.32,0.36,0.72,-0.80,-0.80,-0.79
156.88,-1.12,-0.32,-1.13,-0.32,0.33,0.37,0.71,-0.79,-0.80,-0.81
158.44,-1.13,-0.31,-1.14,-0.31,0.34,0.38,0.70,-0.80,-0.80,-0.83
160.03,-1.17,-0.33,-1.17,-0.32,0.34,0.38,0.70,-0.83,-0.83,-0.85
161.63,-1.20,-0.34,-1.21,-0.34,0.35,0.39,0.69,-0.85,-0.86,-0.87
163.24,-1.25,-0.37,-1.25,-0.36,0.36,0.39,0.68,-0.89,-0.89,-0.89
164.88,-1.28,-0.38,-1.28,-0.38,0.37,0.39,0.68,-0.91,-0.91,-0.90
166.53,-1.31,-0.39,-1.31,-0.39,0.38,0.39,0.67,-0.94,-0.94,-0.92
168.19,-1.33,-0.39,-1.34,-0.40,0.38,0.38,0.67,-0.95,-0.96,-0.94
169.87,-1.36,-0.41,-1.36,-0.40,0.38,0.38,0.67,-0.98,-0.97,-0.96
171.57,-1.36,-0.39,-1.36,-0.39,0.38,0.38,0.66,-0.98,-0.98,-0.97
173.29,-1.36,-0.37,-1.36,-0.37,0.38,0.37,0.66,-0.98,-0.98,-0.99
175.02,-1.36,-0.36,-1.36,-0.36,0.38,0.37,0.66,-0.98,-0.98,-1.00
176.77,-1.36,-0.34,-1.38,-0.36,0.38,0.36,0.65,-0.98,-0.99,-1.02
178.54,-1.41,-0.38,-1.41,-0.38,0.39,0.36,0.65,-1.03,-1.02,-1.03
180.32,-1.44,-0.40,-1.45,-0.40,0.40,0.35,0.65,-1.05,-1.05,-1.05
182.13,-1.50,-0.44,-1.49,-0.43,0.41,0.35,0.65,-1.10,-1.08,-1.06
183.95,-1.50,-0.43,-1.51,-0.44,0.43,0.34,0.65,-1.08,-1.09,-1.07
185.79,-1.54,-0.46,-1.53,-0.45,0.45,0.34,0.65,-1.10,-1.09,-1.09
187.65,-1.54,-0.45,-1.55,-0.45,0.47,0.33,0.65,-1.07,-1.08,-1.10
189.52,-1.57,-0.46,-1.58,-0.47,0.49,0.33,0.65,-1.08,-1.09,-1.11
191.42,-1.61,-0.49,-1.61,-0.49,0.51,0.33,0.65,-1.11,-1.11,-1.12
193.33,-1.66,-0.53,-1.66,-0.53,0.52,0.32,0.65,-1.15,-1.14,-1.13
195.27,-1.68,-0.54,-1.69,-0.55,0.52,0.32,0.66,-1.16,-1.16,-1.14
197.22,-1.71,-0.56,-1.70,-0.55,0.53,0.32,0.66,-1.19,-1.17,-1.15
199.19,-1.68,-0.52,-1.70,-0.54,0.52,0.32,0.66,-1.16,-1.17,-1.16
201.18,-1.68,-0.51,-1.69,-0.52,0.51,0.32,0.66,-1.17,-1.17,-1.17
203.19,-1.68,-0.50,-1.68,-0.50,0.50,0.32,0.67,-1.18,-1.17,-1.18
205.23,-1.66,-0.48,-1.67,-0.48,0.49,0.32,0.67,-1.18,-1.18,-1.19
207.28,-1.66,-0.47,-1.65,-0.46,0.47,0.32,0.67,-1.19,-1.18,-1.19
209.35,-1.64,-0.44,-1.65,-0.45,0.46,0.32,0.68,-1.18,-1.19,-1.20
211.44,-1.64,-0.43,-1.65,-0.44,0.45,0.32,0.68,-1.19,-1.20,-1.21
213.56,-1.67,-0.46,-1.66,-0.45,0.45,0.32,0.68,-1.22,-1.22,-1.22
215.69,-1.68,-0.46,-1.68,-0.45,0.45,0.33,0.69,-1.24,-1.23,-1.22
217.85,-1.68,-0.45,-1.69,-0.45,0.44,0.33,0.69,-1.24,-1.24,-1.23
220.03,-1.68,-0.45,-1.68,-0.45,0.44,0.34,0.69,-1.24,-1.24,-1.24
222.23,-1.68,-0.44,-1.68,-0.44,0.44,0.34,0.70,-1.25,-1.25,-1.24
224.45,-1.68,-0.43,-1.68,-0.43,0.43,0.35,0.70,-1.25,-1.25,-1.25
226.70,-1.68,-0.43,-1.68,-0.43,0.43,0.36,0.70,-1.26,-1.26,-1.25
228.96,-1.68,-0.42,-1.68,-0.42,0.42,0.37,0.70,-1.26,-1.26,-1.26
231.25,-1.68,-0.42,-1.68,-0.41,0.42,0.38,0.71,-1.26,-1.26,-1.26
233.57,-1.68,-0.41,-1.69,-0.42,0.42,0.39,0.71,-1.26,-1.27,-1.27
235.90,-1.68,-0.41,-1.70,-0.43,0.42,0.40,0.71,-1.26,-1.28,-1.27
238.26,-1.73,-0.45,-1.71,-0.43,0.43,0.41,0.71,-1.30,-1.28,-1.28
240.64,-1.73,-0.45,-1.73,-0.45,0.45,0.42,0.71,-1.28,-1.28,-1.28
243.05,-1.73,-0.45,-1.75,-0.47,0.47,0.44,0.71,-1.26,-1.28,-1.29
245.48,-1.78,-0.49,-1.77,-0.48,0.50,0.45,0.71,-1.28,-1.28,-1.29
247.93,-1.81,-0.52,-1.81,-0.52,0.53,0.47,0.70,-1.29,-1.29,-1.29
250.41,-1.85,-0.56,-1.86,-0.56,0.55,0.48,0.70,-1.30,-1.31,-1.30
252.92,-1.90,-0.60,-1.89,-0.59,0.58,0.50,0.70,-1.33,-1.31,-1.30
255.45,-1.92,-0.62,-1.92,-0.62,0.60,0.52,0.69,-1.32,-1.32,-1.30
258.00,-1.92,-0.62,-1.94,-0.63,0.62,0.54,0.69,-1.30,-1.32,-1.31
260.58,-1.96,-0.65,-1.95,-0.64,0.64,0.56,0.69,-1.32,-1.31,-1.31
263.19,-1.96,-0.65,-1.96,-0.65,0.66,0.58,0.68,-1.31,-1.31,-1.31
265.82,-1.96,-0.65,-1.98,-0.67,0.67,0.60,0.67,-1.29,-1.31,-1.31
268.48,-2.01,-0.70,-2.00,-0.68,0.69,0.62,0.67,-1.32,-1.31,-1.32
271.16,-2.01,-0.69,-2.02,-0.70,0.71,0.64,0.66,-1.31,-1.31,-1.32
273.87,-2.05,-0.73,-2.05,-0.73,0.72,0.66,0.65,-1.33,-1.33,-1.32
276.61,-2.06,-0.74,-2.07,-0.74,0.74,0.68,0.64,-1.32,-1.32,-1.32
279.38,-2.10,-0.78,-2.10,-0.77,0.76,0.71,0.63,-1.34,-1.33,-1.32
282.17,-2.10,-0.78,-2.12,-0.79,0.78,0.73,0.63,-1.32,-1.34,-1.33
284.99,-2.15,-0.83,-2.14,-0.81,0.81,0.75,0.62,-1.35,-1.33,-1.33
287.84,-2.15,-0.82,-2.15,-0.82,0.83,0.78,0.61,-1.32,-1.32,-1.33
290.72,-2.15,-0.82,-2.17,-0.84,0.86,0.80,0.60,-1.30,-1.32,-1.33
293.63,-2.20,-0.87,-2.20,-0.86,0.88,0.82,0.59,-1.32,-1.32,-1.33
296.57,-2.23,-0.90,-2.23,-0.90,0.90,0.85,0.58,-1.33,-1.33,-1.33
299.53,-2.27,-0.94,-2.27,-0.94,0.92,0.87,0.57,-1.35,-1.35,-1.33
302.53,-2.29,-0.96,-2.29,-0.96,0.94,0.89,0.56,-1.35,-1.35,-1.33
305.55,-2.31,-0.98,-2.31,-0.97,0.96,0.91,0.55,-1.35,-1.35,-1.34
308.61,-2.31,-0.98,-2.31,-0.98,0.98,0.94,0.54,-1.33,-1.33,-1.34
311.69,-2.31,-0.98,-2.32,-0.98,0.99,0.96,0.53,-1.32,-1.32,-1.34
314.81,-2.31,-0.98,-2.32,-0.99,1.00,0.98,0.52,-1.31,-1.32,-1.34
317.96,-2.34,-1.01,-2.33,-1.00,1.00,1.00,0.52,-1.34,-1.33,-1.34
321.14,-2.34,-1.00,-2.35,-1.01,1.00,1.02,0.51,-1.35,-1.35,-1.34
324.35,-2.34,-1.00,-2.34,-1.00,0.99,1.04,0.50,-1.35,-1.36,-1.34
327.59,-2.34,-1.00,-2.33,-0.99,0.98,1.05,0.49,-1.37,-1.35,-1.34
330.87,-2.29,-0.95,-2.31,-0.97,0.96,1.07,0.48,-1.33,-1.35,-1.34
334.18,-2.29,-0.95,-2.29,-0.95,0.95,1.08,0.48,-1.34,-1.34,-1.34
337.52,-2.27,-0.93,-2.27,-0.93,0.94,1.10,0.47,-1.34,-1.33,-1.34
340.90,-2.24,-0.90,-2.25,-0.91,0.93,1.11,0.46,-1.32,-1.33,-1.34
344.30,-2.24,-0.90,-2.24,-0.90,0.92,1.12,0.46,-1.32,-1.32,-1.34
347.75,-2.24,-0.90,-2.24,-0.90,0.92,1.13,0.45,-1.33,-1.32,-1.34
351.23,-2.24,-0.90,-2.25,-0.91,0.92,1.13,0.45,-1.33,-1.34,-1.34
354.74,-2.26,-0.92,-2.27,-0.93,0.92,1.14,0.44,-1.34,-1.35,-1.34
358.28,-2.29,-0.95,-2.28,-0.94,0.92,1.14,0.44,-1.37,-1.35,-1.34
361.87,-2.28,-0.94,-2.27,-0.93,0.92,1.14,0.43,-1.36,-1.35,-1.34
365.49,-2.24,-0.90,-2.26,-0.92,0.92,1.14,0.43,-1.32,-1.34,-1.34
369.14,-2.24,-0.91,-2.25,-0.91,0.91,1.14,0.42,-1.33,-1.33,-1.34
372.83,-2.24,-0.91,-2.24,-0.90,0.90,1.13,0.42,-1.34,-1.34,-1.34
376.56,-2.23,-0.90,-2.23,-0.89,0.88,1.12,0.42,-1.35,-1.35,-1.34
380.33,-2.20,-0.87,-2.20,-0.86,0.86,1.11,0.41,-1.34,-1.34,-1.34
384.13,-2.16,-0.83,-2.18,-0.84,0.84,1.10,0.41,-1.32,-1.34,-1.34
387.97,-2.15,-0.82,-2.15,-0.81,0.82,1.08,0.41,-1.33,-1.33,-1.34
391.85,-2.13,-0.80,-2.13,-0.79,0.80,1.06,0.40,-1.33,-1.32,-1.34
395.77,-2.10,-0.77,-2.11,-0.78,0.79,1.04,0.40,-1.31,-1.32,-1.33
399.73,-2.10,-0.77,-2.11,-0.77,0.78,1.02,0.40,-1.33,-1.33,-1.33
403.72,-2.10,-0.77,-2.10,-0.77,0.76,1.00,0.40,-1.34,-1.33,-1.33
407.76,-2.10,-0.77,-2.09,-0.76,0.75,0.97,0.40,-1.35,-1.34,-1.33
411.84,-2.06,-0.73,-2.08,-0.75,0.74,0.94,0.39,-1.32,-1.34,-1.33
415.96,-2.06,-0.73,-2.06,-0.73,0.72,0.91,0.39,-1.34,-1.34,-1.33
420.12,-2.05,-0.72,-2.04,-0.71,0.70,0.88,0.39,-1.35,-1.33,-1.33
424.32,-2.01,-0.68,-2.01,-0.68,0.68,0.84,0.39,-1.33,-1.33,-1.33
428.56,-1.96,-0.63,-1.98,-0.65,0.66,0.80,0.38,-1.31,-1.32,-1.33
432.85,-1.95,-0.63,-1.95,-0.62,0.63,0.76,0.38,-1.33,-1.32,-1.33
437.18,-1.92,-0.60,-1.92,-0.59,0.60,0.72,0.38,-1.33,-1.33,-1.33
441.55,-1.89,-0.57,-1.90,-0.57,0.56,0.68,0.38,-1.33,-1.33,-1.33
445.96,-1.86,-0.54,-1.86,-0.53,0.53,0.64,0.37,-1.34,-1.33,-1.33
450.42,-1.82,-0.50,-1.82,-0.50,0.49,0.59,0.37,-1.33,-1.33,-1.32
454.93,-1.78,-0.46,-1.78,-0.46,0.46,0.55,0.36,-1.33,-1.32,-1.32
459.48,-1.74,-0.42,-1.74,-0.42,0.42,0.50,0.36,-1.32,-1.32,-1.32
464.07,-1.69,-0.37,-1.70,-0.38,0.39,0.46,0.35,-1.30,-1.31,-1.32
468.71,-1.68,-0.36,-1.67,-0.35,0.37,0.41,0.34,-1.32,-1.31,-1.32
473.40,-1.64,-0.32,-1.65,-0.33,0.34,0.36,0.34,-1.30,-1.31,-1.32
478.13,-1.64,-0.32,-1.63,-0.32,0.32,0.31,0.33,-1.33,-1.32,-1.32
