frequency,raw,error,smoothed,error_smoothed,equalization,parametric_eq,fixed_band_eq,equalized_raw,equalized_smoothed,target
20.00,-5.91,-8.15,-5.91,-8.14,6.00,5.50,2.31,0.09,0.09,2.24
20.20,-5.85,-8.08,-5.85,-8.08,6.00,5.56,2.38,0.15,0.15,2.23
20.40,-5.80,-8.03,-5.80,-8.02,6.00,5.62,2.45,0.20,0.20,2.22
20.61,-5.74,-7.96,-5.74,-7.96,6.00,5.68,2.53,0.26,0.26,2.21
20.81,-5.68,-7.90,-5.68,-7.90,6.00,5.74,2.60,0.32,0.32,2.21
21.02,-5.63,-7.85,-5.63,-7.84,6.00,5.79,2.68,0.37,0.37,2.21
21.23,-5.57,-7.77,-5.57,-7.77,6.00,5.84,2.76,0.43,0.43,2.19
21.44,-5.52,-7.69,-5.52,-7.70,6.00,5.89,2.84,0.48,0.48,2.17
21.66,-5.47,-7.63,-5.47,-7.62,6.00,5.93,2.93,0.53,0.53,2.15
21.87,-5.42,-7.54,-5.42,-7.55,6.00,5.97,3.01,0.58,0.58,2.12
22.09,-5.36,-7.46,-5.36,-7.47,6.00,6.00,3.10,0.64,0.64,2.10
22.31,-5.31,-7.39,-5.31,-7.39,6.00,6.04,3.20,0.69,0.69,2.08
22.54,-5.25,-7.31,-5.25,-7.30,6.00,6.06,3.29,0.75,0.75,2.05
22.76,-5.19,-7.21,-5.20,-7.22,6.00,6.09,3.39,0.81,0.80,2.02
22.99,-5.14,-7.13,-5.14,-7.13,6.00,6.10,3.49,0.86,0.86,1.99
23.22,-5.09,-7.05,-5.09,-7.05,6.00,6.12,3.59,0.91,0.91,1.96
23.45,-5.03,-6.97,-5.04,-6.98,6.00,6.13,3.69,0.97,0.96,1.94
23.69,-4.99,-6.91,-4.99,-6.91,6.00,6.13,3.80,1.01,1.01,1.92
23.92,-4.93,-6.83,-4.93,-6.84,6.00,6.13,3.91,1.07,1.07,1.90
24.16,-4.88,-6.77,-4.88,-6.77,6.00,6.13,4.02,1.12,1.12,1.89
24.40,-4.83,-6.70,-4.83,-6.70,6.00,6.12,4.13,1.17,1.17,1.87
24.65,-4.78,-6.63,-4.78,-6.63,6.00,6.11,4.25,1.22,1.22,1.85
24.89,-4.73,-6.56,-4.73,-6.56,6.00,6.09,4.36,1.27,1.27,1.83
25.14,-4.67,-6.48,-4.67,-6.48,6.00,6.07,4.48,1.33,1.33,1.81
25.39,-4.62,-6.41,-4.62,-6.41,6.01,6.04,4.60,1.39,1.39,1.79
25.65,-4.56,-6.34,-4.56,-6.33,6.01,6.01,4.71,1.45,1.45,1.78
25.91,-4.51,-6.26,-4.51,-6.26,6.01,5.97,4.83,1.50,1.50,1.75
26.16,-4.45,-6.19,-4.45,-6.19,6.01,5.93,4.95,1.56,1.56,1.74
26.43,-4.40,-6.12,-4.40,-6.12,6.00,5.89,5.07,1.59,1.60,1.72
26.69,-4.34,-6.05,-4.34,-6.05,5.97,5.85,5.18,1.63,1.63,1.70
26.96,-4.29,-5.98,-4.29,-5.98,5.93,5.80,5.30,1.64,1.64,1.68
27.23,-4.23,-5.91,-4.23,-5.90,5.89,5.74,5.41,1.66,1.65,1.67
27.50,-4.18,-5.83,-4.18,-5.83,5.83,5.69,5.52,1.65,1.65,1.65
27.77,-4.12,-5.75,-4.12,-5.76,5.77,5.63,5.62,1.65,1.65,1.63
28.05,-4.06,-5.68,-4.06,-5.68,5.70,5.57,5.72,1.64,1.63,1.62
28.33,-4.01,-5.60,-4.01,-5.61,5.62,5.50,5.81,1.61,1.62,1.59
28.62,-3.95,-5.53,-3.96,-5.54,5.55,5.44,5.90,1.60,1.59,1.58
28.90,-3.91,-5.49,-3.91,-5.48,5.48,5.37,5.98,1.57,1.57,1.58
29.19,-3.86,-5.42,-3.86,-5.42,5.42,5.30,6.05,1.55,1.56,1.56
29.48,-3.80,-5.36,-3.80,-5.36,5.35,5.23,6.12,1.55,1.55,1.56
29.78,-3.75,-5.29,-3.75,-5.29,5.29,5.16,6.17,1.54,1.53,1.54
30.08,-3.70,-5.23,-3.70,-5.23,5.22,5.08,6.21,1.52,1.52,1.52
30.38,-3.66,-5.17,-3.66,-5.16,5.16,5.01,6.25,1.50,1.50,1.50
30.68,-3.60,-5.08,-3.61,-5.09,5.09,4.93,6.27,1.49,1.48,1.48
30.99,-3.55,-5.01,-3.55,-5.02,5.02,4.86,6.28,1.47,1.47,1.46
31.30,-3.50,-4.95,-3.50,-4.95,4.95,4.78,6.28,1.45,1.45,1.45
31.61,-3.44,-4.88,-3.45,-4.88,4.88,4.70,6.27,1.43,1.43,1.44
31.93,-3.39,-4.80,-3.39,-4.80,4.80,4.62,6.25,1.41,1.41,1.41
32.24,-3.34,-4.73,-3.34,-4.73,4.73,4.55,6.22,1.39,1.39,1.39
32.57,-3.29,-4.66,-3.29,-4.66,4.66,4.47,6.17,1.37,1.37,1.36
32.89,-3.24,-4.59,-3.24,-4.59,4.58,4.39,6.12,1.34,1.35,1.35
33.22,-3.18,-4.50,-3.18,-4.51,4.51,4.31,6.05,1.33,1.33,1.32
33.55,-3.13,-4.44,-3.13,-4.44,4.44,4.23,5.98,1.31,1.30,1.31
33.89,-3.08,-4.36,-3.08,-4.36,4.36,4.16,5.90,1.28,1.28,1.28
34.23,-3.03,-4.30,-3.03,-4.29,4.29,4.08,5.81,1.26,1.26,1.27
34.57,-2.97,-4.21,-2.98,-4.21,4.22,4.00,5.72,1.24,1.24,1.23
34.92,-2.92,-4.14,-2.92,-4.14,4.14,3.93,5.61,1.22,1.22,1.21
35.27,-2.87,-4.07,-2.87,-4.07,4.07,3.85,5.51,1.20,1.20,1.20
35.62,-2.82,-4.00,-2.82,-4.00,3.99,3.78,5.40,1.17,1.17,1.18
35.97,-2.77,-3.92,-2.77,-3.93,3.92,3.70,5.28,1.15,1.15,1.15
36.33,-2.71,-3.85,-2.72,-3.85,3.85,3.63,5.17,1.14,1.13,1.13
36.70,-2.67,-3.78,-2.66,-3.77,3.78,3.56,5.05,1.10,1.11,1.11
37.06,-2.61,-3.69,-2.61,-3.70,3.70,3.48,4.93,1.09,1.09,1.08
37.43,-2.56,-3.63,-2.56,-3.63,3.63,3.41,4.80,1.07,1.07,1.07
37.81,-2.51,-3.56,-2.51,-3.55,3.55,3.34,4.68,1.04,1.05,1.05
38.19,-2.45,-3.47,-2.46,-3.48,3.48,3.27,4.56,1.03,1.02,1.02
38.57,-2.40,-3.41,-2.40,-3.41,3.41,3.21,4.44,1.00,1.00,1.01
38.95,-2.35,-3.34,-2.35,-3.33,3.33,3.14,4.31,0.98,0.98,0.99
39.34,-2.29,-3.25,-2.29,-3.26,3.26,3.07,4.19,0.97,0.96,0.96
39.74,-2.24,-3.17,-2.24,-3.18,3.18,3.01,4.07,0.94,0.94,0.93
40.14,-2.19,-3.11,-2.19,-3.11,3.11,2.94,3.96,0.92,0.92,0.92
40.54,-2.14,-3.04,-2.14,-3.03,3.03,2.88,3.84,0.89,0.90,0.89
40.94,-2.08,-2.96,-2.08,-2.96,2.96,2.81,3.72,0.88,0.88,0.88
41.35,-2.03,-2.89,-2.03,-2.89,2.89,2.75,3.61,0.86,0.86,0.86
41.76,-1.97,-2.81,-1.97,-2.82,2.82,2.69,3.50,0.85,0.85,0.84
42.18,-1.92,-2.75,-1.92,-2.75,2.75,2.63,3.39,0.83,0.83,0.83
42.60,-1.87,-2.68,-1.87,-2.68,2.68,2.57,3.29,0.81,0.81,0.81
43.03,-1.82,-2.62,-1.82,-2.62,2.61,2.52,3.18,0.79,0.79,0.80
43.46,-1.77,-2.55,-1.77,-2.54,2.53,2.46,3.08,0.76,0.77,0.78
43.90,-1.71,-2.45,-1.71,-2.46,2.46,2.40,2.98,0.75,0.75,0.74
44.33,-1.66,-2.38,-1.66,-2.38,2.39,2.35,2.88,0.73,0.73,0.72
44.78,-1.61,-2.31,-1.61,-2.31,2.32,2.29,2.79,0.70,0.70,0.70
45.23,-1.56,-2.24,-1.56,-2.24,2.24,2.24,2.70,0.68,0.68,0.68
45.68,-1.51,-2.17,-1.51,-2.17,2.18,2.19,2.61,0.66,0.66,0.66
46.13,-1.46,-2.10,-1.46,-2.10,2.11,2.13,2.52,0.65,0.65,0.64
46.60,-1.41,-2.04,-1.41,-2.04,2.04,2.08,2.43,0.63,0.63,0.63
47.06,-1.37,-1.99,-1.37,-1.98,1.98,2.03,2.35,0.61,0.61,0.62
47.53,-1.32,-1.92,-1.32,-1.92,1.92,1.98,2.27,0.60,0.59,0.60
48.01,-1.28,-1.86,-1.28,-1.86,1.86,1.93,2.19,0.57,0.57,0.58
48.49,-1.24,-1.80,-1.24,-1.80,1.79,1.89,2.11,0.55,0.55,0.56
48.97,-1.20,-1.73,-1.20,-1.73,1.73,1.84,2.03,0.53,0.53,0.53
49.46,-1.16,-1.66,-1.16,-1.67,1.67,1.79,1.96,0.51,0.50,0.50
49.96,-1.13,-1.61,-1.12,-1.60,1.61,1.75,1.89,0.48,0.48,0.48
50.46,-1.08,-1.54,-1.09,-1.54,1.55,1.70,1.82,0.47,0.46,0.46
50.96,-1.05,-1.49,-1.05,-1.49,1.49,1.66,1.75,0.44,0.44,0.44
51.47,-1.02,-1.43,-1.02,-1.43,1.44,1.62,1.68,0.42,0.42,0.41
51.99,-0.99,-1.38,-0.99,-1.39,1.39,1.57,1.62,0.39,0.40,0.39
52.51,-0.96,-1.35,-0.96,-1.34,1.34,1.53,1.55,0.38,0.38,0.38
53.03,-0.93,-1.30,-0.93,-1.29,1.29,1.49,1.49,0.36,0.36,0.36
53.56,-0.91,-1.25,-0.91,-1.25,1.25,1.45,1.43,0.34,0.34,0.34
54.10,-0.88,-1.20,-0.89,-1.20,1.21,1.41,1.37,0.32,0.32,0.32
54.64,-0.87,-1.17,-0.87,-1.16,1.16,1.37,1.32,0.29,0.30,0.30
55.18,-0.85,-1.13,-0.85,-1.13,1.12,1.33,1.26,0.27,0.27,0.28
55.74,-0.83,-1.09,-0.84,-1.09,1.08,1.29,1.21,0.25,0.25,0.25
56.29,-0.82,-1.05,-0.82,-1.05,1.05,1.25,1.15,0.23,0.23,0.23
56.86,-0.80,-1.01,-0.80,-1.01,1.02,1.21,1.10,0.21,0.22,0.21
57.42,-0.78,-0.97,-0.79,-0.98,0.98,1.18,1.05,0.20,0.20,0.19
58.00,-0.77,-0.95,-0.77,-0.95,0.96,1.14,1.00,0.18,0.18,0.18
58.58,-0.77,-0.94,-0.76,-0.93,0.93,1.10,0.96,0.16,0.17,0.16
59.16,-0.75,-0.90,-0.76,-0.90,0.90,1.07,0.91,0.15,0.14,0.15
59.76,-0.75,-0.88,-0.75,-0.88,0.88,1.03,0.86,0.12,0.12,0.13
60.35,-0.75,-0.86,-0.75,-0.86,0.85,1.00,0.82,0.10,0.10,0.10
60.96,-0.75,-0.84,-0.75,-0.83,0.83,0.96,0.78,0.08,0.08,0.09
61.57,-0.75,-0.81,-0.75,-0.80,0.81,0.93,0.73,0.05,0.06,0.05
62.18,-0.74,-0.77,-0.74,-0.78,0.78,0.89,0.69,0.04,0.04,0.03
62.80,-0.74,-0.75,-0.75,-0.75,0.76,0.86,0.65,0.02,0.02,0.01
63.43,-0.75,-0.74,-0.75,-0.74,0.74,0.83,0.61,-0.01,-0.01,-0.01
64.07,-0.76,-0.73,-0.76,-0.73,0.73,0.79,0.58,-0.03,-0.03,-0.03
64.71,-0.76,-0.71,-0.77,-0.72,0.71,0.76,0.54,-0.05,-0.05,-0.05
65.35,-0.77,-0.71,-0.77,-0.70,0.70,0.73,0.50,-0.07,-0.07,-0.07
66.01,-0.77,-0.69,-0.77,-0.68,0.68,0.70,0.47,-0.09,-0.09,-0.08
66.67,-0.77,-0.67,-0.77,-0.67,0.67,0.66,0.43,-0.10,-0.10,-0.10
67.33,-0.77,-0.65,-0.78,-0.65,0.66,0.63,0.40,-0.11,-0.12,-0.12
68.01,-0.79,-0.65,-0.79,-0.64,0.64,0.60,0.36,-0.15,-0.14,-0.14
68.69,-0.79,-0.63,-0.79,-0.63,0.63,0.57,0.33,-0.16,-0.17,-0.16
69.37,-0.80,-0.62,-0.80,-0.62,0.61,0.54,0.30,-0.19,-0.19,-0.19
70.07,-0.80,-0.59,-0.80,-0.60,0.59,0.51,0.26,-0.21,-0.21,-0.21
70.77,-0.80,-0.58,-0.80,-0.58,0.58,0.47,0.23,-0.23,-0.23,-0.22
71.48,-0.80,-0.56,-0.80,-0.56,0.56,0.44,0.20,-0.24,-0.25,-0.24
72.19,-0.81,-0.55,-0.81,-0.54,0.54,0.41,0.17,-0.28,-0.27,-0.27
72.91,-0.80,-0.50,-0.81,-0.51,0.51,0.38,0.14,-0.29,-0.29,-0.30
73.64,-0.81,-0.49,-0.81,-0.49,0.49,0.35,0.10,-0.32,-0.32,-0.33
74.38,-0.81,-0.47,-0.81,-0.46,0.47,0.32,0.07,-0.34,-0.34,-0.34
75.12,-0.81,-0.44,-0.81,-0.45,0.44,0.29,0.04,-0.37,-0.37,-0.37
75.87,-0.81,-0.42,-0.81,-0.42,0.42,0.26,0.01,-0.39,-0.39,-0.39
76.63,-0.81,-0.40,-0.81,-0.40,0.40,0.22,-0.02,-0.42,-0.42,-0.41
77.40,-0.81,-0.37,-0.81,-0.37,0.37,0.19,-0.05,-0.44,-0.44,-0.44
78.17,-0.81,-0.33,-0.81,-0.34,0.34,0.16,-0.08,-0.47,-0.47,-0.48
78.95,-0.81,-0.32,-0.81,-0.32,0.32,0.13,-0.12,-0.50,-0.50,-0.50
79.74,-0.81,-0.30,-0.81,-0.29,0.29,0.10,-0.15,-0.53,-0.52,-0.52
80.54,-0.80,-0.26,-0.80,-0.26,0.25,0.07,-0.18,-0.55,-0.55,-0.55
81.35,-0.79,-0.22,-0.80,-0.22,0.22,0.04,-0.21,-0.57,-0.58,-0.58
82.16,-0.79,-0.18,-0.79,-0.18,0.18,0.00,-0.25,-0.61,-0.60,-0.61
82.98,-0.78,-0.15,-0.78,-0.14,0.15,-0.03,-0.28,-0.63,-0.63,-0.63
83.81,-0.77,-0.10,-0.78,-0.11,0.11,-0.06,-0.32,-0.66,-0.67,-0.67
84.65,-0.77,-0.07,-0.77,-0.07,0.07,-0.09,-0.35,-0.70,-0.70,-0.70
85.50,-0.76,-0.03,-0.76,-0.03,0.03,-0.13,-0.39,-0.73,-0.73,-0.73
86.35,-0.75,0.01,-0.76,0.01,-0.01,-0.16,-0.42,-0.76,-0.76,-0.76
87.22,-0.75,0.04,-0.75,0.05,-0.05,-0.19,-0.46,-0.80,-0.80,-0.80
88.09,-0.74,0.09,-0.74,0.08,-0.09,-0.22,-0.49,-0.83,-0.83,-0.83
88.97,-0.73,0.12,-0.73,0.13,-0.13,-0.26,-0.53,-0.86,-0.86,-0.86
89.86,-0.72,0.16,-0.72,0.17,-0.17,-0.29,-0.57,-0.89,-0.89,-0.88
90.76,-0.71,0.22,-0.71,0.21,-0.21,-0.33,-0.61,-0.92,-0.92,-0.93
91.66,-0.71,0.24,-0.71,0.25,-0.25,-0.36,-0.65,-0.96,-0.96,-0.95
92.58,-0.70,0.30,-0.70,0.29,-0.29,-0.39,-0.69,-0.99,-0.99,-1.00
93.51,-0.69,0.33,-0.69,0.33,-0.33,-0.43,-0.73,-1.03,-1.03,-1.02
94.44,-0.68,0.37,-0.68,0.37,-0.38,-0.46,-0.77,-1.06,-1.06,-1.06
95.39,-0.68,0.41,-0.68,0.42,-0.42,-0.50,-0.81,-1.10,-1.10,-1.09
96.34,-0.67,0.47,-0.67,0.47,-0.47,-0.53,-0.85,-1.14,-1.14,-1.14
97.30,-0.67,0.51,-0.67,0.51,-0.51,-0.56,-0.89,-1.18,-1.18,-1.18
98.28,-0.66,0.56,-0.66,0.56,-0.55,-0.60,-0.93,-1.21,-1.21,-1.22
99.26,-0.66,0.60,-0.66,0.60,-0.59,-0.63,-0.97,-1.25,-1.26,-1.26
100.25,-0.66,0.64,-0.66,0.63,-0.63,-0.67,-1.01,-1.30,-1.30,-1.30
101.25,-0.67,0.67,-0.67,0.67,-0.68,-0.70,-1.06,-1.35,-1.34,-1.34
102.27,-0.67,0.70,-0.67,0.71,-0.71,-0.74,-1.10,-1.39,-1.39,-1.38
103.29,-0.67,0.76,-0.67,0.75,-0.75,-0.77,-1.14,-1.42,-1.42,-1.44
104.32,-0.68,0.78,-0.68,0.79,-0.79,-0.80,-1.18,-1.47,-1.47,-1.46
105.37,-0.68,0.83,-0.69,0.82,-0.82,-0.84,-1.22,-1.50,-1.51,-1.51
106.42,-0.70,0.85,-0.70,0.86,-0.86,-0.87,-1.25,-1.56,-1.55,-1.55
107.48,-0.71,0.88,-0.71,0.89,-0.89,-0.90,-1.29,-1.60,-1.60,-1.59
108.56,-0.72,0.93,-0.73,0.92,-0.92,-0.94,-1.33,-1.64,-1.65,-1.65
109.64,-0.74,0.95,-0.74,0.95,-0.95,-0.97,-1.36,-1.69,-1.69,-1.69
110.74,-0.76,0.98,-0.76,0.98,-0.98,-1.00,-1.39,-1.74,-1.74,-1.74
111.85,-0.78,1.00,-0.78,1.00,-1.01,-1.03,-1.42,-1.79,-1.79,-1.78
112.97,-0.81,1.04,-0.81,1.03,-1.03,-1.06,-1.45,-1.84,-1.84,-1.85
114.10,-0.83,1.06,-0.83,1.06,-1.06,-1.08,-1.47,-1.89,-1.89,-1.89
115.24,-0.85,1.08,-0.86,1.08,-1.08,-1.11,-1.49,-1.93,-1.93,-1.93
116.39,-0.88,1.10,-0.88,1.10,-1.10,-1.13,-1.51,-1.98,-1.98,-1.98
117.55,-0.92,1.11,-0.92,1.11,-1.11,-1.16,-1.53,-2.03,-2.03,-2.03
118.73,-0.95,1.13,-0.95,1.12,-1.13,-1.18,-1.54,-2.08,-2.08,-2.08
119.92,-0.98,1.13,-0.98,1.14,-1.14,-1.20,-1.55,-2.12,-2.12,-2.12
121.12,-1.01,1.15,-1.01,1.15,-1.15,-1.22,-1.55,-2.16,-2.16,-2.16
122.33,-1.05,1.16,-1.05,1.16,-1.16,-1.24,-1.55,-2.21,-2.20,-2.21
123.55,-1.08,1.16,-1.08,1.16,-1.16,-1.25,-1.54,-2.25,-2.25,-2.24
124.79,-1.11,1.17,-1.12,1.17,-1.17,-1.26,-1.53,-2.29,-2.29,-2.28
126.03,-1.15,1.17,-1.15,1.18,-1.18,-1.27,-1.52,-2.33,-2.33,-2.32
127.29,-1.18,1.19,-1.18,1.19,-1.19,-1.28,-1.50,-2.37,-2.37,-2.37
128.57,-1.21,1.20,-1.21,1.20,-1.20,-1.29,-1.48,-2.41,-2.41,-2.41
129.85,-1.24,1.21,-1.24,1.21,-1.20,-1.29,-1.45,-2.45,-2.45,-2.46
131.15,-1.28,1.21,-1.28,1.21,-1.21,-1.29,-1.42,-2.49,-2.48,-2.49
132.46,-1.31,1.21,-1.31,1.21,-1.21,-1.29,-1.39,-2.52,-2.52,-2.52
133.79,-1.35,1.20,-1.35,1.21,-1.21,-1.29,-1.35,-2.56,-2.56,-2.55
135.12,-1.39,1.20,-1.39,1.20,-1.20,-1.28,-1.31,-2.59,-2.59,-2.60
136.48,-1.43,1.18,-1.43,1.19,-1.19,-1.28,-1.26,-2.62,-2.62,-2.62
137.84,-1.48,1.17,-1.48,1.17,-1.17,-1.27,-1.21,-2.66,-2.65,-2.65
139.22,-1.51,1.16,-1.52,1.16,-1.16,-1.25,-1.16,-2.67,-2.67,-2.68
140.61,-1.56,1.14,-1.56,1.14,-1.14,-1.24,-1.11,-2.70,-2.70,-2.71
142.02,-1.60,1.11,-1.60,1.12,-1.12,-1.22,-1.05,-2.72,-2.72,-2.71
143.44,-1.65,1.09,-1.65,1.09,-1.09,-1.20,-0.99,-2.74,-2.74,-2.74
144.87,-1.69,1.07,-1.69,1.07,-1.07,-1.18,-0.93,-2.76,-2.76,-2.76
146.32,-1.73,1.04,-1.73,1.04,-1.04,-1.15,-0.86,-2.78,-2.78,-2.78
147.78,-1.78,1.01,-1.78,1.01,-1.02,-1.13,-0.80,-2.80,-2.80,-2.79
149.26,-1.82,0.99,-1.83,0.99,-0.99,-1.10,-0.73,-2.81,-2.82,-2.81
150.75,-1.88,0.96,-1.88,0.96,-0.96,-1.07,-0.66,-2.84,-2.83,-2.84
152.26,-1.92,0.94,-1.92,0.93,-0.93,-1.04,-0.59,-2.85,-2.85,-2.86
153.78,-1.97,0.90,-1.97,0.90,-0.90,-1.01,-0.52,-2.87,-2.87,-2.87
155.32,-2.02,0.87,-2.02,0.87,-0.87,-0.97,-0.45,-2.89,-2.89,-2.89
156.88,-2.08,0.83,-2.08,0.83,-0.83,-0.93,-0.38,-2.91,-2.91,-2.91
158.44,-2.14,0.79,-2.14,0.79,-0.80,-0.90,-0.30,-2.94,-2.93,-2.93
160.03,-2.19,0.76,-2.20,0.76,-0.76,-0.86,-0.23,-2.95,-2.96,-2.95
161.63,-2.25,0.73,-2.25,0.73,-0.72,-0.82,-0.15,-2.98,-2.98,-2.98
163.24,-2.31,0.69,-2.31,0.69,-0.69,-0.78,-0.08,-3.00,-2.99,-3.00
164.88,-2.36,0.65,-2.36,0.65,-0.65,-0.73,-0.00,-3.01,-3.01,-3.01
166.53,-2.42,0.61,-2.42,0.61,-0.61,-0.69,0.08,-3.03,-3.03,-3.03
168.19,-2.48,0.58,-2.48,0.57,-0.57,-0.65,0.15,-3.05,-3.05,-3.06
169.87,-2.55,0.53,-2.55,0.53,-0.53,-0.60,0.23,-3.08,-3.08,-3.08
171.57,-2.61,0.49,-2.61,0.49,-0.49,-0.56,0.31,-3.10,-3.10,-3.10
173.29,-2.68,0.44,-2.68,0.44,-0.45,-0.51,0.39,-3.13,-3.13,-3.12
175.02,-2.74,0.41,-2.74,0.41,-0.41,-0.46,0.47,-3.16,-3.16,-3.15
176.77,-2.81,0.37,-2.81,0.38,-0.38,-0.41,0.54,-3.19,-3.18,-3.18
178.54,-2.87,0.35,-2.87,0.34,-0.34,-0.36,0.62,-3.21,-3.21,-3.22
180.32,-2.94,0.30,-2.94,0.30,-0.30,-0.32,0.70,-3.24,-3.24,-3.25
182.13,-3.01,0.26,-3.01,0.26,-0.26,-0.27,0.78,-3.27,-3.28,-3.27
183.95,-3.09,0.22,-3.09,0.22,-0.22,-0.21,0.86,-3.31,-3.31,-3.31
185.79,-3.16,0.18,-3.16,0.18,-0.18,-0.16,0.94,-3.34,-3.34,-3.34
187.65,-3.23,0.14,-3.23,0.14,-0.13,-0.11,1.03,-3.37,-3.37,-3.37
189.52,-3.31,0.08,-3.31,0.09,-0.09,-0.06,1.11,-3.40,-3.40,-3.39
191.42,-3.38,0.05,-3.38,0.04,-0.04,-0.00,1.19,-3.42,-3.42,-3.43
193.33,-3.46,-0.01,-3.46,-0.01,0.01,0.05,1.27,-3.45,-3.45,-3.45
195.27,-3.54,-0.06,-3.54,-0.06,0.06,0.10,1.35,-3.48,-3.48,-3.48
197.22,-3.63,-0.13,-3.62,-0.12,0.12,0.16,1.43,-3.51,-3.50,-3.50
199.19,-3.70,-0.16,-3.71,-0.17,0.18,0.22,1.51,-3.52,-3.53,-3.54
201.18,-3.78,-0.23,-3.79,-0.23,0.24,0.28,1.60,-3.55,-3.55,-3.55
203.19,-3.88,-0.31,-3.87,-0.30,0.30,0.34,1.68,-3.58,-3.58,-3.57
205.23,-3.96,-0.36,-3.96,-0.37,0.36,0.40,1.76,-3.60,-3.60,-3.60
207.28,-4.04,-0.44,-4.05,-0.43,0.42,0.46,1.84,-3.62,-3.62,-3.60
209.35,-4.13,-0.50,-4.13,-0.49,0.49,0.52,1.92,-3.64,-3.63,-3.63
211.44,-4.20,-0.54,-4.21,-0.56,0.56,0.58,2.00,-3.64,-3.65,-3.66
213.56,-4.29,-0.62,-4.29,-0.62,0.63,0.65,2.07,-3.66,-3.66,-3.67
215.69,-4.37,-0.70,-4.37,-0.70,0.70,0.72,2.15,-3.67,-3.68,-3.67
217.85,-4.46,-0.78,-4.46,-0.77,0.77,0.79,2.23,-3.69,-3.69,-3.69
220.03,-4.54,-0.85,-4.54,-0.85,0.85,0.86,2.30,-3.70,-3.69,-3.69
222.23,-4.61,-0.91,-4.62,-0.92,0.93,0.93,2.37,-3.69,-3.69,-3.70
224.45,-4.70,-1.01,-4.70,-1.00,1.01,1.01,2.44,-3.69,-3.69,-3.69
226.70,-4.78,-1.10,-4.78,-1.09,1.10,1.09,2.51,-3.69,-3.68,-3.69
228.96,-4.86,-1.18,-4.87,-1.19,1.18,1.17,2.57,-3.68,-3.68,-3.68
231.25,-4.95,-1.28,-4.95,-1.28,1.28,1.25,2.63,-3.67,-3.67,-3.67
233.57,-5.04,-1.38,-5.04,-1.37,1.37,1.34,2.69,-3.67,-3.66,-3.66
235.90,-5.12,-1.47,-5.13,-1.47,1.47,1.43,2.74,-3.65,-3.65,-3.65
238.26,-5.21,-1.57,-5.21,-1.57,1.57,1.52,2.80,-3.64,-3.64,-3.65
240.64,-5.30,-1.68,-5.30,-1.67,1.68,1.62,2.84,-3.62,-3.62,-3.62
243.05,-5.38,-1.77,-5.39,-1.79,1.78,1.72,2.89,-3.60,-3.61,-3.61
245.48,-5.48,-1.90,-5.47,-1.89,1.89,1.83,2.93,-3.59,-3.59,-3.58
247.93,-5.56,-2.00,-5.56,-2.00,2.00,1.94,2.96,-3.57,-3.57,-3.56
250.41,-5.64,-2.09,-5.65,-2.11,2.10,2.05,3.00,-3.54,-3.54,-3.55
252.92,-5.73,-2.22,-5.73,-2.21,2.21,2.17,3.02,-3.52,-3.52,-3.52
255.45,-5.82,-2.33,-5.82,-2.32,2.32,2.29,3.05,-3.50,-3.50,-3.49
258.00,-5.90,-2.43,-5.90,-2.43,2.43,2.42,3.07,-3.47,-3.47,-3.48
260.58,-5.98,-2.53,-5.99,-2.54,2.54,2.55,3.09,-3.44,-3.45,-3.45
263.19,-6.08,-2.66,-6.07,-2.65,2.65,2.68,3.10,-3.43,-3.42,-3.42
265.82,-6.16,-2.75,-6.16,-2.77,2.77,2.82,3.11,-3.39,-3.40,-3.41
268.48,-6.26,-2.89,-6.26,-2.89,2.89,2.95,3.12,-3.38,-3.37,-3.37
271.16,-6.35,-3.01,-6.36,-3.01,3.01,3.09,3.12,-3.34,-3.35,-3.34
273.87,-6.46,-3.13,-6.46,-3.13,3.13,3.22,3.12,-3.33,-3.32,-3.33
276.61,-6.56,-3.26,-6.56,-3.26,3.27,3.34,3.12,-3.30,-3.30,-3.30
279.38,-6.67,-3.39,-6.67,-3.39,3.40,3.47,3.12,-3.27,-3.28,-3.28
282.17,-6.79,-3.53,-6.79,-3.53,3.53,3.59,3.12,-3.26,-3.25,-3.26
284.99,-6.90,-3.67,-6.90,-3.67,3.67,3.70,3.11,-3.23,-3.23,-3.23
287.84,-7.02,-3.82,-7.02,-3.81,3.81,3.81,3.11,-3.21,-3.21,-3.20
290.72,-7.12,-3.95,-7.13,-3.95,3.94,3.93,3.10,-3.18,-3.18,-3.18
293.63,-7.23,-4.08,-7.23,-4.09,4.08,4.04,3.09,-3.15,-3.15,-3.15
296.57,-7.34,-4.22,-7.34,-4.21,4.22,4.15,3.09,-3.13,-3.12,-3.12
299.53,-7.44,-4.35,-7.44,-4.35,4.35,4.26,3.08,-3.09,-3.09,-3.09
302.53,-7.54,-4.47,-7.54,-4.48,4.48,4.38,3.08,-3.06,-3.06,-3.08
305.55,-7.64,-4.61,-7.64,-4.60,4.61,4.50,3.07,-3.03,-3.03,-3.03
308.61,-7.73,-4.73,-7.73,-4.74,4.74,4.62,3.07,-2.99,-2.99,-3.00
311.69,-7.82,-4.86,-7.82,-4.87,4.86,4.75,3.06,-2.96,-2.96,-2.96
314.81,-7.91,-5.00,-7.91,-4.99,4.99,4.88,3.06,-2.92,-2.92,-2.91
317.96,-8.00,-5.11,-8.00,-5.11,5.11,5.01,3.06,-2.89,-2.89,-2.90
321.14,-8.09,-5.22,-8.09,-5.23,5.23,5.14,3.06,-2.86,-2.87,-2.87
324.35,-8.18,-5.34,-8.18,-5.34,5.34,5.28,3.07,-2.84,-2.84,-2.84
327.59,-8.26,-5.45,-8.26,-5.45,5.46,5.41,3.07,-2.80,-2.81,-2.81
330.87,-8.34,-5.56,-8.34,-5.56,5.57,5.54,3.08,-2.77,-2.78,-2.78
334.18,-8.42,-5.66,-8.42,-5.66,5.67,5.67,3.09,-2.75,-2.75,-2.76
337.52,-8.49,-5.75,-8.49,-5.75,5.76,5.79,3.10,-2.73,-2.73,-2.75
340.90,-8.56,-5.84,-8.56,-5.84,5.84,5.91,3.12,-2.72,-2.72,-2.72
344.30,-8.63,-5.93,-8.63,-5.93,5.90,6.02,3.14,-2.73,-2.72,-2.70
347.75,-8.68,-6.00,-8.68,-6.00,5.95,6.13,3.16,-2.73,-2.73,-2.68
351.23,-8.73,-6.07,-8.73,-6.07,5.98,6.22,3.18,-2.75,-2.75,-2.66
354.74,-8.78,-6.14,-8.78,-6.14,6.01,6.30,3.20,-2.78,-2.78,-2.64
358.28,-8.83,-6.21,-8.83,-6.21,6.02,6.36,3.23,-2.82,-2.81,-2.62
361.87,-8.87,-6.27,-8.87,-6.27,6.02,6.42,3.26,-2.86,-2.86,-2.60
365.49,-8.90,-6.32,-8.90,-6.31,6.01,6.45,3.29,-2.89,-2.89,-2.59
369.14,-8.92,-6.35,-8.92,-6.34,6.01,6.48,3.33,-2.92,-2.91,-2.58
372.83,-8.92,-6.36,-8.92,-6.36,6.00,6.48,3.37,-2.92,-2.92,-2.56
376.56,-8.91,-6.36,-8.91,-6.37,6.00,6.47,3.40,-2.91,-2.91,-2.55
380.33,-8.90,-6.38,-8.90,-6.37,6.00,6.45,3.45,-2.90,-2.90,-2.52
384.13,-8.86,-6.36,-8.87,-6.37,6.00,6.41,3.49,-2.86,-2.87,-2.50
387.97,-8.83,-6.35,-8.83,-6.35,6.00,6.36,3.54,-2.83,-2.82,-2.48
391.85,-8.78,-6.31,-8.78,-6.31,6.01,6.29,3.58,-2.77,-2.76,-2.47
395.77,-8.71,-6.27,-8.72,-6.27,6.02,6.22,3.63,-2.69,-2.70,-2.44
399.73,-8.64,-6.22,-8.64,-6.22,6.02,6.13,3.69,-2.62,-2.62,-2.42
403.72,-8.56,-6.16,-8.56,-6.16,6.01,6.04,3.74,-2.55,-2.55,-2.40
407.76,-8.47,-6.09,-8.47,-6.09,5.99,5.94,3.79,-2.49,-2.49,-2.38
411.84,-8.38,-6.03,-8.37,-6.02,5.95,5.83,3.84,-2.43,-2.43,-2.36
415.96,-8.26,-5.93,-8.27,-5.93,5.90,5.72,3.90,-2.37,-2.37,-2.34
420.12,-8.15,-5.84,-8.15,-5.84,5.83,5.61,3.95,-2.33,-2.33,-2.32
424.32,-8.03,-5.73,-8.03,-5.73,5.74,5.50,4.01,-2.29,-2.29,-2.30
428.56,-7.90,-5.62,-7.90,-5.63,5.64,5.39,4.06,-2.26,-2.26,-2.28
432.85,-7.77,-5.51,-7.77,-5.51,5.53,5.28,4.11,-2.24,-2.24,-2.26
437.18,-7.62,-5.39,-7.63,-5.40,5.41,5.17,4.16,-2.22,-2.22,-2.23
441.55,-7.48,-5.28,-7.48,-5.27,5.28,5.06,4.21,-2.20,-2.20,-2.20
445.96,-7.33,-5.15,-7.33,-5.15,5.15,4.96,4.26,-2.18,-2.18,-2.18
450.42,-7.17,-5.01,-7.18,-5.02,5.02,4.86,4.30,-2.15,-2.15,-2.16
454.93,-7.02,-4.90,-7.02,-4.89,4.89,4.76,4.34,-2.13,-2.13,-2.12
459.48,-6.85,-4.75,-6.85,-4.75,4.75,4.66,4.38,-2.10,-2.10,-2.10
464.07,-6.68,-4.61,-6.68,-4.61,4.61,4.56,4.41,-2.07,-2.07,-2.07
