frequency,raw,error,smoothed,error_smoothed,equalization,parametric_eq,fixed_band_eq,equalized_raw,equalized_smoothed,target
20.00,-4.25,-4.32,-4.24,-4.30,4.49,4.04,1.07,0.24,0.25,0.07
20.20,-4.17,-4.28,-4.18,-4.28,4.34,4.00,1.10,0.17,0.16,0.11
20.40,-4.08,-4.23,-4.10,-4.25,4.20,3.96,1.13,0.12,0.10,0.15
20.61,-4.00,-4.17,-4.01,-4.19,4.08,3.92,1.17,0.07,0.06,0.17
20.81,-3.92,-4.13,-3.92,-4.13,3.96,3.88,1.20,0.04,0.04,0.21
21.02,-3.82,-4.07,-3.79,-4.03,3.85,3.84,1.24,0.03,0.06,0.25
21.23,-3.62,-3.88,-3.63,-3.89,3.76,3.80,1.28,0.14,0.13,0.26
21.44,-3.43,-3.70,-3.42,-3.70,3.68,3.76,1.32,0.25,0.25,0.28
21.66,-3.23,-3.52,-3.21,-3.49,3.57,3.72,1.36,0.34,0.36,0.28
21.87,-3.03,-3.31,-3.06,-3.35,3.49,3.68,1.40,0.46,0.43,0.28
22.09,-2.96,-3.26,-3.00,-3.29,3.44,3.64,1.44,0.48,0.44,0.29
22.31,-3.05,-3.35,-3.03,-3.32,3.42,3.59,1.48,0.36,0.39,0.29
22.54,-3.14,-3.43,-3.14,-3.43,3.42,3.55,1.53,0.28,0.28,0.29
22.76,-3.23,-3.51,-3.24,-3.52,3.44,3.51,1.58,0.21,0.20,0.28
22.99,-3.33,-3.60,-3.29,-3.56,3.47,3.47,1.62,0.14,0.18,0.27
23.22,-3.28,-3.55,-3.29,-3.55,3.49,3.43,1.67,0.21,0.20,0.27
23.45,-3.23,-3.49,-3.25,-3.51,3.48,3.39,1.72,0.25,0.23,0.26
23.69,-3.18,-3.44,-3.19,-3.45,3.44,3.34,1.77,0.26,0.26,0.26
23.92,-3.14,-3.40,-3.13,-3.39,3.37,3.30,1.82,0.23,0.25,0.26
24.16,-3.05,-3.32,-3.05,-3.31,3.29,3.26,1.87,0.24,0.24,0.27
24.40,-2.94,-3.21,-2.94,-3.21,3.20,3.22,1.92,0.26,0.26,0.27
24.65,-2.83,-3.09,-2.83,-3.09,3.13,3.17,1.98,0.30,0.30,0.26
24.89,-2.73,-2.99,-2.75,-3.01,3.07,3.13,2.03,0.34,0.33,0.26
25.14,-2.69,-2.95,-2.71,-2.97,3.03,3.09,2.09,0.34,0.32,0.26
25.39,-2.72,-2.98,-2.71,-2.97,3.00,3.05,2.14,0.27,0.28,0.26
25.65,-2.74,-2.99,-2.74,-2.99,2.97,3.00,2.19,0.23,0.24,0.25
25.91,-2.76,-3.00,-2.75,-2.99,2.96,2.96,2.25,0.20,0.21,0.24
26.16,-2.75,-2.99,-2.74,-2.98,2.95,2.92,2.30,0.20,0.20,0.23
26.43,-2.71,-2.95,-2.72,-2.96,2.92,2.87,2.35,0.21,0.20,0.23
26.69,-2.68,-2.91,-2.69,-2.92,2.89,2.83,2.40,0.21,0.20,0.23
26.96,-2.65,-2.87,-2.64,-2.86,2.84,2.79,2.46,0.19,0.20,0.22
27.23,-2.57,-2.79,-2.57,-2.79,2.79,2.74,2.50,0.22,0.22,0.22
27.50,-2.49,-2.71,-2.49,-2.71,2.74,2.70,2.55,0.25,0.25,0.22
27.77,-2.41,-2.62,-2.41,-2.63,2.69,2.66,2.60,0.28,0.28,0.21
28.05,-2.35,-2.56,-2.36,-2.57,2.63,2.61,2.64,0.28,0.27,0.21
28.33,-2.34,-2.54,-2.35,-2.55,2.56,2.57,2.68,0.22,0.21,0.20
28.62,-2.34,-2.54,-2.34,-2.54,2.48,2.53,2.72,0.14,0.13,0.20
28.90,-2.33,-2.53,-2.30,-2.50,2.39,2.48,2.75,0.06,0.09,0.20
29.19,-2.21,-2.41,-2.19,-2.39,2.29,2.44,2.78,0.08,0.10,0.19
29.48,-2.03,-2.23,-2.03,-2.23,2.21,2.40,2.81,0.18,0.18,0.20
29.78,-1.85,-2.05,-1.86,-2.06,2.13,2.35,2.83,0.27,0.26,0.19
30.08,-1.72,-1.92,-1.76,-1.96,2.06,2.31,2.85,0.34,0.30,0.20
30.38,-1.74,-1.92,-1.73,-1.92,2.01,2.27,2.86,0.27,0.28,0.18
30.68,-1.77,-1.95,-1.75,-1.93,1.99,2.23,2.87,0.22,0.24,0.18
30.99,-1.80,-1.97,-1.81,-1.98,2.00,2.18,2.87,0.20,0.19,0.17
31.30,-1.86,-2.03,-1.87,-2.04,2.03,2.14,2.87,0.17,0.16,0.17
31.61,-1.93,-2.10,-1.93,-2.09,2.06,2.10,2.86,0.13,0.13,0.16
31.93,-1.99,-2.13,-1.97,-2.12,2.07,2.06,2.85,0.08,0.09,0.14
32.24,-1.98,-2.11,-1.99,-2.12,2.04,2.01,2.83,0.06,0.05,0.13
32.57,-1.94,-2.07,-1.96,-2.08,1.98,1.97,2.81,0.04,0.02,0.13
32.89,-1.90,-2.02,-1.88,-1.99,1.91,1.93,2.79,0.01,0.03,0.12
33.22,-1.76,-1.86,-1.73,-1.84,1.82,1.89,2.76,0.06,0.09,0.10
33.55,-1.57,-1.66,-1.56,-1.65,1.74,1.85,2.72,0.17,0.18,0.09
33.89,-1.38,-1.45,-1.43,-1.51,1.67,1.80,2.68,0.28,0.23,0.07
34.23,-1.38,-1.45,-1.41,-1.47,1.60,1.76,2.64,0.21,0.19,0.07
34.57,-1.47,-1.52,-1.46,-1.51,1.54,1.72,2.60,0.07,0.08,0.05
34.92,-1.57,-1.61,-1.53,-1.57,1.49,1.68,2.55,-0.08,-0.03,0.04
35.27,-1.54,-1.58,-1.54,-1.56,1.46,1.64,2.50,-0.08,-0.07,0.03
35.62,-1.48,-1.49,-1.49,-1.51,1.44,1.60,2.44,-0.04,-0.06,0.01
35.97,-1.42,-1.42,-1.43,-1.43,1.42,1.56,2.39,-0.00,-0.01,0.00
36.33,-1.38,-1.38,-1.38,-1.37,1.39,1.52,2.33,0.01,0.02,-0.00
36.70,-1.34,-1.33,-1.34,-1.32,1.37,1.48,2.27,0.03,0.03,-0.01
37.06,-1.30,-1.27,-1.31,-1.29,1.35,1.44,2.21,0.04,0.04,-0.03
37.43,-1.30,-1.28,-1.30,-1.27,1.33,1.40,2.15,0.02,0.03,-0.02
37.81,-1.30,-1.27,-1.31,-1.27,1.30,1.36,2.09,0.00,-0.00,-0.03
38.19,-1.33,-1.29,-1.35,-1.31,1.28,1.33,2.03,-0.05,-0.07,-0.05
38.57,-1.38,-1.34,-1.39,-1.34,1.25,1.29,1.97,-0.13,-0.14,-0.04
38.95,-1.43,-1.38,-1.37,-1.32,1.21,1.25,1.91,-0.22,-0.16,-0.05
39.34,-1.30,-1.24,-1.29,-1.23,1.18,1.21,1.84,-0.12,-0.10,-0.06
39.74,-1.14,-1.07,-1.17,-1.11,1.15,1.18,1.78,0.01,-0.02,-0.07
40.14,-1.05,-0.98,-1.08,-1.01,1.12,1.14,1.72,0.07,0.04,-0.07
40.54,-1.07,-1.00,-1.06,-0.99,1.09,1.10,1.66,0.02,0.03,-0.08
40.94,-1.10,-1.02,-1.10,-1.02,1.06,1.07,1.60,-0.05,-0.05,-0.08
41.35,-1.15,-1.06,-1.17,-1.07,1.02,1.03,1.54,-0.13,-0.14,-0.09
41.76,-1.21,-1.10,-1.19,-1.09,1.00,1.00,1.48,-0.21,-0.20,-0.11
42.18,-1.20,-1.09,-1.17,-1.05,0.98,0.96,1.42,-0.22,-0.19,-0.11
42.60,-1.09,-0.96,-1.10,-0.98,0.96,0.93,1.36,-0.13,-0.15,-0.13
43.03,-1.00,-0.87,-1.04,-0.90,0.93,0.89,1.31,-0.07,-0.10,-0.13
43.46,-1.00,-0.85,-1.00,-0.84,0.89,0.86,1.25,-0.11,-0.10,-0.15
43.90,-1.00,-0.82,-0.99,-0.82,0.85,0.83,1.20,-0.15,-0.14,-0.18
44.33,-1.00,-0.81,-1.00,-0.80,0.81,0.79,1.14,-0.19,-0.19,-0.19
44.78,-1.00,-0.78,-1.00,-0.78,0.78,0.76,1.09,-0.22,-0.22,-0.22
45.23,-1.00,-0.77,-1.00,-0.77,0.76,0.73,1.04,-0.24,-0.24,-0.24
45.68,-1.00,-0.75,-1.00,-0.75,0.75,0.70,0.99,-0.26,-0.26,-0.25
46.13,-1.00,-0.73,-1.00,-0.74,0.73,0.67,0.94,-0.27,-0.28,-0.27
46.60,-1.00,-0.73,-1.00,-0.73,0.71,0.63,0.89,-0.29,-0.29,-0.27
47.06,-0.99,-0.71,-0.98,-0.70,0.68,0.60,0.84,-0.31,-0.30,-0.28
47.53,-0.95,-0.67,-0.95,-0.66,0.66,0.57,0.79,-0.29,-0.29,-0.29
48.01,-0.90,-0.61,-0.92,-0.62,0.63,0.54,0.75,-0.27,-0.29,-0.29
48.49,-0.90,-0.59,-0.90,-0.59,0.61,0.51,0.70,-0.29,-0.29,-0.31
48.97,-0.90,-0.58,-0.90,-0.57,0.59,0.48,0.66,-0.31,-0.31,-0.33
49.46,-0.90,-0.57,-0.90,-0.57,0.57,0.46,0.61,-0.33,-0.33,-0.33
49.96,-0.90,-0.55,-0.90,-0.56,0.55,0.43,0.57,-0.35,-0.35,-0.35
50.46,-0.90,-0.56,-0.90,-0.56,0.55,0.40,0.53,-0.35,-0.35,-0.34
50.96,-0.90,-0.55,-0.90,-0.55,0.56,0.37,0.49,-0.34,-0.34,-0.35
51.47,-0.90,-0.55,-0.90,-0.55,0.57,0.34,0.44,-0.33,-0.33,-0.36
51.99,-0.90,-0.54,-0.90,-0.54,0.56,0.32,0.40,-0.34,-0.33,-0.36
52.51,-0.90,-0.54,-0.90,-0.54,0.55,0.29,0.37,-0.35,-0.36,-0.36
53.03,-0.90,-0.54,-0.94,-0.57,0.52,0.26,0.33,-0.38,-0.42,-0.36
53.56,-0.96,-0.59,-0.94,-0.57,0.48,0.24,0.29,-0.48,-0.46,-0.37
54.10,-0.96,-0.58,-0.88,-0.50,0.45,0.21,0.25,-0.51,-0.43,-0.38
54.64,-0.74,-0.36,-0.78,-0.39,0.41,0.19,0.22,-0.33,-0.37,-0.38
55.18,-0.62,-0.23,-0.69,-0.30,0.37,0.16,0.18,-0.25,-0.32,-0.39
55.74,-0.67,-0.27,-0.65,-0.25,0.34,0.13,0.14,-0.33,-0.31,-0.40
56.29,-0.70,-0.30,-0.68,-0.26,0.30,0.11,0.11,-0.40,-0.38,-0.41
56.86,-0.70,-0.27,-0.70,-0.28,0.26,0.08,0.08,-0.44,-0.45,-0.43
57.42,-0.70,-0.26,-0.71,-0.27,0.22,0.06,0.04,-0.48,-0.49,-0.44
58.00,-0.70,-0.25,-0.71,-0.26,0.20,0.04,0.01,-0.50,-0.51,-0.45
58.58,-0.70,-0.24,-0.68,-0.22,0.18,0.01,-0.02,-0.52,-0.50,-0.47
59.16,-0.66,-0.18,-0.62,-0.14,0.16,-0.01,-0.05,-0.50,-0.46,-0.48
59.76,-0.53,-0.03,-0.57,-0.07,0.13,-0.04,-0.08,-0.40,-0.44,-0.50
60.35,-0.52,0.01,-0.55,-0.03,0.09,-0.06,-0.11,-0.44,-0.47,-0.53
60.96,-0.59,-0.04,-0.60,-0.04,0.04,-0.09,-0.14,-0.55,-0.56,-0.55
61.57,-0.67,-0.07,-0.64,-0.05,-0.01,-0.11,-0.17,-0.68,-0.65,-0.60
62.18,-0.68,-0.05,-0.63,-0.00,-0.06,-0.13,-0.20,-0.74,-0.69,-0.63
62.80,-0.54,0.13,-0.58,0.09,-0.11,-0.16,-0.23,-0.65,-0.69,-0.67
63.43,-0.50,0.20,-0.52,0.18,-0.16,-0.18,-0.25,-0.66,-0.68,-0.71
64.07,-0.50,0.24,-0.49,0.25,-0.20,-0.20,-0.28,-0.70,-0.69,-0.74
64.71,-0.50,0.28,-0.50,0.28,-0.25,-0.23,-0.31,-0.76,-0.75,-0.78
65.35,-0.50,0.31,-0.50,0.31,-0.31,-0.25,-0.33,-0.81,-0.81,-0.81
66.01,-0.50,0.35,-0.50,0.35,-0.35,-0.28,-0.36,-0.86,-0.86,-0.85
66.67,-0.50,0.38,-0.50,0.38,-0.39,-0.30,-0.38,-0.89,-0.89,-0.89
67.33,-0.50,0.41,-0.50,0.42,-0.43,-0.33,-0.41,-0.93,-0.93,-0.92
68.01,-0.50,0.45,-0.50,0.45,-0.46,-0.35,-0.43,-0.96,-0.96,-0.96
68.69,-0.50,0.49,-0.50,0.49,-0.49,-0.38,-0.46,-0.99,-0.99,-1.00
69.37,-0.50,0.54,-0.50,0.54,-0.53,-0.40,-0.48,-1.03,-1.03,-1.04
70.07,-0.50,0.58,-0.50,0.57,-0.57,-0.43,-0.50,-1.07,-1.07,-1.08
70.77,-0.50,0.61,-0.50,0.61,-0.62,-0.45,-0.53,-1.12,-1.12,-1.11
71.48,-0.50,0.65,-0.50,0.65,-0.66,-0.48,-0.55,-1.16,-1.16,-1.15
72.19,-0.50,0.70,-0.50,0.70,-0.70,-0.50,-0.58,-1.20,-1.20,-1.20
72.91,-0.50,0.75,-0.50,0.75,-0.75,-0.53,-0.60,-1.25,-1.25,-1.25
73.64,-0.50,0.79,-0.50,0.80,-0.79,-0.55,-0.63,-1.29,-1.29,-1.30
74.38,-0.50,0.84,-0.50,0.84,-0.84,-0.58,-0.65,-1.34,-1.34,-1.34
75.12,-0.50,0.89,-0.50,0.88,-0.88,-0.61,-0.68,-1.38,-1.38,-1.39
75.87,-0.50,0.92,-0.50,0.92,-0.93,-0.64,-0.70,-1.43,-1.43,-1.42
76.63,-0.50,0.96,-0.50,0.96,-0.97,-0.66,-0.73,-1.47,-1.47,-1.46
77.40,-0.50,1.00,-0.50,1.00,-1.01,-0.69,-0.76,-1.51,-1.51,-1.50
78.17,-0.50,1.03,-0.50,1.03,-1.03,-0.72,-0.79,-1.54,-1.54,-1.54
78.95,-0.50,1.06,-0.50,1.06,-1.05,-0.75,-0.81,-1.56,-1.55,-1.56
79.74,-0.50,1.09,-0.50,1.10,-1.07,-0.78,-0.84,-1.57,-1.56,-1.59
80.54,-0.50,1.12,-0.50,1.12,-1.08,-0.81,-0.87,-1.58,-1.58,-1.62
81.35,-0.52,1.13,-0.55,1.10,-1.09,-0.84,-0.90,-1.61,-1.64,-1.65
82.16,-0.59,1.09,-0.61,1.07,-1.10,-0.87,-0.93,-1.69,-1.71,-1.68
82.98,-0.72,0.98,-0.64,1.07,-1.12,-0.90,-0.96,-1.84,-1.76,-1.70
83.81,-0.62,1.12,-0.65,1.09,-1.13,-0.93,-1.00,-1.76,-1.78,-1.75
84.65,-0.60,1.18,-0.63,1.15,-1.16,-0.96,-1.03,-1.76,-1.78,-1.78
85.50,-0.60,1.20,-0.59,1.21,-1.18,-0.99,-1.06,-1.78,-1.78,-1.80
86.35,-0.60,1.23,-0.60,1.24,-1.22,-1.02,-1.10,-1.82,-1.82,-1.83
87.22,-0.60,1.27,-0.60,1.26,-1.26,-1.05,-1.13,-1.86,-1.86,-1.87
88.09,-0.60,1.30,-0.60,1.30,-1.30,-1.09,-1.17,-1.90,-1.90,-1.90
88.97,-0.60,1.33,-0.60,1.33,-1.34,-1.12,-1.21,-1.94,-1.94,-1.93
89.86,-0.59,1.37,-0.59,1.37,-1.37,-1.15,-1.25,-1.96,-1.97,-1.96
90.76,-0.59,1.41,-0.59,1.40,-1.40,-1.18,-1.29,-1.99,-1.99,-2.00
91.66,-0.59,1.43,-0.59,1.44,-1.43,-1.22,-1.33,-2.02,-2.02,-2.02
92.58,-0.59,1.47,-0.59,1.46,-1.47,-1.25,-1.37,-2.06,-2.06,-2.06
93.51,-0.59,1.49,-0.59,1.49,-1.50,-1.29,-1.41,-2.09,-2.09,-2.08
94.44,-0.59,1.52,-0.59,1.52,-1.53,-1.32,-1.46,-2.12,-2.12,-2.11
95.39,-0.59,1.55,-0.59,1.55,-1.55,-1.36,-1.50,-2.14,-2.14,-2.14
96.34,-0.59,1.58,-0.59,1.58,-1.57,-1.39,-1.54,-2.16,-2.17,-2.18
97.30,-0.60,1.60,-0.60,1.60,-1.59,-1.42,-1.59,-2.19,-2.19,-2.20
98.28,-0.61,1.62,-0.61,1.62,-1.61,-1.46,-1.64,-2.22,-2.22,-2.23
99.26,-0.62,1.63,-0.63,1.63,-1.63,-1.49,-1.68,-2.25,-2.25,-2.25
100.25,-0.64,1.64,-0.64,1.63,-1.65,-1.53,-1.73,-2.29,-2.29,-2.28
101.25,-0.66,1.64,-0.66,1.65,-1.67,-1.56,-1.78,-2.33,-2.33,-2.30
102.27,-0.67,1.66,-0.67,1.66,-1.69,-1.60,-1.82,-2.36,-2.36,-2.33
103.29,-0.68,1.70,-0.69,1.68,-1.70,-1.63,-1.87,-2.38,-2.39,-2.38
104.32,-0.70,1.70,-0.68,1.73,-1.71,-1.67,-1.92,-2.41,-2.38,-2.40
105.37,-0.69,1.75,-0.68,1.76,-1.71,-1.71,-1.97,-2.40,-2.39,-2.44
106.42,-0.66,1.80,-0.72,1.75,-1.71,-1.74,-2.02,-2.37,-2.43,-2.47
107.48,-0.79,1.71,-0.78,1.72,-1.70,-1.77,-2.06,-2.49,-2.49,-2.50
108.56,-0.90,1.64,-0.86,1.68,-1.70,-1.81,-2.11,-2.60,-2.56,-2.54
109.64,-0.92,1.66,-0.93,1.65,-1.69,-1.84,-2.15,-2.62,-2.62,-2.58
110.74,-0.94,1.67,-0.95,1.66,-1.69,-1.88,-2.20,-2.63,-2.64,-2.61
111.85,-0.96,1.68,-0.96,1.68,-1.69,-1.91,-2.24,-2.65,-2.65,-2.64
112.97,-0.97,1.71,-0.97,1.71,-1.70,-1.95,-2.28,-2.67,-2.67,-2.68
114.10,-0.97,1.73,-0.98,1.73,-1.71,-1.98,-2.32,-2.69,-2.69,-2.70
115.24,-0.98,1.76,-0.98,1.76,-1.74,-2.01,-2.36,-2.72,-2.72,-2.74
116.39,-0.98,1.78,-0.98,1.79,-1.78,-2.04,-2.40,-2.76,-2.76,-2.77
117.55,-0.97,1.82,-0.98,1.82,-1.82,-2.08,-2.43,-2.80,-2.80,-2.79
118.73,-0.97,1.85,-0.98,1.83,-1.87,-2.11,-2.46,-2.84,-2.85,-2.82
119.92,-0.96,1.86,-0.96,1.88,-1.92,-2.14,-2.49,-2.88,-2.87,-2.83
121.12,-0.94,1.91,-0.89,1.96,-1.96,-2.17,-2.52,-2.90,-2.85,-2.85
122.33,-0.80,2.06,-0.83,2.03,-2.00,-2.20,-2.54,-2.80,-2.83,-2.87
123.55,-0.74,2.13,-0.79,2.09,-2.04,-2.23,-2.56,-2.78,-2.83,-2.87
124.79,-0.81,2.09,-0.78,2.11,-2.08,-2.26,-2.58,-2.89,-2.86,-2.90
126.03,-0.82,2.09,-0.81,2.10,-2.11,-2.29,-2.59,-2.93,-2.91,-2.91
127.29,-0.81,2.11,-0.82,2.11,-2.13,-2.32,-2.61,-2.94,-2.95,-2.92
128.57,-0.81,2.14,-0.81,2.13,-2.15,-2.35,-2.62,-2.96,-2.96,-2.95
129.85,-0.80,2.16,-0.80,2.16,-2.16,-2.37,-2.62,-2.96,-2.96,-2.96
131.15,-0.80,2.17,-0.80,2.17,-2.17,-2.40,-2.63,-2.97,-2.97,-2.97
132.46,-0.79,2.19,-0.79,2.19,-2.19,-2.43,-2.63,-2.98,-2.98,-2.98
133.79,-0.79,2.19,-0.79,2.21,-2.20,-2.45,-2.63,-3.00,-2.99,-2.99
135.12,-0.78,2.24,-0.78,2.22,-2.22,-2.48,-2.62,-3.01,-3.01,-3.02
136.48,-0.78,2.24,-0.78,2.24,-2.24,-2.50,-2.62,-3.02,-3.03,-3.02
137.84,-0.78,2.26,-0.78,2.26,-2.26,-2.52,-2.61,-3.04,-3.04,-3.04
139.22,-0.78,2.28,-0.78,2.28,-2.28,-2.55,-2.61,-3.06,-3.06,-3.07
140.61,-0.78,2.30,-0.78,2.30,-2.29,-2.57,-2.60,-3.07,-3.07,-3.08
142.02,-0.77,2.31,-0.77,2.32,-2.31,-2.59,-2.59,-3.08,-3.08,-3.08
143.44,-0.77,2.33,-0.77,2.33,-2.33,-2.61,-2.58,-3.10,-3.10,-3.10
144.87,-0.77,2.36,-0.77,2.35,-2.35,-2.63,-2.57,-3.12,-3.13,-3.13
146.32,-0.78,2.37,-0.78,2.37,-2.38,-2.65,-2.56,-3.16,-3.16,-3.15
147.78,-0.78,2.40,-0.78,2.40,-2.41,-2.67,-2.54,-3.19,-3.19,-3.18
149.26,-0.78,2.43,-0.78,2.44,-2.45,-2.69,-2.53,-3.23,-3.23,-3.22
150.75,-0.78,2.49,-0.78,2.48,-2.49,-2.70,-2.52,-3.27,-3.27,-3.27
152.26,-0.78,2.53,-0.78,2.54,-2.54,-2.72,-2.51,-3.32,-3.32,-3.31
153.78,-0.78,2.59,-0.78,2.59,-2.60,-2.74,-2.50,-3.38,-3.37,-3.37
155.32,-0.77,2.66,-0.77,2.65,-2.66,-2.75,-2.49,-3.43,-3.43,-3.43
156.88,-0.77,2.71,-0.77,2.72,-2.72,-2.77,-2.49,-3.49,-3.49,-3.48
158.44,-0.77,2.78,-0.77,2.78,-2.78,-2.78,-2.48,-3.55,-3.55,-3.56
160.03,-0.77,2.85,-0.77,2.84,-2.84,-2.79,-2.47,-3.61,-3.61,-3.62
161.63,-0.77,2.90,-0.77,2.90,-2.89,-2.81,-2.47,-3.66,-3.66,-3.67
163.24,-0.78,2.95,-0.78,2.94,-2.94,-2.82,-2.47,-3.72,-3.71,-3.73
164.88,-0.78,2.98,-0.78,2.98,-2.98,-2.83,-2.47,-3.76,-3.76,-3.76
166.53,-0.78,3.02,-0.79,3.01,-3.01,-2.84,-2.47,-3.79,-3.80,-3.80
168.19,-0.79,3.03,-0.79,3.04,-3.03,-2.85,-2.47,-3.82,-3.82,-3.83
169.87,-0.80,3.05,-0.80,3.06,-3.05,-2.86,-2.48,-3.85,-3.85,-3.85
171.57,-0.80,3.07,-0.81,3.06,-3.06,-2.87,-2.49,-3.86,-3.87,-3.87
173.29,-0.81,3.07,-0.81,3.07,-3.07,-2.88,-2.49,-3.88,-3.88,-3.88
175.02,-0.82,3.06,-0.82,3.07,-3.07,-2.89,-2.50,-3.89,-3.89,-3.89
176.77,-0.82,3.07,-0.82,3.07,-3.07,-2.89,-2.52,-3.89,-3.89,-3.89
178.54,-0.82,3.08,-0.82,3.07,-3.07,-2.90,-2.53,-3.89,-3.89,-3.90
180.32,-0.82,3.06,-0.82,3.07,-3.07,-2.91,-2.55,-3.89,-3.89,-3.88
182.13,-0.81,3.07,-0.81,3.07,-3.08,-2.91,-2.57,-3.89,-3.89,-3.88
183.95,-0.80,3.08,-0.80,3.08,-3.09,-2.92,-2.59,-3.89,-3.89,-3.88
185.79,-0.79,3.09,-0.79,3.10,-3.10,-2.92,-2.61,-3.89,-3.89,-3.89
187.65,-0.77,3.13,-0.78,3.12,-3.12,-2.93,-2.63,-3.89,-3.89,-3.90
189.52,-0.76,3.14,-0.76,3.14,-3.14,-2.93,-2.66,-3.90,-3.90,-3.90
191.42,-0.75,3.16,-0.75,3.17,-3.17,-2.93,-2.69,-3.92,-3.92,-3.91
193.33,-0.73,3.20,-0.73,3.19,-3.20,-2.94,-2.72,-3.93,-3.93,-3.93
195.27,-0.72,3.22,-0.72,3.22,-3.23,-2.94,-2.75,-3.95,-3.94,-3.94
197.22,-0.70,3.26,-0.70,3.26,-3.25,-2.94,-2.78,-3.95,-3.96,-3.96
199.19,-0.69,3.29,-0.69,3.28,-3.28,-2.94,-2.81,-3.97,-3.97,-3.98
201.18,-0.68,3.31,-0.68,3.31,-3.30,-2.95,-2.85,-3.99,-3.99,-3.99
203.19,-0.68,3.32,-0.68,3.33,-3.33,-2.95,-2.88,-4.01,-4.01,-4.00
205.23,-0.68,3.35,-0.68,3.34,-3.35,-2.95,-2.92,-4.03,-4.03,-4.03
207.28,-0.68,3.35,-0.68,3.36,-3.36,-2.95,-2.96,-4.05,-4.05,-4.03
209.35,-0.68,3.38,-0.68,3.38,-3.38,-2.95,-2.99,-4.06,-4.06,-4.06
211.44,-0.68,3.40,-0.68,3.39,-3.39,-2.95,-3.03,-4.07,-4.08,-4.08
213.56,-0.69,3.40,-0.69,3.40,-3.40,-2.95,-3.07,-4.09,-4.09,-4.09
215.69,-0.69,3.41,-0.69,3.41,-3.41,-2.95,-3.11,-4.10,-4.10,-4.10
217.85,-0.69,3.42,-0.70,3.42,-3.42,-2.95,-3.14,-4.11,-4.11,-4.11
220.03,-0.70,3.42,-0.70,3.42,-3.42,-2.95,-3.18,-4.12,-4.12,-4.13
222.23,-0.70,3.43,-0.70,3.42,-3.42,-2.94,-3.21,-4.12,-4.12,-4.13
224.45,-0.70,3.42,-0.70,3.42,-3.42,-2.94,-3.25,-4.12,-4.13,-4.12
226.70,-0.70,3.42,-0.70,3.42,-3.42,-2.94,-3.28,-4.12,-4.12,-4.12
228.96,-0.69,3.42,-0.70,3.41,-3.42,-2.94,-3.31,-4.11,-4.12,-4.11
231.25,-0.69,3.41,-0.69,3.41,-3.42,-2.94,-3.34,-4.11,-4.10,-4.10
233.57,-0.68,3.41,-0.68,3.41,-3.41,-2.93,-3.36,-4.09,-4.09,-4.09
235.90,-0.66,3.41,-0.67,3.41,-3.40,-2.93,-3.38,-4.06,-4.07,-4.07
238.26,-0.65,3.40,-0.65,3.40,-3.39,-2.93,-3.40,-4.04,-4.04,-4.05
240.64,-0.63,3.39,-0.64,3.39,-3.39,-2.93,-3.42,-4.02,-4.02,-4.03
243.05,-0.62,3.37,-0.62,3.38,-3.38,-2.92,-3.43,-4.01,-4.00,-3.99
245.48,-0.60,3.37,-0.60,3.37,-3.39,-2.92,-3.44,-3.99,-3.98,-3.97
247.93,-0.57,3.37,-0.58,3.37,-3.39,-2.92,-3.45,-3.96,-3.97,-3.94
250.41,-0.55,3.38,-0.56,3.36,-3.39,-2.91,-3.45,-3.95,-3.95,-3.93
252.92,-0.54,3.35,-0.52,3.37,-3.38,-2.91,-3.45,-3.92,-3.90,-3.89
255.45,-0.50,3.37,-0.48,3.39,-3.36,-2.90,-3.44,-3.86,-3.84,-3.87
258.00,-0.42,3.43,-0.47,3.38,-3.32,-2.90,-3.43,-3.74,-3.79,-3.85
260.58,-0.48,3.35,-0.48,3.35,-3.27,-2.89,-3.42,-3.75,-3.75,-3.84
263.19,-0.58,3.23,-0.56,3.26,-3.22,-2.89,-3.41,-3.80,-3.77,-3.81
265.82,-0.61,3.18,-0.67,3.12,-3.16,-2.88,-3.39,-3.77,-3.83,-3.79
268.48,-0.79,2.98,-0.74,3.03,-3.10,-2.88,-3.37,-3.89,-3.84,-3.77
271.16,-0.80,2.94,-0.77,2.98,-3.04,-2.87,-3.34,-3.84,-3.81,-3.74
273.87,-0.72,3.00,-0.76,2.96,-2.99,-2.87,-3.32,-3.71,-3.75,-3.73
276.61,-0.72,2.98,-0.73,2.97,-2.95,-2.86,-3.29,-3.67,-3.68,-3.70
279.38,-0.72,2.95,-0.71,2.96,-2.93,-2.86,-3.26,-3.65,-3.64,-3.67
282.17,-0.72,2.93,-0.72,2.93,-2.92,-2.85,-3.22,-3.64,-3.64,-3.66
284.99,-0.71,2.91,-0.72,2.90,-2.92,-2.84,-3.19,-3.63,-3.64,-3.62
287.84,-0.71,2.88,-0.71,2.88,-2.91,-2.84,-3.16,-3.62,-3.62,-3.59
290.72,-0.70,2.85,-0.66,2.90,-2.88,-2.83,-3.12,-3.58,-3.54,-3.56
293.63,-0.62,2.91,-0.63,2.89,-2.85,-2.82,-3.09,-3.47,-3.48,-3.53
296.57,-0.56,2.93,-0.64,2.86,-2.81,-2.81,-3.05,-3.38,-3.45,-3.49
299.53,-0.71,2.76,-0.67,2.80,-2.78,-2.81,-3.01,-3.49,-3.45,-3.47
302.53,-0.75,2.69,-0.72,2.72,-2.74,-2.80,-2.98,-3.49,-3.46,-3.45
305.55,-0.74,2.67,-0.75,2.66,-2.71,-2.79,-2.94,-3.45,-3.47,-3.41
308.61,-0.73,2.66,-0.74,2.65,-2.68,-2.78,-2.91,-3.42,-3.42,-3.39
311.69,-0.72,2.65,-0.72,2.64,-2.66,-2.77,-2.88,-3.38,-3.38,-3.37
314.81,-0.72,2.61,-0.72,2.62,-2.64,-2.76,-2.84,-3.36,-3.36,-3.34
317.96,-0.71,2.62,-0.70,2.62,-2.61,-2.75,-2.81,-3.33,-3.32,-3.33
321.14,-0.70,2.61,-0.68,2.63,-2.60,-2.74,-2.78,-3.30,-3.27,-3.31
324.35,-0.63,2.67,-0.68,2.62,-2.57,-2.73,-2.76,-3.21,-3.25,-3.30
327.59,-0.69,2.59,-0.71,2.58,-2.55,-2.72,-2.73,-3.24,-3.26,-3.28
330.87,-0.79,2.48,-0.76,2.52,-2.52,-2.71,-2.70,-3.31,-3.28,-3.27
334.18,-0.82,2.45,-0.81,2.45,-2.49,-2.70,-2.68,-3.31,-3.30,-3.27
337.52,-0.82,2.44,-0.83,2.43,-2.46,-2.69,-2.66,-3.28,-3.29,-3.26
340.90,-0.82,2.42,-0.82,2.42,-2.43,-2.67,-2.64,-3.25,-3.25,-3.24
344.30,-0.82,2.41,-0.82,2.41,-2.41,-2.66,-2.62,-3.23,-3.23,-3.23
347.75,-0.82,2.40,-0.82,2.40,-2.39,-2.65,-2.61,-3.22,-3.22,-3.22
351.23,-0.82,2.39,-0.82,2.39,-2.39,-2.63,-2.59,-3.21,-3.21,-3.21
354.74,-0.82,2.39,-0.82,2.39,-2.38,-2.62,-2.58,-3.21,-3.21,-3.22
358.28,-0.82,2.39,-0.82,2.39,-2.38,-2.61,-2.57,-3.20,-3.20,-3.21
361.87,-0.81,2.40,-0.81,2.39,-2.38,-2.59,-2.57,-3.20,-3.20,-3.21
365.49,-0.80,2.40,-0.81,2.40,-2.39,-2.58,-2.56,-3.19,-3.20,-3.20
369.14,-0.80,2.40,-0.80,2.41,-2.41,-2.57,-2.56,-3.21,-3.21,-3.20
372.83,-0.79,2.41,-0.81,2.39,-2.44,-2.55,-2.55,-3.23,-3.24,-3.20
376.56,-0.78,2.42,-0.78,2.42,-2.46,-2.54,-2.55,-3.25,-3.24,-3.20
380.33,-0.77,2.41,-0.71,2.48,-2.50,-2.53,-2.56,-3.27,-3.21,-3.18
384.13,-0.61,2.58,-0.65,2.54,-2.53,-2.52,-2.56,-3.14,-3.18,-3.20
387.97,-0.56,2.63,-0.61,2.58,-2.55,-2.51,-2.57,-3.11,-3.16,-3.20
391.85,-0.63,2.57,-0.59,2.60,-2.56,-2.50,-2.57,-3.19,-3.15,-3.20
395.77,-0.64,2.55,-0.60,2.59,-2.56,-2.49,-2.58,-3.20,-3.16,-3.19
399.73,-0.58,2.61,-0.63,2.56,-2.55,-2.49,-2.59,-3.13,-3.18,-3.19
403.72,-0.64,2.56,-0.66,2.53,-2.53,-2.48,-2.60,-3.17,-3.19,-3.20
407.76,-0.74,2.46,-0.71,2.49,-2.50,-2.48,-2.61,-3.24,-3.21,-3.20
411.84,-0.77,2.42,-0.76,2.44,-2.48,-2.48,-2.63,-3.25,-3.24,-3.19
415.96,-0.77,2.43,-0.78,2.42,-2.45,-2.48,-2.64,-3.22,-3.23,-3.20
420.12,-0.77,2.43,-0.77,2.43,-2.44,-2.48,-2.66,-3.21,-3.21,-3.20
424.32,-0.76,2.43,-0.76,2.44,-2.43,-2.48,-2.67,-3.19,-3.19,-3.19
428.56,-0.75,2.44,-0.75,2.44,-2.43,-2.48,-2.69,-3.18,-3.18,-3.19
432.85,-0.74,2.43,-0.74,2.44,-2.43,-2.49,-2.70,-3.17,-3.17,-3.18
437.18,-0.71,2.44,-0.71,2.44,-2.44,-2.49,-2.72,-3.15,-3.15,-3.16
441.55,-0.68,2.44,-0.68,2.44,-2.45,-2.50,-2.73,-3.13,-3.13,-3.12
