frequency,raw,error,smoothed,error_smoothed,equalization,parametric_eq,fixed_band_eq,equalized_raw,equalized_smoothed,target
20.00,-7.91,-10.63,-7.91,-10.62,6.00,5.38,2.80,-1.91,-1.91,2.72
20.20,-7.81,-10.52,-7.81,-10.53,6.00,5.38,2.88,-1.81,-1.81,2.72
20.40,-7.72,-10.44,-7.71,-10.44,6.00,5.38,2.96,-1.72,-1.71,2.73
20.61,-7.62,-10.36,-7.62,-10.35,6.00,5.38,3.05,-1.62,-1.62,2.74
20.81,-7.53,-10.26,-7.52,-10.27,6.00,5.38,3.13,-1.53,-1.52,2.74
21.02,-7.43,-10.17,-7.43,-10.17,6.00,5.38,3.22,-1.43,-1.43,2.75
21.23,-7.34,-10.08,-7.33,-10.08,6.00,5.38,3.31,-1.34,-1.33,2.75
21.44,-7.24,-9.99,-7.24,-9.99,6.00,5.38,3.41,-1.24,-1.24,2.76
21.66,-7.15,-9.91,-7.14,-9.91,6.00,5.38,3.51,-1.15,-1.14,2.77
21.87,-7.04,-9.81,-7.05,-9.82,6.00,5.38,3.61,-1.04,-1.05,2.77
22.09,-6.96,-9.73,-6.95,-9.73,6.00,5.38,3.71,-0.96,-0.95,2.78
22.31,-6.85,-9.64,-6.86,-9.64,6.00,5.38,3.81,-0.85,-0.86,2.79
22.54,-6.77,-9.55,-6.76,-9.55,6.00,5.38,3.92,-0.77,-0.76,2.78
22.76,-6.67,-9.46,-6.67,-9.46,6.00,5.38,4.03,-0.67,-0.67,2.79
22.99,-6.57,-9.37,-6.57,-9.37,6.00,5.38,4.15,-0.57,-0.57,2.80
23.22,-6.48,-9.29,-6.48,-9.29,6.00,5.37,4.26,-0.48,-0.48,2.81
23.45,-6.39,-9.21,-6.39,-9.21,6.00,5.37,4.38,-0.39,-0.39,2.82
23.69,-6.30,-9.13,-6.30,-9.13,6.00,5.37,4.50,-0.30,-0.30,2.83
23.92,-6.21,-9.05,-6.21,-9.05,6.00,5.37,4.63,-0.21,-0.21,2.84
24.16,-6.12,-8.97,-6.12,-8.97,6.00,5.37,4.75,-0.12,-0.12,2.85
24.40,-6.02,-8.89,-6.03,-8.89,6.00,5.37,4.88,-0.02,-0.03,2.86
24.65,-5.94,-8.82,-5.94,-8.81,6.00,5.37,5.01,0.06,0.06,2.88
24.89,-5.84,-8.73,-5.85,-8.73,6.00,5.37,5.14,0.16,0.15,2.89
25.14,-5.76,-8.65,-5.76,-8.65,6.00,5.37,5.28,0.24,0.24,2.90
25.39,-5.66,-8.57,-5.67,-8.57,6.00,5.37,5.41,0.34,0.33,2.91
25.65,-5.58,-8.49,-5.58,-8.50,6.00,5.36,5.55,0.42,0.42,2.92
25.91,-5.49,-8.42,-5.49,-8.42,6.00,5.36,5.68,0.51,0.51,2.94
26.16,-5.39,-8.34,-5.40,-8.34,6.00,5.36,5.82,0.61,0.60,2.95
26.43,-5.32,-8.27,-5.31,-8.27,6.00,5.36,5.96,0.68,0.69,2.96
26.69,-5.23,-8.19,-5.23,-8.19,6.00,5.36,6.09,0.77,0.77,2.96
26.96,-5.14,-8.12,-5.14,-8.12,6.00,5.36,6.22,0.86,0.86,2.98
27.23,-5.06,-8.05,-5.06,-8.05,6.00,5.36,6.35,0.94,0.94,2.99
27.50,-4.98,-7.99,-4.98,-7.99,6.00,5.35,6.48,1.02,1.02,3.01
27.77,-4.90,-7.92,-4.90,-7.92,6.00,5.35,6.60,1.10,1.10,3.02
28.05,-4.82,-7.86,-4.82,-7.85,6.00,5.35,6.72,1.18,1.18,3.04
28.33,-4.74,-7.79,-4.74,-7.79,6.00,5.35,6.84,1.26,1.26,3.05
28.62,-4.66,-7.73,-4.66,-7.72,6.00,5.35,6.95,1.34,1.34,3.07
28.90,-4.58,-7.65,-4.58,-7.66,6.00,5.35,7.04,1.42,1.42,3.08
29.19,-4.50,-7.59,-4.50,-7.59,6.00,5.34,7.14,1.50,1.50,3.10
29.48,-4.43,-7.53,-4.42,-7.53,6.00,5.34,7.22,1.57,1.58,3.11
29.78,-4.35,-7.47,-4.35,-7.47,6.00,5.34,7.30,1.65,1.65,3.12
30.08,-4.29,-7.42,-4.29,-7.42,6.00,5.34,7.36,1.71,1.71,3.13
30.38,-4.23,-7.38,-4.22,-7.37,6.00,5.34,7.41,1.77,1.78,3.15
30.68,-4.17,-7.33,-4.17,-7.33,6.00,5.33,7.45,1.83,1.83,3.16
30.99,-4.11,-7.29,-4.11,-7.29,6.00,5.33,7.49,1.89,1.89,3.18
31.30,-4.06,-7.24,-4.06,-7.25,6.00,5.33,7.50,1.94,1.94,3.19
31.61,-4.01,-7.21,-4.01,-7.21,6.00,5.33,7.51,1.99,1.99,3.21
31.93,-3.96,-7.17,-3.96,-7.17,6.00,5.32,7.51,2.04,2.04,3.21
32.24,-3.91,-7.14,-3.91,-7.14,6.00,5.32,7.49,2.09,2.09,3.23
32.57,-3.86,-7.10,-3.86,-7.10,6.00,5.32,7.47,2.14,2.14,3.24
32.89,-3.82,-7.08,-3.81,-7.07,6.00,5.31,7.43,2.18,2.19,3.26
33.22,-3.77,-7.03,-3.77,-7.04,6.00,5.31,7.38,2.23,2.23,3.27
33.55,-3.73,-7.01,-3.73,-7.01,6.00,5.31,7.33,2.27,2.27,3.29
33.89,-3.69,-6.98,-3.69,-6.98,6.00,5.30,7.26,2.31,2.31,3.29
34.23,-3.65,-6.96,-3.65,-6.96,6.00,5.30,7.19,2.35,2.35,3.31
34.57,-3.61,-6.93,-3.60,-6.92,6.00,5.30,7.12,2.39,2.40,3.32
34.92,-3.56,-6.89,-3.56,-6.89,6.00,5.29,7.03,2.44,2.44,3.33
35.27,-3.52,-6.86,-3.51,-6.86,6.00,5.29,6.94,2.48,2.49,3.35
35.62,-3.47,-6.82,-3.47,-6.82,6.00,5.29,6.85,2.53,2.53,3.35
35.97,-3.42,-6.78,-3.42,-6.78,6.00,5.28,6.76,2.58,2.58,3.36
36.33,-3.37,-6.74,-3.37,-6.74,6.00,5.28,6.66,2.63,2.63,3.37
36.70,-3.32,-6.69,-3.32,-6.69,6.00,5.27,6.56,2.68,2.68,3.38
37.06,-3.27,-6.65,-3.26,-6.65,6.00,5.27,6.46,2.73,2.74,3.38
37.43,-3.21,-6.60,-3.21,-6.60,6.00,5.26,6.36,2.79,2.79,3.39
37.81,-3.15,-6.55,-3.15,-6.55,6.00,5.26,6.26,2.85,2.85,3.40
38.19,-3.09,-6.49,-3.09,-6.49,6.00,5.25,6.16,2.91,2.91,3.41
38.57,-3.03,-6.44,-3.03,-6.44,6.00,5.25,6.06,2.97,2.97,3.41
38.95,-2.97,-6.39,-2.96,-6.38,6.00,5.24,5.97,3.04,3.04,3.42
39.34,-2.90,-6.32,-2.90,-6.33,6.01,5.23,5.87,3.11,3.11,3.43
39.74,-2.84,-6.27,-2.84,-6.27,6.01,5.23,5.78,3.17,3.17,3.43
40.14,-2.78,-6.21,-2.78,-6.21,6.01,5.22,5.69,3.23,3.23,3.43
40.54,-2.72,-6.15,-2.72,-6.15,6.01,5.21,5.60,3.29,3.29,3.44
40.94,-2.66,-6.10,-2.65,-6.10,5.99,5.21,5.52,3.34,3.34,3.44
41.35,-2.59,-6.03,-2.59,-6.04,5.98,5.20,5.44,3.39,3.39,3.45
41.76,-2.53,-5.98,-2.52,-5.98,5.95,5.19,5.36,3.42,3.42,3.45
42.18,-2.46,-5.92,-2.46,-5.92,5.91,5.18,5.29,3.45,3.45,3.46
42.60,-2.40,-5.86,-2.40,-5.86,5.87,5.17,5.22,3.47,3.47,3.47
43.03,-2.34,-5.81,-2.33,-5.81,5.82,5.16,5.15,3.48,3.48,3.47
43.46,-2.28,-5.75,-2.27,-5.75,5.76,5.15,5.09,3.48,3.49,3.48
43.90,-2.21,-5.69,-2.21,-5.69,5.70,5.14,5.03,3.49,3.49,3.48
44.33,-2.15,-5.64,-2.15,-5.64,5.64,5.13,4.98,3.50,3.50,3.50
44.78,-2.09,-5.59,-2.09,-5.59,5.59,5.12,4.93,3.50,3.50,3.50
45.23,-2.03,-5.53,-2.03,-5.54,5.54,5.11,4.88,3.51,3.51,3.51
45.68,-1.98,-5.50,-1.97,-5.49,5.49,5.10,4.84,3.52,3.52,3.52
46.13,-1.92,-5.44,-1.92,-5.45,5.44,5.09,4.80,3.53,3.53,3.53
46.60,-1.87,-5.41,-1.86,-5.40,5.40,5.08,4.76,3.53,3.54,3.54
47.06,-1.81,-5.35,-1.81,-5.35,5.35,5.06,4.73,3.55,3.55,3.54
47.53,-1.76,-5.31,-1.76,-5.31,5.31,5.05,4.70,3.55,3.55,3.56
48.01,-1.71,-5.27,-1.70,-5.27,5.27,5.03,4.67,3.56,3.56,3.56
48.49,-1.66,-5.23,-1.65,-5.22,5.22,5.02,4.65,3.57,3.57,3.57
48.97,-1.60,-5.17,-1.60,-5.18,5.18,5.00,4.63,3.59,3.58,3.58
49.46,-1.56,-5.14,-1.55,-5.14,5.14,4.99,4.61,3.58,3.59,3.59
49.96,-1.51,-5.10,-1.50,-5.09,5.10,4.97,4.60,3.59,3.59,3.59
50.46,-1.46,-5.05,-1.46,-5.05,5.05,4.95,4.59,3.60,3.60,3.59
50.96,-1.41,-5.01,-1.41,-5.01,5.01,4.93,4.58,3.60,3.60,3.60
51.47,-1.37,-4.97,-1.36,-4.97,4.97,4.91,4.57,3.60,3.61,3.61
51.99,-1.32,-4.92,-1.32,-4.92,4.93,4.89,4.56,3.61,3.61,3.61
52.51,-1.27,-4.87,-1.27,-4.88,4.88,4.87,4.56,3.62,3.61,3.61
53.03,-1.23,-4.84,-1.22,-4.84,4.84,4.85,4.56,3.61,3.62,3.61
53.56,-1.18,-4.80,-1.18,-4.80,4.79,4.82,4.56,3.62,3.61,3.62
54.10,-1.14,-4.76,-1.13,-4.75,4.75,4.80,4.55,3.61,3.61,3.62
54.64,-1.09,-4.71,-1.08,-4.70,4.70,4.77,4.55,3.61,3.61,3.62
55.18,-1.03,-4.63,-1.03,-4.64,4.64,4.74,4.55,3.61,3.61,3.61
55.74,-0.98,-4.58,-0.98,-4.59,4.58,4.71,4.55,3.61,3.60,3.61
56.29,-0.93,-4.53,-0.92,-4.52,4.52,4.68,4.55,3.60,3.60,3.61
56.86,-0.87,-4.46,-0.86,-4.46,4.46,4.65,4.55,3.59,3.59,3.59
57.42,-0.80,-4.39,-0.80,-4.39,4.39,4.61,4.55,3.60,3.59,3.59
58.00,-0.74,-4.32,-0.74,-4.32,4.32,4.57,4.54,3.59,3.59,3.58
58.58,-0.68,-4.25,-0.68,-4.25,4.25,4.54,4.53,3.58,3.58,3.58
59.16,-0.63,-4.19,-0.62,-4.19,4.18,4.50,4.52,3.56,3.56,3.56
59.76,-0.57,-4.12,-0.57,-4.12,4.11,4.45,4.51,3.55,3.55,3.55
60.35,-0.52,-4.05,-0.51,-4.05,4.05,4.41,4.50,3.53,3.53,3.53
60.96,-0.46,-3.98,-0.46,-3.98,3.98,4.36,4.48,3.52,3.52,3.52
61.57,-0.41,-3.91,-0.41,-3.91,3.92,4.31,4.46,3.51,3.51,3.50
62.18,-0.37,-3.86,-0.36,-3.85,3.86,4.25,4.44,3.49,3.49,3.49
62.80,-0.33,-3.80,-0.33,-3.80,3.80,4.19,4.41,3.48,3.47,3.47
63.43,-0.30,-3.75,-0.29,-3.75,3.75,4.13,4.38,3.45,3.46,3.46
64.07,-0.27,-3.70,-0.26,-3.70,3.70,4.07,4.35,3.43,3.44,3.43
64.71,-0.24,-3.65,-0.24,-3.65,3.65,4.00,4.32,3.42,3.41,3.41
65.35,-0.22,-3.61,-0.22,-3.61,3.61,3.93,4.28,3.39,3.39,3.39
66.01,-0.20,-3.57,-0.19,-3.57,3.56,3.85,4.24,3.37,3.37,3.38
66.67,-0.17,-3.52,-0.17,-3.53,3.52,3.78,4.19,3.35,3.35,3.36
67.33,-0.15,-3.48,-0.15,-3.48,3.48,3.69,4.15,3.33,3.33,3.34
68.01,-0.13,-3.43,-0.12,-3.43,3.43,3.61,4.10,3.31,3.31,3.31
68.69,-0.10,-3.38,-0.10,-3.39,3.39,3.52,4.05,3.29,3.29,3.29
69.37,-0.08,-3.34,-0.08,-3.34,3.35,3.43,3.99,3.27,3.27,3.26
70.07,-0.07,-3.31,-0.06,-3.30,3.31,3.33,3.94,3.24,3.24,3.24
70.77,-0.05,-3.27,-0.05,-3.27,3.26,3.24,3.89,3.22,3.22,3.22
71.48,-0.03,-3.22,-0.03,-3.22,3.22,3.14,3.83,3.20,3.20,3.20
72.19,-0.01,-3.18,-0.01,-3.18,3.18,3.05,3.77,3.18,3.18,3.17
72.91,0.01,-3.15,0.01,-3.15,3.14,2.96,3.71,3.16,3.16,3.16
73.64,0.02,-3.11,0.03,-3.11,3.10,2.87,3.66,3.13,3.13,3.14
74.38,0.05,-3.07,0.05,-3.07,3.06,2.80,3.60,3.12,3.11,3.12
75.12,0.07,-3.02,0.08,-3.02,3.02,2.72,3.54,3.10,3.10,3.09
75.87,0.10,-2.97,0.10,-2.98,2.98,2.67,3.49,3.08,3.08,3.08
76.63,0.12,-2.94,0.12,-2.94,2.94,2.62,3.43,3.06,3.06,3.06
77.40,0.14,-2.90,0.15,-2.90,2.90,2.58,3.38,3.04,3.04,3.04
78.17,0.16,-2.86,0.16,-2.86,2.86,2.55,3.32,3.02,3.02,3.03
78.95,0.18,-2.82,0.18,-2.83,2.82,2.54,3.27,3.01,3.01,3.01
79.74,0.19,-2.80,0.20,-2.79,2.79,2.54,3.22,2.99,2.99,2.99
80.54,0.21,-2.76,0.21,-2.76,2.76,2.54,3.17,2.98,2.97,2.97
81.35,0.21,-2.74,0.22,-2.73,2.74,2.56,3.12,2.95,2.96,2.95
82.16,0.22,-2.70,0.22,-2.71,2.72,2.58,3.08,2.94,2.94,2.93
82.98,0.21,-2.69,0.21,-2.69,2.70,2.61,3.03,2.91,2.91,2.91
83.81,0.20,-2.68,0.21,-2.68,2.68,2.63,2.99,2.88,2.88,2.89
84.65,0.19,-2.67,0.20,-2.67,2.66,2.66,2.95,2.85,2.86,2.86
85.50,0.19,-2.65,0.19,-2.65,2.64,2.69,2.91,2.83,2.83,2.84
86.35,0.19,-2.62,0.19,-2.62,2.62,2.72,2.88,2.81,2.81,2.82
87.22,0.19,-2.60,0.20,-2.60,2.59,2.75,2.84,2.79,2.79,2.79
88.09,0.20,-2.57,0.20,-2.57,2.57,2.77,2.81,2.77,2.77,2.77
88.97,0.21,-2.54,0.21,-2.54,2.54,2.79,2.78,2.76,2.75,2.76
89.86,0.21,-2.52,0.22,-2.52,2.52,2.81,2.75,2.73,2.73,2.73
90.76,0.21,-2.49,0.22,-2.49,2.50,2.82,2.73,2.71,2.71,2.70
91.66,0.21,-2.48,0.21,-2.47,2.48,2.83,2.70,2.69,2.69,2.69
92.58,0.20,-2.46,0.20,-2.46,2.47,2.84,2.68,2.67,2.67,2.66
93.51,0.18,-2.45,0.18,-2.46,2.46,2.84,2.66,2.64,2.64,2.64
94.44,0.16,-2.46,0.16,-2.46,2.45,2.84,2.64,2.62,2.61,2.62
95.39,0.13,-2.46,0.14,-2.46,2.45,2.84,2.63,2.59,2.59,2.59
96.34,0.11,-2.46,0.12,-2.46,2.46,2.84,2.61,2.57,2.57,2.58
97.30,0.09,-2.46,0.09,-2.46,2.46,2.83,2.60,2.55,2.55,2.55
98.28,0.06,-2.46,0.06,-2.46,2.47,2.82,2.59,2.53,2.53,2.52
99.26,0.02,-2.47,0.03,-2.47,2.47,2.81,2.58,2.50,2.50,2.49
100.25,-0.02,-2.49,-0.02,-2.49,2.48,2.79,2.57,2.47,2.46,2.48
101.25,-0.06,-2.50,-0.06,-2.50,2.49,2.78,2.57,2.43,2.44,2.45
102.27,-0.10,-2.51,-0.09,-2.50,2.50,2.76,2.56,2.40,2.41,2.42
103.29,-0.12,-2.50,-0.12,-2.51,2.51,2.74,2.56,2.40,2.39,2.38
104.32,-0.16,-2.51,-0.16,-2.52,2.52,2.72,2.56,2.37,2.36,2.35
105.37,-0.22,-2.54,-0.21,-2.53,2.54,2.70,2.56,2.32,2.32,2.32
106.42,-0.28,-2.56,-0.27,-2.56,2.55,2.67,2.56,2.27,2.28,2.29
107.48,-0.33,-2.57,-0.33,-2.57,2.57,2.65,2.56,2.24,2.24,2.25
108.56,-0.38,-2.59,-0.38,-2.59,2.59,2.62,2.56,2.22,2.22,2.21
109.64,-0.44,-2.61,-0.44,-2.61,2.62,2.60,2.56,2.19,2.18,2.17
110.74,-0.51,-2.64,-0.51,-2.64,2.65,2.57,2.56,2.14,2.14,2.13
111.85,-0.59,-2.68,-0.58,-2.68,2.68,2.55,2.57,2.09,2.09,2.10
112.97,-0.67,-2.71,-0.67,-2.72,2.71,2.52,2.57,2.04,2.04,2.05
114.10,-0.75,-2.76,-0.75,-2.75,2.74,2.49,2.57,1.99,1.99,2.01
115.24,-0.83,-2.79,-0.81,-2.78,2.77,2.47,2.58,1.94,1.96,1.96
116.39,-0.87,-2.79,-0.87,-2.80,2.80,2.44,2.58,1.93,1.93,1.93
117.55,-0.93,-2.81,-0.93,-2.82,2.83,2.42,2.58,1.90,1.89,1.88
118.73,-1.01,-2.85,-1.01,-2.85,2.86,2.39,2.58,1.85,1.85,1.84
119.92,-1.09,-2.88,-1.08,-2.88,2.88,2.36,2.59,1.80,1.80,1.80
121.12,-1.17,-2.93,-1.15,-2.91,2.91,2.34,2.59,1.74,1.76,1.76
122.33,-1.20,-2.92,-1.20,-2.93,2.93,2.31,2.59,1.73,1.73,1.73
123.55,-1.25,-2.94,-1.26,-2.95,2.95,2.29,2.59,1.70,1.70,1.69
124.79,-1.31,-2.96,-1.31,-2.96,2.97,2.27,2.59,1.66,1.66,1.66
126.03,-1.37,-2.99,-1.36,-2.98,2.98,2.24,2.59,1.61,1.62,1.62
127.29,-1.40,-2.98,-1.40,-2.99,2.98,2.22,2.58,1.58,1.58,1.59
128.57,-1.43,-2.98,-1.42,-2.98,2.97,2.20,2.58,1.54,1.54,1.55
129.85,-1.44,-2.96,-1.44,-2.96,2.95,2.18,2.58,1.52,1.52,1.52
131.15,-1.44,-2.93,-1.44,-2.93,2.93,2.16,2.58,1.49,1.49,1.49
132.46,-1.44,-2.89,-1.43,-2.89,2.89,2.14,2.57,1.45,1.46,1.46
133.79,-1.42,-2.85,-1.42,-2.85,2.85,2.12,2.57,1.43,1.43,1.44
135.12,-1.39,-2.79,-1.39,-2.80,2.79,2.11,2.56,1.41,1.40,1.40
136.48,-1.37,-2.74,-1.36,-2.74,2.74,2.09,2.56,1.37,1.37,1.37
137.84,-1.33,-2.67,-1.33,-2.67,2.67,2.08,2.55,1.35,1.34,1.34
139.22,-1.30,-2.61,-1.29,-2.61,2.61,2.07,2.55,1.31,1.32,1.32
140.61,-1.26,-2.54,-1.25,-2.54,2.55,2.05,2.54,1.29,1.29,1.29
142.02,-1.21,-2.47,-1.21,-2.48,2.48,2.04,2.54,1.28,1.27,1.27
143.44,-1.19,-2.43,-1.18,-2.42,2.42,2.04,2.54,1.24,1.24,1.24
144.87,-1.15,-2.36,-1.15,-2.36,2.37,2.03,2.53,1.22,1.21,1.21
146.32,-1.14,-2.31,-1.13,-2.31,2.31,2.02,2.53,1.18,1.18,1.18
147.78,-1.11,-2.26,-1.11,-2.26,2.27,2.02,2.53,1.16,1.16,1.15
149.26,-1.10,-2.22,-1.10,-2.22,2.22,2.02,2.53,1.13,1.13,1.13
150.75,-1.09,-2.19,-1.08,-2.19,2.19,2.01,2.53,1.10,1.10,1.10
152.26,-1.08,-2.15,-1.08,-2.15,2.15,2.02,2.53,1.08,1.07,1.08
153.78,-1.08,-2.12,-1.07,-2.12,2.12,2.02,2.54,1.05,1.05,1.04
155.32,-1.08,-2.10,-1.07,-2.10,2.10,2.02,2.54,1.02,1.02,1.02
156.88,-1.08,-2.07,-1.08,-2.08,2.08,2.03,2.55,1.00,1.00,1.00
158.44,-1.09,-2.06,-1.09,-2.06,2.06,2.04,2.56,0.97,0.97,0.98
160.03,-1.10,-2.04,-1.10,-2.04,2.05,2.04,2.56,0.95,0.95,0.95
161.63,-1.12,-2.04,-1.11,-2.04,2.03,2.06,2.58,0.92,0.92,0.92
163.24,-1.13,-2.02,-1.13,-2.03,2.03,2.07,2.59,0.90,0.90,0.89
164.88,-1.16,-2.03,-1.15,-2.02,2.02,2.09,2.61,0.87,0.87,0.87
166.53,-1.18,-2.02,-1.18,-2.02,2.02,2.10,2.62,0.85,0.84,0.85
168.19,-1.21,-2.02,-1.21,-2.03,2.03,2.12,2.64,0.82,0.82,0.82
169.87,-1.25,-2.03,-1.24,-2.03,2.03,2.14,2.66,0.79,0.79,0.79
171.57,-1.28,-2.04,-1.28,-2.04,2.04,2.17,2.69,0.77,0.76,0.76
173.29,-1.32,-2.05,-1.32,-2.05,2.06,2.19,2.71,0.74,0.73,0.73
175.02,-1.38,-2.08,-1.37,-2.08,2.07,2.22,2.74,0.70,0.70,0.71
176.77,-1.43,-2.10,-1.43,-2.10,2.10,2.25,2.77,0.67,0.67,0.67
178.54,-1.49,-2.13,-1.48,-2.12,2.12,2.28,2.80,0.64,0.64,0.64
180.32,-1.54,-2.15,-1.54,-2.15,2.15,2.32,2.84,0.61,0.61,0.61
182.13,-1.59,-2.17,-1.60,-2.18,2.18,2.36,2.87,0.60,0.58,0.58
183.95,-1.69,-2.24,-1.67,-2.22,2.22,2.39,2.91,0.53,0.55,0.55
185.79,-1.75,-2.26,-1.75,-2.27,2.26,2.44,2.95,0.52,0.51,0.52
187.65,-1.83,-2.32,-1.82,-2.31,2.31,2.48,2.99,0.49,0.49,0.49
189.52,-1.90,-2.36,-1.90,-2.36,2.37,2.53,3.04,0.47,0.47,0.46
191.42,-1.99,-2.41,-2.00,-2.42,2.43,2.57,3.08,0.45,0.44,0.43
193.33,-2.11,-2.50,-2.10,-2.50,2.51,2.63,3.13,0.40,0.40,0.39
195.27,-2.23,-2.60,-2.22,-2.59,2.58,2.68,3.18,0.36,0.36,0.37
197.22,-2.34,-2.68,-2.34,-2.68,2.67,2.73,3.23,0.33,0.33,0.34
199.19,-2.46,-2.77,-2.46,-2.77,2.76,2.79,3.28,0.31,0.30,0.31
201.18,-2.59,-2.86,-2.58,-2.86,2.86,2.85,3.33,0.28,0.28,0.27
203.19,-2.72,-2.96,-2.72,-2.96,2.97,2.91,3.38,0.26,0.25,0.24
205.23,-2.87,-3.07,-2.86,-3.07,3.08,2.97,3.44,0.22,0.22,0.21
207.28,-3.02,-3.19,-3.01,-3.19,3.20,3.04,3.49,0.18,0.18,0.18
209.35,-3.16,-3.31,-3.16,-3.31,3.31,3.10,3.54,0.15,0.14,0.15
211.44,-3.32,-3.43,-3.31,-3.43,3.42,3.17,3.60,0.10,0.11,0.11
213.56,-3.47,-3.55,-3.47,-3.54,3.53,3.24,3.65,0.06,0.06,0.08
215.69,-3.61,-3.65,-3.61,-3.65,3.64,3.31,3.70,0.03,0.03,0.04
217.85,-3.75,-3.75,-3.73,-3.74,3.74,3.38,3.75,-0.01,0.01,0.00
220.03,-3.85,-3.82,-3.85,-3.83,3.84,3.45,3.80,-0.01,-0.01,-0.02
222.23,-3.96,-3.90,-3.97,-3.91,3.93,3.52,3.84,-0.03,-0.04,-0.05
224.45,-4.10,-4.01,-4.09,-4.01,4.01,3.59,3.89,-0.08,-0.08,-0.09
226.70,-4.22,-4.10,-4.21,-4.10,4.09,3.65,3.93,-0.12,-0.12,-0.12
228.96,-4.33,-4.18,-4.31,-4.17,4.16,3.72,3.96,-0.16,-0.15,-0.14
231.25,-4.39,-4.22,-4.40,-4.23,4.23,3.78,3.99,-0.16,-0.17,-0.17
233.57,-4.47,-4.28,-4.48,-4.29,4.28,3.84,4.02,-0.18,-0.19,-0.19
235.90,-4.56,-4.34,-4.54,-4.33,4.33,3.90,4.04,-0.23,-0.21,-0.21
238.26,-4.60,-4.37,-4.60,-4.37,4.36,3.96,4.06,-0.23,-0.23,-0.23
240.64,-4.63,-4.38,-4.63,-4.39,4.39,4.01,4.07,-0.24,-0.25,-0.24
243.05,-4.66,-4.40,-4.66,-4.40,4.40,4.05,4.07,-0.26,-0.26,-0.26
245.48,-4.68,-4.40,-4.67,-4.40,4.40,4.09,4.07,-0.28,-0.27,-0.28
247.93,-4.68,-4.39,-4.68,-4.39,4.39,4.13,4.07,-0.29,-0.29,-0.29
250.41,-4.67,-4.36,-4.67,-4.37,4.36,4.16,4.05,-0.30,-0.31,-0.31
252.92,-4.66,-4.34,-4.66,-4.34,4.33,4.18,4.03,-0.33,-0.33,-0.32
255.45,-4.64,-4.30,-4.63,-4.30,4.29,4.19,4.00,-0.35,-0.34,-0.34
258.00,-4.60,-4.25,-4.59,-4.24,4.24,4.20,3.97,-0.36,-0.35,-0.35
260.58,-4.53,-4.17,-4.53,-4.18,4.18,4.20,3.93,-0.35,-0.36,-0.35
263.19,-4.48,-4.11,-4.48,-4.11,4.12,4.19,3.89,-0.36,-0.36,-0.37
265.82,-4.42,-4.03,-4.42,-4.04,4.05,4.18,3.84,-0.37,-0.37,-0.38
268.48,-4.38,-3.98,-4.37,-3.98,3.98,4.15,3.78,-0.40,-0.39,-0.40
271.16,-4.33,-3.92,-4.32,-3.91,3.91,4.12,3.72,-0.42,-0.41,-0.41
273.87,-4.26,-3.83,-4.26,-3.84,3.84,4.08,3.65,-0.42,-0.42,-0.42
276.61,-4.21,-3.77,-4.20,-3.77,3.77,4.03,3.58,-0.43,-0.43,-0.44
279.38,-4.15,-3.70,-4.15,-3.70,3.70,3.98,3.51,-0.44,-0.45,-0.45
282.17,-4.10,-3.63,-4.10,-3.63,3.64,3.92,3.43,-0.46,-0.46,-0.46
284.99,-4.06,-3.58,-4.05,-3.57,3.57,3.86,3.35,-0.49,-0.48,-0.48
287.84,-3.99,-3.50,-3.99,-3.50,3.49,3.78,3.27,-0.49,-0.50,-0.49
290.72,-3.94,-3.43,-3.93,-3.43,3.43,3.71,3.18,-0.51,-0.51,-0.50
293.63,-3.88,-3.36,-3.87,-3.35,3.36,3.62,3.10,-0.52,-0.51,-0.52
296.57,-3.81,-3.28,-3.81,-3.28,3.29,3.54,3.01,-0.52,-0.52,-0.53
299.53,-3.75,-3.20,-3.75,-3.21,3.22,3.45,2.92,-0.53,-0.53,-0.54
302.53,-3.70,-3.14,-3.70,-3.14,3.15,3.36,2.83,-0.55,-0.55,-0.55
305.55,-3.66,-3.08,-3.65,-3.08,3.08,3.26,2.73,-0.58,-0.58,-0.58
308.61,-3.61,-3.02,-3.60,-3.01,3.01,3.17,2.64,-0.60,-0.60,-0.59
311.69,-3.55,-2.94,-3.55,-2.94,2.94,3.07,2.55,-0.61,-0.61,-0.60
314.81,-3.49,-2.86,-3.49,-2.87,2.87,2.97,2.46,-0.62,-0.62,-0.62
317.96,-3.44,-2.80,-3.43,-2.79,2.80,2.87,2.37,-0.63,-0.63,-0.64
321.14,-3.38,-2.72,-3.38,-2.73,2.73,2.77,2.28,-0.64,-0.65,-0.66
324.35,-3.34,-2.67,-3.34,-2.67,2.67,2.66,2.19,-0.67,-0.67,-0.67
327.59,-3.30,-2.60,-3.29,-2.60,2.60,2.56,2.10,-0.70,-0.70,-0.69
330.87,-3.25,-2.54,-3.24,-2.54,2.53,2.46,2.01,-0.72,-0.71,-0.70
334.18,-3.19,-2.46,-3.19,-2.46,2.46,2.36,1.92,-0.72,-0.72,-0.72
337.52,-3.13,-2.39,-3.13,-2.39,2.40,2.26,1.83,-0.73,-0.73,-0.74
340.90,-3.08,-2.32,-3.08,-2.33,2.33,2.17,1.75,-0.75,-0.75,-0.76
344.30,-3.04,-2.27,-3.03,-2.26,2.26,2.07,1.66,-0.78,-0.77,-0.77
347.75,-3.00,-2.20,-2.99,-2.20,2.19,1.97,1.58,-0.80,-0.80,-0.79
351.23,-2.94,-2.12,-2.94,-2.13,2.12,1.88,1.50,-0.81,-0.81,-0.81
354.74,-2.89,-2.06,-2.88,-2.06,2.06,1.79,1.42,-0.83,-0.82,-0.82
358.28,-2.83,-1.98,-2.83,-1.99,2.00,1.69,1.34,-0.83,-0.84,-0.85
361.87,-2.79,-1.92,-2.79,-1.92,1.93,1.60,1.26,-0.86,-0.85,-0.87
365.49,-2.75,-1.87,-2.74,-1.86,1.87,1.52,1.18,-0.88,-0.88,-0.88
369.14,-2.70,-1.80,-2.70,-1.80,1.80,1.43,1.10,-0.90,-0.90,-0.90
372.83,-2.66,-1.75,-2.65,-1.74,1.73,1.34,1.03,-0.92,-0.92,-0.91
376.56,-2.61,-1.67,-2.60,-1.67,1.67,1.26,0.95,-0.94,-0.94,-0.93
380.33,-2.55,-1.59,-2.55,-1.60,1.60,1.18,0.88,-0.95,-0.95,-0.95
384.13,-2.49,-1.52,-2.49,-1.52,1.52,1.10,0.80,-0.96,-0.96,-0.96
387.97,-2.43,-1.44,-2.43,-1.44,1.45,1.02,0.73,-0.98,-0.98,-0.98
391.85,-2.37,-1.37,-2.36,-1.37,1.36,0.94,0.66,-1.00,-1.00,-1.00
395.77,-2.29,-1.28,-2.29,-1.28,1.27,0.86,0.59,-1.01,-1.01,-1.01
399.73,-2.21,-1.19,-2.21,-1.19,1.18,0.78,0.52,-1.03,-1.02,-1.02
403.72,-2.12,-1.09,-2.12,-1.09,1.09,0.71,0.46,-1.03,-1.03,-1.03
407.76,-2.03,-0.99,-2.03,-0.98,0.99,0.64,0.39,-1.04,-1.04,-1.04
411.84,-1.94,-0.88,-1.94,-0.88,0.89,0.56,0.33,-1.05,-1.05,-1.06
415.96,-1.85,-0.78,-1.85,-0.78,0.78,0.49,0.26,-1.06,-1.07,-1.07
420.12,-1.77,-0.68,-1.76,-0.68,0.68,0.42,0.20,-1.09,-1.08,-1.08
424.32,-1.68,-0.58,-1.68,-0.58,0.58,0.36,0.14,-1.10,-1.10,-1.09
428.56,-1.59,-0.48,-1.58,-0.48,0.47,0.29,0.08,-1.11,-1.11,-1.10
432.85,-1.49,-0.36,-1.49,-0.37,0.37,0.22,0.02,-1.11,-1.12,-1.12
437.18,-1.40,-0.26,-1.40,-0.27,0.27,0.16,-0.04,-1.12,-1.13,-1.13
441.55,-1.32,-0.17,-1.31,-0.16,0.17,0.09,-0.10,-1.15,-1.15,-1.14
445.96,-1.24,-0.07,-1.23,-0.07,0.06,0.03,-0.15,-1.17,-1.17,-1.17
450.42,-1.15,0.04,-1.15,0.03,-0.04,-0.04,-0.20,-1.19,-1.19,-1.19
454.93,-1.08,0.12,-1.07,0.13,-0.14,-0.10,-0.26,-1.22,-1.21,-1.20
459.48,-0.98,0.24,-0.98,0.24,-0.24,-0.16,-0.31,-1.22,-1.22,-1.22
464.07,-0.90,0.34,-0.90,0.34,-0.34,-0.22,-0.36,-1.23,-1.23,-1.24
468.71,-0.82,0.44,-0.82,0.44,-0.43,-0.28,-0.40,-1.24,-1.24,-1.26
473.40,-0.75,0.52,-0.75,0.52,-0.51,-0.34,-0.45,-1.26,-1.26,-1.27
478.13,-0.70,0.59,-0.69,0.59,-0.59,-0.40,-0.49,-1.28,-1.28,-1.29
482.91,-0.65,0.65,-0.64,0.66,-0.66,-0.45,-0.53,-1.30,-1.30,-1.30
487.74,-0.60,0.72,-0.60,0.72,-0.72,-0.51,-0.57,-1.32,-1.32,-1.32
492.62,-0.56,0.77,-0.55,0.78,-0.78,-0.57,-0.61,-1.33,-1.33,-1.33
497.55,-0.51,0.83,-0.51,0.83,-0.83,-0.62,-0.64,-1.34,-1.34,-1.34
