frequency,raw,error,smoothed,error_smoothed,equalization,parametric_eq,fixed_band_eq,equalized_raw,equalized_smoothed,target
20.00,0.45,3.31,0.45,3.31,-3.32,-3.26,-2.16,-2.87,-2.87,-2.86
20.20,0.52,3.37,0.52,3.37,-3.38,-3.30,-2.22,-2.86,-2.86,-2.85
20.40,0.58,3.42,0.59,3.43,-3.43,-3.33,-2.28,-2.85,-2.84,-2.84
20.61,0.65,3.49,0.65,3.49,-3.49,-3.37,-2.35,-2.84,-2.83,-2.84
20.81,0.72,3.55,0.72,3.55,-3.54,-3.40,-2.42,-2.82,-2.82,-2.83
21.02,0.78,3.61,0.78,3.61,-3.59,-3.44,-2.48,-2.81,-2.81,-2.83
21.23,0.83,3.65,0.83,3.66,-3.65,-3.47,-2.56,-2.81,-2.81,-2.82
21.44,0.87,3.69,0.88,3.70,-3.70,-3.51,-2.63,-2.82,-2.82,-2.82
21.66,0.92,3.74,0.92,3.74,-3.75,-3.55,-2.70,-2.82,-2.83,-2.82
21.87,0.96,3.78,0.97,3.78,-3.79,-3.58,-2.78,-2.83,-2.83,-2.82
22.09,1.01,3.82,1.01,3.83,-3.84,-3.62,-2.86,-2.83,-2.83,-2.81
22.31,1.06,3.87,1.06,3.88,-3.89,-3.66,-2.94,-2.83,-2.83,-2.81
22.54,1.11,3.93,1.12,3.94,-3.93,-3.69,-3.03,-2.82,-2.82,-2.82
22.76,1.16,3.99,1.16,3.99,-3.97,-3.73,-3.11,-2.81,-2.81,-2.83
22.99,1.21,4.04,1.20,4.03,-4.01,-3.77,-3.20,-2.80,-2.81,-2.83
23.22,1.22,4.05,1.23,4.06,-4.04,-3.81,-3.29,-2.82,-2.82,-2.83
23.45,1.24,4.08,1.24,4.08,-4.08,-3.85,-3.38,-2.84,-2.84,-2.84
23.69,1.25,4.09,1.25,4.09,-4.11,-3.89,-3.47,-2.86,-2.86,-2.84
23.92,1.27,4.11,1.28,4.12,-4.15,-3.93,-3.57,-2.88,-2.87,-2.84
24.16,1.30,4.14,1.31,4.15,-4.18,-3.97,-3.67,-2.88,-2.87,-2.84
24.40,1.36,4.20,1.36,4.20,-4.21,-4.01,-3.77,-2.85,-2.85,-2.84
24.65,1.41,4.25,1.41,4.25,-4.24,-4.05,-3.87,-2.82,-2.82,-2.84
24.89,1.46,4.30,1.45,4.29,-4.26,-4.09,-3.97,-2.80,-2.81,-2.84
25.14,1.47,4.31,1.47,4.31,-4.28,-4.13,-4.07,-2.81,-2.81,-2.84
25.39,1.46,4.31,1.46,4.31,-4.30,-4.17,-4.17,-2.84,-2.84,-2.85
25.65,1.45,4.30,1.45,4.30,-4.31,-4.21,-4.28,-2.86,-2.86,-2.85
25.91,1.44,4.29,1.45,4.30,-4.33,-4.25,-4.38,-2.88,-2.88,-2.85
26.16,1.46,4.31,1.46,4.32,-4.34,-4.29,-4.48,-2.88,-2.88,-2.85
26.43,1.49,4.34,1.49,4.34,-4.35,-4.33,-4.58,-2.86,-2.86,-2.85
26.69,1.52,4.37,1.52,4.37,-4.37,-4.36,-4.69,-2.85,-2.85,-2.85
26.96,1.55,4.40,1.55,4.40,-4.40,-4.40,-4.79,-2.84,-2.84,-2.85
27.23,1.58,4.43,1.58,4.43,-4.43,-4.44,-4.88,-2.84,-2.84,-2.85
27.50,1.61,4.46,1.61,4.46,-4.46,-4.48,-4.98,-2.84,-2.85,-2.85
27.77,1.63,4.48,1.64,4.49,-4.48,-4.51,-5.07,-2.85,-2.85,-2.85
28.05,1.66,4.51,1.66,4.51,-4.51,-4.55,-5.16,-2.85,-2.85,-2.85
28.33,1.68,4.53,1.68,4.54,-4.54,-4.58,-5.24,-2.86,-2.86,-2.85
28.62,1.71,4.56,1.71,4.56,-4.57,-4.62,-5.32,-2.85,-2.85,-2.85
28.90,1.74,4.58,1.74,4.59,-4.59,-4.65,-5.39,-2.85,-2.85,-2.84
29.19,1.77,4.61,1.77,4.61,-4.61,-4.68,-5.46,-2.84,-2.84,-2.84
29.48,1.79,4.63,1.80,4.64,-4.63,-4.71,-5.52,-2.84,-2.83,-2.84
29.78,1.82,4.65,1.82,4.66,-4.65,-4.74,-5.58,-2.82,-2.82,-2.83
30.08,1.84,4.67,1.84,4.67,-4.66,-4.77,-5.62,-2.82,-2.82,-2.83
30.38,1.84,4.67,1.84,4.67,-4.67,-4.80,-5.66,-2.82,-2.82,-2.83
30.68,1.84,4.67,1.84,4.68,-4.68,-4.82,-5.69,-2.83,-2.83,-2.83
30.99,1.84,4.67,1.85,4.68,-4.68,-4.84,-5.72,-2.84,-2.84,-2.83
31.30,1.85,4.68,1.85,4.68,-4.69,-4.87,-5.73,-2.84,-2.84,-2.83
31.61,1.86,4.69,1.86,4.69,-4.70,-4.89,-5.74,-2.84,-2.84,-2.83
31.93,1.87,4.70,1.88,4.71,-4.72,-4.91,-5.74,-2.85,-2.84,-2.83
32.24,1.89,4.73,1.89,4.73,-4.73,-4.92,-5.73,-2.84,-2.84,-2.84
32.57,1.91,4.75,1.91,4.75,-4.75,-4.94,-5.71,-2.84,-2.84,-2.84
32.89,1.93,4.77,1.93,4.77,-4.76,-4.95,-5.69,-2.83,-2.83,-2.84
33.22,1.94,4.79,1.94,4.79,-4.78,-4.97,-5.66,-2.83,-2.84,-2.85
33.55,1.94,4.79,1.94,4.80,-4.79,-4.98,-5.62,-2.84,-2.84,-2.85
33.89,1.94,4.80,1.94,4.80,-4.80,-4.99,-5.58,-2.85,-2.85,-2.86
34.23,1.94,4.80,1.94,4.80,-4.81,-5.00,-5.53,-2.87,-2.87,-2.86
34.57,1.94,4.80,1.94,4.80,-4.82,-5.00,-5.48,-2.88,-2.88,-2.86
34.92,1.94,4.80,1.95,4.81,-4.83,-5.01,-5.42,-2.89,-2.88,-2.86
35.27,1.97,4.83,1.97,4.84,-4.85,-5.01,-5.36,-2.88,-2.87,-2.86
35.62,2.00,4.86,2.00,4.87,-4.86,-5.01,-5.30,-2.86,-2.86,-2.86
35.97,2.04,4.90,2.03,4.89,-4.88,-5.01,-5.23,-2.83,-2.84,-2.86
36.33,2.04,4.90,2.04,4.90,-4.89,-5.01,-5.16,-2.85,-2.85,-2.86
36.70,2.04,4.90,2.05,4.91,-4.90,-5.01,-5.10,-2.86,-2.85,-2.86
37.06,2.04,4.90,2.04,4.90,-4.91,-5.01,-5.03,-2.87,-2.87,-2.86
37.43,2.04,4.90,2.04,4.90,-4.91,-5.00,-4.96,-2.87,-2.87,-2.86
37.81,2.04,4.89,2.04,4.90,-4.90,-4.99,-4.89,-2.86,-2.86,-2.85
38.19,2.04,4.89,2.05,4.90,-4.89,-4.98,-4.82,-2.85,-2.85,-2.85
38.57,2.04,4.89,2.04,4.89,-4.88,-4.97,-4.76,-2.83,-2.83,-2.85
38.95,2.04,4.88,2.03,4.88,-4.86,-4.96,-4.69,-2.82,-2.83,-2.84
39.34,2.01,4.85,2.01,4.85,-4.84,-4.95,-4.63,-2.83,-2.84,-2.84
39.74,1.97,4.81,1.98,4.82,-4.83,-4.94,-4.56,-2.85,-2.85,-2.84
40.14,1.94,4.78,1.95,4.79,-4.81,-4.92,-4.51,-2.87,-2.86,-2.84
40.54,1.94,4.78,1.94,4.78,-4.80,-4.90,-4.45,-2.86,-2.86,-2.84
40.94,1.94,4.78,1.94,4.78,-4.79,-4.89,-4.39,-2.85,-2.85,-2.84
41.35,1.94,4.78,1.94,4.79,-4.79,-4.87,-4.34,-2.84,-2.85,-2.84
41.76,1.94,4.79,1.94,4.79,-4.79,-4.85,-4.29,-2.85,-2.85,-2.85
42.18,1.94,4.79,1.94,4.79,-4.79,-4.83,-4.25,-2.85,-2.85,-2.85
42.60,1.94,4.79,1.94,4.79,-4.79,-4.80,-4.20,-2.85,-2.85,-2.85
43.03,1.94,4.79,1.95,4.80,-4.79,-4.78,-4.16,-2.85,-2.85,-2.85
43.46,1.94,4.79,1.95,4.80,-4.78,-4.75,-4.13,-2.84,-2.84,-2.85
43.90,1.94,4.80,1.93,4.79,-4.77,-4.73,-4.09,-2.83,-2.84,-2.86
44.33,1.91,4.77,1.90,4.77,-4.76,-4.70,-4.06,-2.85,-2.86,-2.86
44.78,1.86,4.72,1.87,4.74,-4.75,-4.68,-4.04,-2.89,-2.88,-2.86
45.23,1.84,4.70,1.85,4.71,-4.73,-4.65,-4.01,-2.89,-2.89,-2.86
45.68,1.84,4.70,1.84,4.70,-4.72,-4.62,-3.99,-2.87,-2.88,-2.86
46.13,1.84,4.69,1.84,4.70,-4.69,-4.59,-3.97,-2.85,-2.85,-2.85
46.60,1.84,4.69,1.84,4.69,-4.67,-4.56,-3.96,-2.83,-2.83,-2.85
47.06,1.84,4.68,1.83,4.67,-4.65,-4.53,-3.95,-2.81,-2.82,-2.84
47.53,1.80,4.63,1.81,4.64,-4.63,-4.49,-3.94,-2.83,-2.83,-2.83
48.01,1.77,4.59,1.78,4.60,-4.61,-4.46,-3.93,-2.84,-2.83,-2.82
48.49,1.76,4.57,1.76,4.57,-4.59,-4.43,-3.93,-2.83,-2.83,-2.81
48.97,1.75,4.55,1.76,4.56,-4.57,-4.39,-3.93,-2.82,-2.81,-2.80
49.46,1.75,4.54,1.75,4.54,-4.54,-4.36,-3.93,-2.79,-2.79,-2.79
49.96,1.75,4.52,1.75,4.52,-4.52,-4.33,-3.93,-2.76,-2.77,-2.77
50.46,1.73,4.49,1.73,4.49,-4.49,-4.29,-3.94,-2.75,-2.75,-2.76
50.96,1.71,4.45,1.72,4.46,-4.45,-4.25,-3.94,-2.74,-2.73,-2.74
51.47,1.69,4.42,1.69,4.42,-4.41,-4.22,-3.95,-2.72,-2.72,-2.73
51.99,1.66,4.38,1.66,4.38,-4.36,-4.18,-3.96,-2.70,-2.70,-2.72
52.51,1.61,4.32,1.61,4.33,-4.31,-4.14,-3.97,-2.70,-2.70,-2.71
53.03,1.56,4.26,1.55,4.25,-4.26,-4.11,-3.98,-2.70,-2.71,-2.70
53.56,1.49,4.18,1.50,4.19,-4.21,-4.07,-4.00,-2.71,-2.71,-2.69
54.10,1.44,4.11,1.47,4.14,-4.16,-4.03,-4.01,-2.72,-2.69,-2.67
54.64,1.45,4.11,1.44,4.10,-4.12,-3.99,-4.02,-2.67,-2.68,-2.66
55.18,1.44,4.09,1.41,4.06,-4.08,-3.96,-4.03,-2.64,-2.67,-2.65
55.74,1.36,4.01,1.39,4.04,-4.04,-3.92,-4.04,-2.68,-2.65,-2.65
56.29,1.35,3.99,1.37,4.01,-4.00,-3.88,-4.05,-2.65,-2.63,-2.64
56.86,1.38,4.01,1.36,4.00,-3.97,-3.84,-4.06,-2.59,-2.61,-2.63
57.42,1.35,3.98,1.34,3.97,-3.94,-3.80,-4.07,-2.59,-2.60,-2.63
58.00,1.29,3.92,1.28,3.91,-3.91,-3.77,-4.07,-2.62,-2.63,-2.63
58.58,1.20,3.83,1.21,3.84,-3.87,-3.73,-4.07,-2.67,-2.66,-2.63
59.16,1.14,3.77,1.17,3.80,-3.83,-3.69,-4.07,-2.69,-2.66,-2.63
59.76,1.16,3.79,1.15,3.79,-3.79,-3.65,-4.07,-2.63,-2.64,-2.63
60.35,1.15,3.79,1.14,3.78,-3.74,-3.61,-4.06,-2.59,-2.61,-2.64
60.96,1.10,3.75,1.10,3.75,-3.71,-3.57,-4.05,-2.61,-2.61,-2.65
61.57,1.02,3.68,1.02,3.69,-3.69,-3.54,-4.04,-2.66,-2.66,-2.66
62.18,0.94,3.62,0.95,3.63,-3.67,-3.50,-4.02,-2.73,-2.73,-2.68
62.80,0.88,3.58,0.89,3.59,-3.66,-3.46,-4.00,-2.78,-2.77,-2.70
63.43,0.86,3.59,0.88,3.60,-3.64,-3.42,-3.97,-2.78,-2.76,-2.73
64.07,0.87,3.62,0.89,3.64,-3.61,-3.38,-3.94,-2.74,-2.72,-2.75
64.71,0.91,3.69,0.87,3.65,-3.58,-3.35,-3.91,-2.67,-2.71,-2.78
65.35,0.84,3.64,0.82,3.62,-3.55,-3.31,-3.87,-2.71,-2.74,-2.80
66.01,0.69,3.51,0.73,3.56,-3.53,-3.27,-3.83,-2.84,-2.80,-2.82
66.67,0.63,3.47,0.63,3.47,-3.50,-3.24,-3.79,-2.87,-2.88,-2.84
67.33,0.56,3.41,0.54,3.40,-3.47,-3.20,-3.74,-2.90,-2.92,-2.85
68.01,0.48,3.35,0.50,3.37,-3.42,-3.16,-3.69,-2.94,-2.92,-2.87
68.69,0.47,3.35,0.51,3.39,-3.38,-3.13,-3.64,-2.91,-2.87,-2.88
69.37,0.50,3.39,0.49,3.38,-3.34,-3.09,-3.58,-2.84,-2.85,-2.89
70.07,0.53,3.43,0.44,3.34,-3.31,-3.05,-3.53,-2.78,-2.87,-2.90
70.77,0.31,3.22,0.37,3.28,-3.28,-3.02,-3.47,-2.97,-2.91,-2.91
71.48,0.27,3.18,0.33,3.24,-3.25,-2.98,-3.41,-2.97,-2.92,-2.91
72.19,0.30,3.22,0.28,3.20,-3.21,-2.95,-3.35,-2.90,-2.93,-2.92
72.91,0.32,3.25,0.25,3.18,-3.16,-2.91,-3.29,-2.84,-2.91,-2.93
73.64,0.15,3.09,0.20,3.14,-3.12,-2.88,-3.23,-2.97,-2.92,-2.94
74.38,0.07,3.02,0.11,3.06,-3.09,-2.84,-3.16,-3.01,-2.98,-2.95
75.12,0.09,3.05,0.04,3.00,-3.06,-2.81,-3.10,-2.96,-3.02,-2.96
75.87,-0.02,2.96,0.02,3.00,-3.02,-2.77,-3.04,-3.04,-3.01,-2.98
76.63,-0.01,2.98,0.00,2.99,-2.99,-2.74,-2.98,-3.00,-2.99,-2.99
77.40,-0.01,3.00,-0.03,2.98,-2.95,-2.71,-2.92,-2.96,-2.98,-3.01
78.17,-0.06,2.96,-0.06,2.97,-2.91,-2.67,-2.85,-2.97,-2.97,-3.02
78.95,-0.13,2.91,-0.14,2.90,-2.88,-2.64,-2.80,-3.00,-3.01,-3.04
79.74,-0.23,2.82,-0.25,2.81,-2.83,-2.61,-2.74,-3.06,-3.08,-3.05
80.54,-0.37,2.70,-0.33,2.74,-2.76,-2.57,-2.68,-3.13,-3.09,-3.07
81.35,-0.42,2.66,-0.38,2.71,-2.70,-2.54,-2.62,-3.11,-3.07,-3.08
82.16,-0.38,2.71,-0.44,2.66,-2.63,-2.50,-2.57,-3.00,-3.06,-3.09
82.98,-0.47,2.63,-0.52,2.59,-2.57,-2.47,-2.51,-3.03,-3.08,-3.10
83.81,-0.67,2.44,-0.62,2.49,-2.52,-2.44,-2.46,-3.18,-3.13,-3.11
84.65,-0.73,2.38,-0.70,2.41,-2.48,-2.40,-2.41,-3.21,-3.18,-3.11
85.50,-0.72,2.40,-0.72,2.40,-2.45,-2.37,-2.36,-3.17,-3.17,-3.12
86.35,-0.69,2.44,-0.71,2.42,-2.42,-2.33,-2.31,-3.11,-3.13,-3.13
87.22,-0.71,2.43,-0.72,2.42,-2.39,-2.29,-2.27,-3.10,-3.12,-3.14
88.09,-0.76,2.39,-0.74,2.41,-2.37,-2.25,-2.22,-3.13,-3.11,-3.15
88.97,-0.80,2.35,-0.77,2.38,-2.36,-2.22,-2.18,-3.16,-3.13,-3.15
89.86,-0.76,2.40,-0.82,2.34,-2.35,-2.18,-2.14,-3.10,-3.17,-3.16
90.76,-0.89,2.28,-0.86,2.30,-2.33,-2.13,-2.10,-3.21,-3.19,-3.17
91.66,-0.94,2.23,-0.91,2.27,-2.29,-2.09,-2.06,-3.23,-3.20,-3.17
92.58,-0.94,2.23,-0.95,2.23,-2.24,-2.04,-2.02,-3.18,-3.19,-3.17
93.51,-0.96,2.22,-0.97,2.21,-2.19,-1.99,-1.99,-3.15,-3.16,-3.18
94.44,-1.01,2.17,-1.01,2.17,-2.13,-1.94,-1.96,-3.14,-3.14,-3.18
95.39,-1.09,2.09,-1.09,2.09,-2.07,-1.89,-1.92,-3.15,-3.16,-3.18
96.34,-1.20,1.98,-1.20,1.98,-1.99,-1.82,-1.89,-3.19,-3.19,-3.18
97.30,-1.31,1.87,-1.30,1.88,-1.91,-1.76,-1.87,-3.22,-3.21,-3.18
98.28,-1.41,1.78,-1.38,1.80,-1.81,-1.69,-1.84,-3.22,-3.20,-3.19
99.26,-1.47,1.72,-1.47,1.72,-1.71,-1.61,-1.81,-3.18,-3.18,-3.19
100.25,-1.53,1.66,-1.58,1.61,-1.60,-1.52,-1.79,-3.13,-3.18,-3.19
101.25,-1.73,1.46,-1.71,1.48,-1.48,-1.43,-1.77,-3.21,-3.19,-3.19
102.27,-1.89,1.31,-1.84,1.36,-1.37,-1.32,-1.74,-3.25,-3.20,-3.20
103.29,-1.95,1.26,-1.97,1.24,-1.24,-1.21,-1.72,-3.19,-3.22,-3.21
104.32,-2.06,1.16,-2.09,1.13,-1.12,-1.08,-1.70,-3.18,-3.21,-3.22
105.37,-2.25,0.97,-2.22,1.01,-0.99,-0.94,-1.69,-3.24,-3.21,-3.22
106.42,-2.38,0.85,-2.37,0.86,-0.87,-0.78,-1.67,-3.24,-3.24,-3.23
107.48,-2.50,0.74,-2.52,0.72,-0.75,-0.61,-1.66,-3.25,-3.27,-3.24
108.56,-2.65,0.60,-2.64,0.61,-0.64,-0.43,-1.64,-3.28,-3.28,-3.25
109.64,-2.78,0.48,-2.75,0.51,-0.52,-0.24,-1.63,-3.30,-3.27,-3.26
110.74,-2.84,0.42,-2.86,0.41,-0.41,-0.05,-1.62,-3.25,-3.27,-3.26
111.85,-2.93,0.33,-2.96,0.30,-0.29,0.14,-1.61,-3.21,-3.25,-3.26
112.97,-3.10,0.16,-3.05,0.21,-0.16,0.31,-1.60,-3.26,-3.21,-3.26
114.10,-3.18,0.08,-3.17,0.09,-0.03,0.45,-1.59,-3.21,-3.20,-3.26
115.24,-3.24,0.01,-3.31,-0.05,0.10,0.55,-1.58,-3.14,-3.21,-3.25
116.39,-3.46,-0.21,-3.44,-0.19,0.22,0.59,-1.57,-3.24,-3.22,-3.25
117.55,-3.62,-0.39,-3.57,-0.33,0.32,0.56,-1.57,-3.30,-3.25,-3.23
118.73,-3.64,-0.42,-3.67,-0.45,0.39,0.46,-1.56,-3.25,-3.28,-3.22
119.92,-3.67,-0.47,-3.68,-0.48,0.42,0.29,-1.56,-3.25,-3.26,-3.20
121.12,-3.66,-0.48,-3.62,-0.44,0.39,0.07,-1.55,-3.26,-3.23,-3.18
122.33,-3.50,-0.34,-3.51,-0.35,0.31,-0.18,-1.55,-3.19,-3.20,-3.16
123.55,-3.33,-0.19,-3.33,-0.18,0.17,-0.46,-1.55,-3.16,-3.16,-3.14
124.79,-3.09,0.03,-3.09,0.03,-0.04,-0.74,-1.55,-3.13,-3.13,-3.12
126.03,-2.82,0.28,-2.84,0.27,-0.29,-1.02,-1.55,-3.11,-3.13,-3.10
127.29,-2.54,0.54,-2.53,0.55,-0.58,-1.29,-1.55,-3.12,-3.11,-3.08
128.57,-2.22,0.84,-2.17,0.89,-0.89,-1.55,-1.55,-3.11,-3.07,-3.06
129.85,-1.78,1.26,-1.81,1.23,-1.22,-1.78,-1.55,-3.00,-3.03,-3.04
131.15,-1.42,1.60,-1.45,1.58,-1.54,-1.99,-1.56,-2.96,-2.99,-3.02
132.46,-1.14,1.87,-1.12,1.89,-1.86,-2.19,-1.56,-2.99,-2.97,-3.01
133.79,-0.84,2.15,-0.83,2.16,-2.15,-2.36,-1.57,-2.99,-2.98,-2.99
135.12,-0.56,2.42,-0.56,2.42,-2.41,-2.51,-1.57,-2.96,-2.97,-2.98
136.48,-0.32,2.64,-0.31,2.66,-2.63,-2.64,-1.58,-2.95,-2.93,-2.96
137.84,-0.08,2.87,-0.10,2.85,-2.81,-2.75,-1.59,-2.89,-2.91,-2.95
139.22,0.05,2.99,0.05,2.99,-2.96,-2.85,-1.60,-2.91,-2.92,-2.94
140.61,0.15,3.08,0.15,3.08,-3.08,-2.93,-1.61,-2.93,-2.93,-2.93
142.02,0.20,3.12,0.22,3.14,-3.17,-2.99,-1.62,-2.97,-2.95,-2.92
143.44,0.29,3.21,0.28,3.20,-3.24,-3.05,-1.63,-2.94,-2.95,-2.92
144.87,0.33,3.25,0.35,3.27,-3.27,-3.09,-1.65,-2.94,-2.92,-2.92
146.32,0.38,3.30,0.39,3.31,-3.28,-3.12,-1.66,-2.90,-2.89,-2.92
147.78,0.41,3.34,0.37,3.30,-3.28,-3.15,-1.68,-2.87,-2.90,-2.93
149.26,0.32,3.26,0.33,3.27,-3.27,-3.17,-1.69,-2.95,-2.94,-2.94
150.75,0.23,3.19,0.25,3.22,-3.26,-3.18,-1.71,-3.02,-3.00,-2.96
152.26,0.18,3.17,0.17,3.17,-3.23,-3.19,-1.73,-3.04,-3.05,-2.99
153.78,0.10,3.12,0.11,3.14,-3.17,-3.20,-1.75,-3.07,-3.06,-3.02
155.32,0.05,3.11,0.04,3.10,-3.08,-3.21,-1.78,-3.03,-3.04,-3.06
156.88,-0.05,3.04,-0.05,3.05,-2.96,-3.21,-1.80,-3.00,-3.00,-3.09
158.44,-0.18,2.95,-0.17,2.96,-2.81,-3.22,-1.83,-2.99,-2.99,-3.13
160.03,-0.34,2.82,-0.36,2.80,-2.67,-3.23,-1.85,-3.01,-3.03,-3.16
161.63,-0.58,2.60,-0.61,2.58,-2.54,-3.23,-1.88,-3.12,-3.15,-3.18
163.24,-0.85,2.36,-0.85,2.36,-2.44,-3.24,-1.91,-3.29,-3.29,-3.21
164.88,-1.08,2.14,-1.01,2.21,-2.40,-3.25,-1.94,-3.47,-3.41,-3.22
166.53,-1.04,2.19,-1.04,2.20,-2.41,-3.26,-1.98,-3.45,-3.45,-3.23
168.19,-0.90,2.33,-0.90,2.33,-2.48,-3.28,-2.01,-3.38,-3.38,-3.23
169.87,-0.65,2.57,-0.65,2.58,-2.61,-3.29,-2.05,-3.26,-3.26,-3.22
171.57,-0.35,2.86,-0.36,2.85,-2.79,-3.31,-2.08,-3.14,-3.15,-3.21
173.29,-0.08,3.11,-0.07,3.12,-3.01,-3.32,-2.12,-3.08,-3.07,-3.19
175.02,0.20,3.36,0.18,3.34,-3.24,-3.34,-2.16,-3.03,-3.06,-3.16
176.77,0.38,3.51,0.36,3.49,-3.45,-3.36,-2.21,-3.07,-3.09,-3.13
178.54,0.48,3.58,0.50,3.60,-3.62,-3.38,-2.25,-3.14,-3.12,-3.10
180.32,0.61,3.67,0.63,3.70,-3.73,-3.41,-2.30,-3.11,-3.09,-3.06
182.13,0.75,3.78,0.78,3.81,-3.78,-3.43,-2.35,-3.03,-2.99,-3.03
183.95,0.92,3.91,0.89,3.89,-3.79,-3.45,-2.39,-2.87,-2.90,-2.99
185.79,0.96,3.93,0.91,3.88,-3.78,-3.48,-2.45,-2.81,-2.87,-2.97
187.65,0.80,3.75,0.82,3.77,-3.75,-3.50,-2.50,-2.95,-2.93,-2.95
189.52,0.68,3.61,0.69,3.62,-3.71,-3.53,-2.55,-3.03,-3.03,-2.93
191.42,0.57,3.49,0.62,3.53,-3.66,-3.55,-2.61,-3.09,-3.04,-2.92
193.33,0.60,3.50,0.64,3.54,-3.60,-3.57,-2.66,-2.99,-2.96,-2.90
195.27,0.72,3.61,0.66,3.56,-3.53,-3.60,-2.72,-2.81,-2.87,-2.89
197.22,0.70,3.59,0.66,3.54,-3.48,-3.62,-2.78,-2.77,-2.82,-2.89
199.19,0.56,3.44,0.62,3.50,-3.44,-3.64,-2.84,-2.88,-2.83,-2.88
201.18,0.52,3.40,0.54,3.42,-3.43,-3.66,-2.90,-2.91,-2.89,-2.88
203.19,0.54,3.42,0.49,3.37,-3.43,-3.67,-2.96,-2.89,-2.94,-2.88
205.23,0.46,3.34,0.50,3.38,-3.43,-3.69,-3.02,-2.97,-2.93,-2.88
207.28,0.49,3.37,0.52,3.40,-3.43,-3.70,-3.08,-2.94,-2.91,-2.88
209.35,0.59,3.47,0.55,3.44,-3.44,-3.71,-3.14,-2.84,-2.88,-2.88
211.44,0.60,3.49,0.60,3.49,-3.45,-3.72,-3.20,-2.84,-2.85,-2.89
213.56,0.60,3.49,0.61,3.50,-3.46,-3.72,-3.26,-2.86,-2.85,-2.89
215.69,0.60,3.50,0.60,3.50,-3.47,-3.72,-3.32,-2.87,-2.87,-2.90
217.85,0.59,3.49,0.60,3.50,-3.49,-3.72,-3.38,-2.90,-2.89,-2.90
220.03,0.59,3.50,0.59,3.50,-3.50,-3.71,-3.43,-2.91,-2.91,-2.91
222.23,0.59,3.50,0.59,3.50,-3.52,-3.71,-3.49,-2.93,-2.93,-2.91
224.45,0.59,3.50,0.57,3.48,-3.55,-3.69,-3.54,-2.95,-2.98,-2.91
226.70,0.59,3.50,0.61,3.52,-3.58,-3.68,-3.59,-2.99,-2.97,-2.91
228.96,0.61,3.52,0.70,3.61,-3.62,-3.66,-3.63,-3.00,-2.92,-2.91
231.25,0.85,3.75,0.75,3.65,-3.65,-3.64,-3.68,-2.80,-2.90,-2.90
233.57,0.85,3.75,0.81,3.71,-3.67,-3.62,-3.71,-2.82,-2.86,-2.90
235.90,0.73,3.62,0.87,3.76,-3.68,-3.59,-3.75,-2.95,-2.81,-2.89
238.26,0.90,3.78,0.86,3.73,-3.69,-3.56,-3.78,-2.78,-2.83,-2.88
240.64,0.92,3.78,0.83,3.70,-3.68,-3.53,-3.80,-2.76,-2.85,-2.86
243.05,0.75,3.60,0.80,3.66,-3.66,-3.49,-3.83,-2.91,-2.86,-2.85
245.48,0.69,3.53,0.73,3.57,-3.63,-3.45,-3.84,-2.94,-2.90,-2.84
247.93,0.72,3.55,0.70,3.53,-3.60,-3.41,-3.85,-2.88,-2.90,-2.83
250.41,0.73,3.55,0.73,3.55,-3.57,-3.37,-3.86,-2.84,-2.84,-2.82
252.92,0.75,3.56,0.75,3.56,-3.54,-3.33,-3.86,-2.79,-2.80,-2.81
255.45,0.74,3.55,0.73,3.54,-3.51,-3.29,-3.85,-2.77,-2.78,-2.81
258.00,0.69,3.50,0.69,3.50,-3.47,-3.24,-3.84,-2.78,-2.78,-2.81
260.58,0.64,3.45,0.64,3.45,-3.44,-3.19,-3.83,-2.80,-2.80,-2.81
263.19,0.59,3.40,0.62,3.43,-3.41,-3.15,-3.81,-2.81,-2.78,-2.81
265.82,0.58,3.39,0.59,3.40,-3.38,-3.10,-3.79,-2.80,-2.79,-2.81
268.48,0.58,3.39,0.47,3.29,-3.35,-3.05,-3.76,-2.77,-2.88,-2.81
271.16,0.38,3.19,0.40,3.22,-3.32,-3.00,-3.73,-2.94,-2.92,-2.81
273.87,0.24,3.05,0.45,3.26,-3.28,-2.95,-3.69,-3.04,-2.84,-2.81
276.61,0.56,3.37,0.48,3.29,-3.25,-2.90,-3.65,-2.69,-2.77,-2.81
279.38,0.69,3.50,0.49,3.30,-3.21,-2.85,-3.61,-2.52,-2.72,-2.81
282.17,0.33,3.13,0.47,3.27,-3.18,-2.80,-3.57,-2.84,-2.71,-2.80
284.99,0.26,3.05,0.35,3.14,-3.15,-2.76,-3.52,-2.88,-2.80,-2.79
287.84,0.35,3.14,0.24,3.03,-3.12,-2.71,-3.48,-2.77,-2.88,-2.79
290.72,0.22,3.00,0.22,3.00,-3.07,-2.66,-3.43,-2.85,-2.85,-2.78
293.63,0.14,2.91,0.21,2.99,-3.00,-2.62,-3.38,-2.86,-2.79,-2.77
296.57,0.19,2.95,0.21,2.97,-2.93,-2.57,-3.33,-2.74,-2.73,-2.76
299.53,0.26,3.02,0.19,2.95,-2.86,-2.53,-3.27,-2.60,-2.67,-2.76
302.53,0.16,2.91,0.13,2.88,-2.81,-2.48,-3.22,-2.65,-2.68,-2.75
305.55,-0.05,2.70,0.01,2.76,-2.77,-2.44,-3.17,-2.82,-2.76,-2.75
308.61,-0.11,2.64,-0.12,2.63,-2.73,-2.40,-3.12,-2.84,-2.85,-2.75
311.69,-0.18,2.57,-0.17,2.58,-2.68,-2.36,-3.07,-2.86,-2.86,-2.75
314.81,-0.19,2.57,-0.15,2.61,-2.64,-2.32,-3.02,-2.83,-2.79,-2.76
317.96,-0.12,2.64,-0.16,2.61,-2.59,-2.29,-2.97,-2.71,-2.75,-2.76
321.14,-0.11,2.66,-0.14,2.62,-2.55,-2.25,-2.93,-2.66,-2.70,-2.77
324.35,-0.26,2.51,-0.18,2.60,-2.52,-2.22,-2.88,-2.78,-2.70,-2.77
327.59,-0.20,2.58,-0.28,2.50,-2.50,-2.18,-2.84,-2.70,-2.78,-2.78
330.87,-0.39,2.40,-0.38,2.41,-2.47,-2.15,-2.79,-2.85,-2.85,-2.79
334.18,-0.52,2.28,-0.45,2.35,-2.40,-2.12,-2.75,-2.91,-2.85,-2.80
337.52,-0.51,2.30,-0.51,2.30,-2.30,-2.09,-2.71,-2.80,-2.80,-2.81
340.90,-0.52,2.29,-0.54,2.28,-2.19,-2.07,-2.68,-2.70,-2.72,-2.81
344.30,-0.58,2.24,-0.63,2.19,-2.08,-2.04,-2.64,-2.66,-2.71,-2.82
347.75,-0.81,2.03,-0.80,2.04,-1.99,-2.02,-2.61,-2.79,-2.78,-2.84
351.23,-1.03,1.82,-1.01,1.84,-1.91,-1.99,-2.58,-2.94,-2.92,-2.85
354.74,-1.16,1.70,-1.18,1.68,-1.85,-1.97,-2.55,-3.01,-3.03,-2.86
358.28,-1.28,1.59,-1.20,1.67,-1.79,-1.95,-2.52,-3.07,-3.00,-2.87
361.87,-1.18,1.70,-1.15,1.73,-1.75,-1.93,-2.49,-2.93,-2.90,-2.88
365.49,-1.01,1.89,-1.11,1.79,-1.72,-1.91,-2.47,-2.73,-2.83,-2.90
369.14,-1.08,1.83,-1.09,1.82,-1.72,-1.90,-2.45,-2.79,-2.81,-2.91
372.83,-1.19,1.73,-1.14,1.78,-1.73,-1.88,-2.42,-2.92,-2.87,-2.92
376.56,-1.21,1.72,-1.20,1.73,-1.75,-1.87,-2.41,-2.96,-2.95,-2.93
380.33,-1.21,1.73,-1.21,1.74,-1.76,-1.86,-2.39,-2.97,-2.97,-2.94
384.13,-1.20,1.75,-1.21,1.74,-1.76,-1.85,-2.38,-2.96,-2.97,-2.95
387.97,-1.20,1.76,-1.23,1.73,-1.75,-1.84,-2.36,-2.95,-2.98,-2.96
391.85,-1.28,1.69,-1.21,1.76,-1.74,-1.83,-2.35,-3.02,-2.95,-2.97
395.77,-1.23,1.75,-1.22,1.76,-1.74,-1.83,-2.34,-2.97,-2.96,-2.98
399.73,-1.14,1.85,-1.23,1.77,-1.75,-1.82,-2.33,-2.89,-2.98,-2.99
403.72,-1.29,1.71,-1.22,1.79,-1.77,-1.82,-2.33,-3.06,-2.99,-3.00
407.76,-1.24,1.78,-1.25,1.77,-1.79,-1.82,-2.32,-3.03,-3.04,-3.02
411.84,-1.24,1.79,-1.26,1.77,-1.81,-1.82,-2.32,-3.05,-3.07,-3.03
415.96,-1.26,1.78,-1.19,1.85,-1.85,-1.82,-2.31,-3.10,-3.04,-3.04
420.12,-1.11,1.93,-1.15,1.90,-1.89,-1.82,-2.31,-2.99,-3.04,-3.04
424.32,-1.07,1.98,-1.12,1.93,-1.93,-1.83,-2.31,-3.00,-3.05,-3.05
428.56,-1.11,1.94,-1.06,1.99,-1.99,-1.84,-2.31,-3.09,-3.05,-3.05
432.85,-1.06,1.98,-1.01,2.03,-2.05,-1.84,-2.31,-3.10,-3.06,-3.04
437.18,-0.89,2.14,-0.93,2.10,-2.11,-1.86,-2.32,-3.00,-3.04,-3.03
441.55,-0.82,2.19,-0.83,2.18,-2.17,-1.87,-2.32,-2.99,-3.00,-3.01
445.96,-0.78,2.21,-0.77,2.22,-2.22,-1.88,-2.32,-3.00,-2.99,-2.99
450.42,-0.72,2.24,-0.70,2.26,-2.26,-1.90,-2.32,-2.98,-2.96,-2.96
