frequency,raw,error,smoothed,error_smoothed,equalization,parametric_eq,fixed_band_eq,equalized_raw,equalized_smoothed,target
20.00,-1.04,-3.35,-1.04,-3.35,3.36,3.22,1.22,2.31,2.31,2.30
20.20,-1.02,-3.33,-1.02,-3.33,3.34,3.22,1.26,2.31,2.31,2.31
20.40,-1.00,-3.32,-1.00,-3.32,3.32,3.22,1.29,2.31,2.31,2.32
20.61,-0.99,-3.30,-0.98,-3.31,3.30,3.22,1.33,2.32,2.32,2.32
20.81,-0.96,-3.29,-0.96,-3.29,3.28,3.22,1.37,2.32,2.32,2.33
21.02,-0.94,-3.27,-0.95,-3.28,3.27,3.22,1.41,2.32,2.32,2.33
21.23,-0.92,-3.26,-0.92,-3.26,3.25,3.21,1.45,2.33,2.33,2.34
21.44,-0.90,-3.24,-0.90,-3.24,3.24,3.21,1.49,2.33,2.34,2.34
21.66,-0.88,-3.21,-0.88,-3.22,3.22,3.21,1.54,2.35,2.35,2.34
21.87,-0.85,-3.19,-0.86,-3.20,3.21,3.21,1.58,2.35,2.35,2.34
22.09,-0.84,-3.19,-0.85,-3.19,3.20,3.21,1.63,2.35,2.35,2.35
22.31,-0.84,-3.19,-0.84,-3.19,3.19,3.21,1.68,2.34,2.34,2.35
22.54,-0.84,-3.18,-0.84,-3.18,3.18,3.21,1.73,2.33,2.33,2.34
22.76,-0.84,-3.17,-0.84,-3.18,3.17,3.20,1.78,2.33,2.33,2.33
22.99,-0.84,-3.17,-0.84,-3.17,3.17,3.20,1.83,2.33,2.33,2.33
23.22,-0.84,-3.17,-0.84,-3.17,3.17,3.20,1.88,2.32,2.32,2.33
23.45,-0.84,-3.16,-0.85,-3.16,3.16,3.20,1.93,2.32,2.32,2.31
23.69,-0.84,-3.16,-0.85,-3.16,3.16,3.20,1.99,2.32,2.32,2.31
23.92,-0.84,-3.16,-0.84,-3.15,3.16,3.20,2.04,2.31,2.32,2.31
24.16,-0.83,-3.15,-0.84,-3.15,3.15,3.19,2.10,2.32,2.32,2.31
24.40,-0.82,-3.14,-0.83,-3.14,3.14,3.19,2.16,2.31,2.31,2.31
24.65,-0.81,-3.13,-0.82,-3.13,3.12,3.19,2.22,2.30,2.30,2.31
24.89,-0.80,-3.12,-0.80,-3.11,3.09,3.19,2.27,2.29,2.29,2.31
25.14,-0.78,-3.09,-0.78,-3.08,3.06,3.19,2.33,2.28,2.29,2.31
25.39,-0.73,-3.03,-0.74,-3.04,3.04,3.18,2.39,2.30,2.30,2.30
25.65,-0.69,-2.99,-0.69,-2.99,3.01,3.18,2.45,2.31,2.31,2.30
25.91,-0.66,-2.95,-0.66,-2.96,2.98,3.18,2.52,2.32,2.32,2.30
26.16,-0.63,-2.93,-0.64,-2.94,2.96,3.18,2.58,2.32,2.32,2.30
26.43,-0.63,-2.93,-0.63,-2.93,2.94,3.18,2.64,2.31,2.31,2.30
26.69,-0.63,-2.93,-0.63,-2.93,2.93,3.17,2.69,2.29,2.30,2.30
26.96,-0.63,-2.93,-0.63,-2.93,2.92,3.17,2.75,2.29,2.29,2.30
27.23,-0.63,-2.93,-0.63,-2.93,2.92,3.17,2.81,2.29,2.29,2.29
27.50,-0.63,-2.93,-0.63,-2.93,2.92,3.17,2.87,2.29,2.29,2.29
27.77,-0.63,-2.93,-0.63,-2.93,2.93,3.16,2.92,2.29,2.29,2.29
28.05,-0.63,-2.93,-0.63,-2.93,2.93,3.16,2.97,2.29,2.29,2.29
28.33,-0.63,-2.93,-0.63,-2.93,2.93,3.16,3.02,2.30,2.30,2.29
28.62,-0.63,-2.92,-0.63,-2.93,2.93,3.16,3.07,2.30,2.30,2.29
28.90,-0.63,-2.93,-0.63,-2.93,2.94,3.15,3.11,2.30,2.30,2.30
29.19,-0.63,-2.93,-0.64,-2.93,2.93,3.15,3.16,2.30,2.30,2.30
29.48,-0.63,-2.93,-0.64,-2.94,2.93,3.15,3.19,2.29,2.29,2.30
29.78,-0.63,-2.94,-0.63,-2.94,2.92,3.14,3.23,2.28,2.29,2.31
30.08,-0.62,-2.93,-0.62,-2.92,2.91,3.14,3.26,2.28,2.29,2.30
30.38,-0.60,-2.90,-0.59,-2.90,2.89,3.14,3.29,2.30,2.30,2.30
30.68,-0.56,-2.87,-0.57,-2.87,2.88,3.13,3.31,2.31,2.31,2.30
30.99,-0.54,-2.84,-0.54,-2.84,2.86,3.13,3.33,2.33,2.32,2.30
31.30,-0.53,-2.83,-0.53,-2.83,2.85,3.13,3.34,2.31,2.31,2.30
31.61,-0.53,-2.83,-0.53,-2.83,2.83,3.12,3.36,2.30,2.30,2.30
31.93,-0.53,-2.83,-0.53,-2.83,2.82,3.12,3.36,2.29,2.29,2.30
32.24,-0.53,-2.82,-0.53,-2.82,2.82,3.12,3.37,2.28,2.28,2.28
32.57,-0.53,-2.82,-0.53,-2.82,2.81,3.11,3.36,2.28,2.28,2.28
32.89,-0.53,-2.82,-0.53,-2.81,2.81,3.11,3.36,2.27,2.27,2.28
33.22,-0.53,-2.80,-0.53,-2.81,2.81,3.11,3.35,2.27,2.27,2.27
33.55,-0.53,-2.80,-0.53,-2.80,2.80,3.10,3.34,2.27,2.27,2.27
33.89,-0.53,-2.79,-0.53,-2.79,2.80,3.10,3.33,2.26,2.26,2.26
34.23,-0.53,-2.79,-0.53,-2.79,2.79,3.09,3.31,2.26,2.26,2.25
34.57,-0.53,-2.79,-0.53,-2.79,2.79,3.09,3.29,2.25,2.25,2.25
34.92,-0.53,-2.78,-0.53,-2.78,2.78,3.09,3.27,2.25,2.25,2.25
35.27,-0.53,-2.78,-0.53,-2.78,2.78,3.08,3.24,2.25,2.25,2.25
35.62,-0.53,-2.78,-0.53,-2.78,2.78,3.08,3.22,2.24,2.24,2.25
35.97,-0.53,-2.78,-0.53,-2.78,2.78,3.07,3.19,2.24,2.24,2.24
36.33,-0.53,-2.78,-0.53,-2.78,2.78,3.07,3.16,2.24,2.24,2.24
36.70,-0.53,-2.77,-0.53,-2.77,2.77,3.06,3.14,2.24,2.24,2.24
37.06,-0.53,-2.77,-0.53,-2.77,2.77,3.06,3.11,2.24,2.24,2.24
37.43,-0.53,-2.77,-0.53,-2.77,2.77,3.05,3.08,2.24,2.24,2.23
37.81,-0.53,-2.78,-0.53,-2.77,2.77,3.05,3.05,2.24,2.24,2.24
38.19,-0.53,-2.77,-0.53,-2.77,2.77,3.04,3.03,2.24,2.24,2.24
38.57,-0.53,-2.77,-0.53,-2.77,2.77,3.04,3.00,2.24,2.24,2.23
38.95,-0.53,-2.78,-0.53,-2.77,2.77,3.03,2.98,2.24,2.24,2.24
39.34,-0.53,-2.77,-0.53,-2.77,2.77,3.03,2.95,2.24,2.24,2.24
39.74,-0.53,-2.77,-0.53,-2.77,2.77,3.02,2.93,2.23,2.23,2.23
40.14,-0.53,-2.77,-0.53,-2.77,2.77,3.01,2.91,2.23,2.23,2.23
40.54,-0.53,-2.76,-0.53,-2.76,2.76,3.01,2.89,2.23,2.23,2.23
40.94,-0.53,-2.76,-0.53,-2.76,2.76,3.00,2.87,2.22,2.22,2.22
41.35,-0.53,-2.75,-0.53,-2.75,2.75,3.00,2.85,2.22,2.22,2.22
41.76,-0.53,-2.74,-0.53,-2.74,2.75,2.99,2.84,2.21,2.21,2.21
42.18,-0.53,-2.74,-0.53,-2.74,2.74,2.98,2.83,2.20,2.20,2.20
42.60,-0.53,-2.73,-0.53,-2.73,2.73,2.98,2.82,2.19,2.19,2.20
43.03,-0.53,-2.73,-0.53,-2.73,2.72,2.97,2.81,2.19,2.19,2.19
43.46,-0.53,-2.72,-0.53,-2.72,2.71,2.96,2.80,2.18,2.18,2.19
43.90,-0.53,-2.71,-0.53,-2.71,2.71,2.95,2.80,2.17,2.18,2.17
44.33,-0.53,-2.70,-0.53,-2.70,2.71,2.95,2.80,2.17,2.18,2.17
44.78,-0.53,-2.70,-0.54,-2.70,2.71,2.94,2.80,2.18,2.18,2.16
45.23,-0.54,-2.70,-0.55,-2.71,2.72,2.93,2.80,2.17,2.17,2.16
45.68,-0.56,-2.72,-0.57,-2.72,2.72,2.92,2.80,2.16,2.16,2.15
46.13,-0.59,-2.75,-0.59,-2.75,2.74,2.91,2.81,2.14,2.14,2.16
46.60,-0.61,-2.77,-0.62,-2.77,2.76,2.91,2.82,2.14,2.14,2.15
47.06,-0.63,-2.79,-0.63,-2.78,2.78,2.90,2.83,2.15,2.15,2.15
47.53,-0.63,-2.79,-0.63,-2.79,2.81,2.89,2.85,2.17,2.17,2.16
48.01,-0.63,-2.80,-0.66,-2.82,2.83,2.88,2.86,2.20,2.18,2.16
48.49,-0.68,-2.85,-0.69,-2.85,2.86,2.87,2.88,2.17,2.17,2.16
48.97,-0.74,-2.91,-0.72,-2.89,2.88,2.86,2.89,2.13,2.16,2.17
49.46,-0.74,-2.91,-0.75,-2.92,2.90,2.85,2.91,2.15,2.15,2.17
49.96,-0.74,-2.93,-0.75,-2.93,2.92,2.84,2.94,2.17,2.17,2.18
50.46,-0.74,-2.93,-0.74,-2.93,2.93,2.83,2.96,2.19,2.19,2.18
50.96,-0.74,-2.94,-0.74,-2.94,2.94,2.82,2.98,2.20,2.20,2.20
51.47,-0.74,-2.94,-0.74,-2.94,2.95,2.81,3.01,2.20,2.20,2.20
51.99,-0.74,-2.94,-0.74,-2.94,2.95,2.80,3.03,2.20,2.20,2.20
52.51,-0.74,-2.94,-0.74,-2.94,2.95,2.79,3.06,2.20,2.20,2.20
53.03,-0.74,-2.95,-0.74,-2.95,2.95,2.78,3.08,2.21,2.21,2.20
53.56,-0.74,-2.95,-0.74,-2.95,2.96,2.77,3.10,2.21,2.21,2.20
54.10,-0.74,-2.96,-0.74,-2.95,2.96,2.75,3.13,2.21,2.21,2.21
54.64,-0.74,-2.96,-0.74,-2.95,2.96,2.74,3.15,2.21,2.21,2.21
55.18,-0.74,-2.95,-0.75,-2.95,2.95,2.73,3.17,2.21,2.20,2.21
55.74,-0.74,-2.94,-0.75,-2.95,2.94,2.72,3.20,2.19,2.19,2.20
56.29,-0.74,-2.94,-0.75,-2.94,2.92,2.71,3.21,2.17,2.17,2.20
56.86,-0.73,-2.93,-0.72,-2.91,2.90,2.69,3.23,2.16,2.18,2.20
57.42,-0.69,-2.88,-0.69,-2.87,2.87,2.68,3.25,2.18,2.18,2.18
58.00,-0.63,-2.81,-0.66,-2.83,2.85,2.67,3.26,2.21,2.19,2.17
58.58,-0.63,-2.79,-0.63,-2.79,2.82,2.66,3.27,2.18,2.18,2.16
59.16,-0.63,-2.78,-0.63,-2.77,2.79,2.64,3.27,2.15,2.16,2.14
59.76,-0.63,-2.77,-0.63,-2.76,2.75,2.63,3.27,2.12,2.12,2.13
60.35,-0.63,-2.74,-0.63,-2.74,2.72,2.62,3.27,2.09,2.09,2.11
60.96,-0.63,-2.72,-0.63,-2.72,2.70,2.60,3.27,2.06,2.06,2.08
61.57,-0.63,-2.69,-0.63,-2.69,2.68,2.59,3.26,2.04,2.05,2.06
62.18,-0.63,-2.66,-0.63,-2.65,2.67,2.57,3.24,2.03,2.03,2.02
62.80,-0.63,-2.62,-0.64,-2.62,2.66,2.56,3.22,2.02,2.02,1.98
63.43,-0.66,-2.60,-0.67,-2.61,2.65,2.55,3.20,1.98,1.97,1.94
64.07,-0.71,-2.62,-0.73,-2.63,2.64,2.53,3.17,1.92,1.91,1.90
64.71,-0.80,-2.66,-0.79,-2.64,2.62,2.52,3.14,1.82,1.84,1.85
65.35,-0.84,-2.66,-0.83,-2.65,2.61,2.51,3.11,1.77,1.78,1.82
66.01,-0.84,-2.62,-0.85,-2.63,2.60,2.49,3.07,1.75,1.74,1.78
66.67,-0.84,-2.58,-0.85,-2.59,2.57,2.48,3.03,1.73,1.73,1.74
67.33,-0.84,-2.55,-0.84,-2.55,2.55,2.47,2.98,1.70,1.70,1.71
68.01,-0.84,-2.51,-0.84,-2.52,2.52,2.46,2.93,1.68,1.68,1.67
68.69,-0.84,-2.48,-0.84,-2.48,2.49,2.45,2.88,1.65,1.65,1.64
69.37,-0.84,-2.45,-0.84,-2.45,2.47,2.43,2.82,1.63,1.63,1.61
70.07,-0.84,-2.42,-0.86,-2.43,2.46,2.42,2.76,1.62,1.61,1.57
70.77,-0.88,-2.43,-0.89,-2.43,2.46,2.41,2.70,1.57,1.57,1.54
71.48,-0.93,-2.45,-0.93,-2.45,2.45,2.40,2.64,1.52,1.52,1.52
72.19,-0.98,-2.47,-0.99,-2.47,2.45,2.39,2.57,1.46,1.46,1.49
72.91,-1.03,-2.49,-1.02,-2.48,2.44,2.39,2.51,1.41,1.42,1.45
73.64,-1.04,-2.46,-1.04,-2.46,2.43,2.38,2.44,1.39,1.39,1.42
74.38,-1.04,-2.43,-1.05,-2.43,2.41,2.37,2.37,1.37,1.37,1.38
75.12,-1.04,-2.39,-1.04,-2.39,2.39,2.36,2.30,1.35,1.35,1.35
75.87,-1.04,-2.34,-1.04,-2.34,2.37,2.36,2.23,1.32,1.32,1.30
76.63,-1.04,-2.31,-1.05,-2.31,2.33,2.35,2.16,1.29,1.28,1.26
77.40,-1.06,-2.28,-1.07,-2.29,2.30,2.34,2.09,1.24,1.23,1.22
78.17,-1.10,-2.28,-1.10,-2.28,2.27,2.33,2.02,1.16,1.17,1.18
78.95,-1.14,-2.27,-1.13,-2.26,2.24,2.31,1.95,1.10,1.11,1.13
79.74,-1.14,-2.24,-1.14,-2.23,2.22,2.30,1.88,1.08,1.08,1.09
80.54,-1.14,-2.19,-1.16,-2.20,2.21,2.28,1.81,1.06,1.05,1.04
81.35,-1.17,-2.18,-1.18,-2.18,2.20,2.26,1.75,1.02,1.02,1.00
82.16,-1.22,-2.18,-1.21,-2.17,2.19,2.23,1.68,0.97,0.98,0.96
82.98,-1.24,-2.16,-1.25,-2.17,2.19,2.20,1.61,0.94,0.94,0.92
83.81,-1.29,-2.17,-1.30,-2.18,2.18,2.16,1.54,0.89,0.88,0.88
84.65,-1.34,-2.19,-1.35,-2.19,2.18,2.12,1.48,0.83,0.83,0.84
85.50,-1.40,-2.21,-1.40,-2.20,2.17,2.07,1.41,0.77,0.77,0.80
86.35,-1.44,-2.20,-1.43,-2.19,2.17,2.02,1.35,0.72,0.74,0.76
87.22,-1.44,-2.16,-1.44,-2.16,2.16,1.97,1.29,0.72,0.72,0.72
88.09,-1.44,-2.12,-1.45,-2.12,2.15,1.91,1.22,0.70,0.70,0.67
88.97,-1.44,-2.08,-1.47,-2.10,2.13,1.86,1.16,0.68,0.66,0.64
89.86,-1.50,-2.10,-1.50,-2.09,2.10,1.80,1.10,0.59,0.60,0.59
90.76,-1.53,-2.08,-1.53,-2.08,2.06,1.74,1.04,0.53,0.54,0.55
91.66,-1.53,-2.05,-1.53,-2.04,2.02,1.68,0.98,0.49,0.49,0.51
92.58,-1.51,-1.99,-1.51,-1.98,1.97,1.62,0.92,0.46,0.46,0.47
93.51,-1.46,-1.89,-1.48,-1.91,1.91,1.56,0.87,0.44,0.43,0.43
94.44,-1.43,-1.83,-1.45,-1.84,1.83,1.50,0.81,0.40,0.38,0.39
95.39,-1.42,-1.78,-1.40,-1.75,1.75,1.45,0.75,0.32,0.35,0.35
96.34,-1.35,-1.67,-1.34,-1.66,1.65,1.39,0.70,0.29,0.30,0.32
97.30,-1.24,-1.52,-1.28,-1.55,1.55,1.34,0.65,0.30,0.27,0.28
98.28,-1.20,-1.44,-1.19,-1.43,1.44,1.28,0.59,0.24,0.25,0.23
99.26,-1.13,-1.33,-1.12,-1.31,1.34,1.23,0.54,0.21,0.22,0.19
100.25,-1.04,-1.20,-1.07,-1.22,1.24,1.18,0.49,0.20,0.17,0.16
101.25,-1.00,-1.12,-1.02,-1.13,1.14,1.13,0.44,0.13,0.12,0.12
102.27,-0.99,-1.07,-0.97,-1.04,1.04,1.08,0.39,0.04,0.06,0.07
103.29,-0.93,-0.96,-0.94,-0.96,0.93,1.03,0.35,0.00,-0.00,0.02
104.32,-0.87,-0.85,-0.89,-0.86,0.84,0.98,0.30,-0.04,-0.05,-0.03
105.37,-0.83,-0.77,-0.83,-0.76,0.75,0.93,0.26,-0.08,-0.08,-0.06
106.42,-0.77,-0.66,-0.77,-0.66,0.67,0.88,0.21,-0.11,-0.10,-0.11
107.48,-0.72,-0.56,-0.72,-0.56,0.59,0.84,0.17,-0.13,-0.13,-0.16
108.56,-0.67,-0.47,-0.68,-0.47,0.52,0.79,0.13,-0.16,-0.17,-0.21
109.64,-0.66,-0.41,-0.67,-0.42,0.44,0.75,0.09,-0.22,-0.23,-0.26
110.74,-0.68,-0.39,-0.69,-0.40,0.37,0.70,0.06,-0.31,-0.32,-0.30
111.85,-0.70,-0.37,-0.69,-0.36,0.31,0.66,0.02,-0.40,-0.39,-0.33
112.97,-0.70,-0.33,-0.66,-0.29,0.25,0.62,-0.01,-0.45,-0.41,-0.37
114.10,-0.57,-0.16,-0.60,-0.19,0.20,0.58,-0.04,-0.37,-0.40,-0.41
115.24,-0.51,-0.08,-0.54,-0.10,0.14,0.54,-0.07,-0.37,-0.40,-0.44
116.39,-0.51,-0.04,-0.51,-0.04,0.08,0.50,-0.10,-0.43,-0.43,-0.47
117.55,-0.51,-0.03,-0.51,-0.02,0.02,0.46,-0.12,-0.50,-0.50,-0.49
118.73,-0.50,0.01,-0.50,0.02,-0.05,0.42,-0.15,-0.55,-0.55,-0.52
119.92,-0.47,0.06,-0.46,0.07,-0.11,0.38,-0.16,-0.58,-0.57,-0.53
121.12,-0.39,0.16,-0.39,0.16,-0.16,0.34,-0.18,-0.55,-0.56,-0.55
122.33,-0.32,0.24,-0.33,0.23,-0.22,0.31,-0.20,-0.54,-0.54,-0.56
123.55,-0.27,0.30,-0.29,0.29,-0.27,0.27,-0.21,-0.54,-0.56,-0.58
124.79,-0.26,0.33,-0.27,0.33,-0.33,0.24,-0.22,-0.59,-0.59,-0.59
126.03,-0.26,0.34,-0.23,0.37,-0.38,0.20,-0.22,-0.64,-0.61,-0.61
127.29,-0.19,0.43,-0.20,0.42,-0.43,0.17,-0.23,-0.62,-0.63,-0.62
128.57,-0.14,0.49,-0.16,0.47,-0.46,0.14,-0.23,-0.61,-0.63,-0.63
129.85,-0.14,0.50,-0.14,0.51,-0.50,0.11,-0.23,-0.64,-0.63,-0.65
131.15,-0.13,0.52,-0.13,0.53,-0.52,0.08,-0.22,-0.66,-0.66,-0.66
132.46,-0.13,0.55,-0.13,0.55,-0.55,0.05,-0.22,-0.68,-0.68,-0.68
133.79,-0.12,0.57,-0.13,0.57,-0.57,0.02,-0.21,-0.70,-0.70,-0.69
135.12,-0.12,0.59,-0.12,0.59,-0.60,-0.01,-0.20,-0.72,-0.72,-0.71
136.48,-0.11,0.61,-0.12,0.61,-0.62,-0.03,-0.19,-0.73,-0.74,-0.72
137.84,-0.11,0.63,-0.12,0.63,-0.64,-0.06,-0.17,-0.75,-0.75,-0.74
139.22,-0.11,0.65,-0.11,0.65,-0.65,-0.08,-0.15,-0.77,-0.76,-0.76
140.61,-0.11,0.67,-0.11,0.67,-0.66,-0.10,-0.13,-0.78,-0.77,-0.78
142.02,-0.11,0.69,-0.11,0.69,-0.67,-0.13,-0.11,-0.79,-0.79,-0.80
143.44,-0.11,0.71,-0.13,0.70,-0.68,-0.15,-0.09,-0.79,-0.81,-0.83
144.87,-0.17,0.68,-0.17,0.68,-0.68,-0.17,-0.07,-0.85,-0.85,-0.85
146.32,-0.21,0.67,-0.22,0.66,-0.68,-0.19,-0.04,-0.89,-0.90,-0.88
147.78,-0.27,0.64,-0.26,0.65,-0.68,-0.20,-0.02,-0.95,-0.94,-0.92
149.26,-0.30,0.65,-0.29,0.66,-0.67,-0.22,0.01,-0.98,-0.97,-0.95
150.75,-0.31,0.68,-0.35,0.65,-0.67,-0.24,0.04,-0.99,-1.02,-1.00
152.26,-0.40,0.65,-0.40,0.65,-0.66,-0.25,0.07,-1.07,-1.07,-1.05
153.78,-0.50,0.60,-0.46,0.65,-0.64,-0.26,0.10,-1.15,-1.10,-1.10
155.32,-0.51,0.65,-0.53,0.63,-0.61,-0.27,0.13,-1.13,-1.15,-1.17
156.88,-0.59,0.63,-0.62,0.60,-0.56,-0.29,0.16,-1.15,-1.18,-1.22
158.44,-0.75,0.54,-0.74,0.54,-0.48,-0.29,0.19,-1.23,-1.22,-1.28
160.03,-0.91,0.42,-0.90,0.43,-0.38,-0.30,0.23,-1.29,-1.28,-1.33
161.63,-1.06,0.31,-1.07,0.31,-0.27,-0.31,0.26,-1.33,-1.34,-1.37
163.24,-1.23,0.20,-1.24,0.18,-0.16,-0.32,0.29,-1.38,-1.40,-1.42
164.88,-1.40,0.05,-1.41,0.05,-0.07,-0.32,0.33,-1.47,-1.48,-1.45
166.53,-1.56,-0.08,-1.56,-0.08,-0.01,-0.32,0.36,-1.57,-1.57,-1.48
168.19,-1.65,-0.15,-1.64,-0.14,0.02,-0.32,0.40,-1.64,-1.62,-1.50
169.87,-1.64,-0.13,-1.62,-0.10,0.00,-0.32,0.43,-1.64,-1.61,-1.51
171.57,-1.50,0.01,-1.52,-0.00,-0.05,-0.32,0.47,-1.55,-1.57,-1.52
173.29,-1.35,0.16,-1.37,0.14,-0.13,-0.32,0.51,-1.48,-1.50,-1.52
175.02,-1.22,0.28,-1.22,0.29,-0.23,-0.31,0.55,-1.45,-1.44,-1.50
176.77,-1.08,0.40,-1.09,0.40,-0.33,-0.31,0.58,-1.41,-1.42,-1.49
178.54,-0.98,0.49,-0.99,0.48,-0.43,-0.30,0.62,-1.41,-1.42,-1.47
180.32,-0.92,0.52,-0.92,0.53,-0.50,-0.29,0.66,-1.43,-1.42,-1.45
182.13,-0.87,0.56,-0.88,0.55,-0.55,-0.28,0.70,-1.43,-1.43,-1.43
183.95,-0.84,0.56,-0.84,0.57,-0.58,-0.27,0.74,-1.42,-1.42,-1.41
185.79,-0.83,0.57,-0.83,0.57,-0.58,-0.26,0.78,-1.42,-1.41,-1.40
187.65,-0.81,0.58,-0.84,0.56,-0.57,-0.24,0.82,-1.38,-1.40,-1.40
189.52,-0.86,0.52,-0.84,0.55,-0.54,-0.22,0.86,-1.40,-1.38,-1.39
191.42,-0.88,0.51,-0.87,0.52,-0.51,-0.21,0.90,-1.39,-1.37,-1.39
193.33,-0.87,0.51,-0.92,0.47,-0.47,-0.19,0.94,-1.34,-1.38,-1.38
195.27,-0.97,0.41,-0.97,0.42,-0.43,-0.16,0.98,-1.40,-1.40,-1.39
197.22,-1.05,0.34,-1.03,0.37,-0.38,-0.14,1.02,-1.43,-1.41,-1.40
199.19,-1.08,0.31,-1.09,0.31,-0.33,-0.12,1.06,-1.42,-1.42,-1.40
201.18,-1.11,0.29,-1.13,0.28,-0.29,-0.09,1.11,-1.40,-1.42,-1.41
203.19,-1.18,0.24,-1.18,0.24,-0.24,-0.06,1.15,-1.42,-1.41,-1.42
205.23,-1.24,0.19,-1.24,0.19,-0.18,-0.03,1.19,-1.43,-1.42,-1.43
207.28,-1.30,0.14,-1.31,0.13,-0.13,0.00,1.23,-1.43,-1.43,-1.44
209.35,-1.37,0.07,-1.37,0.08,-0.07,0.04,1.27,-1.44,-1.44,-1.45
211.44,-1.43,0.03,-1.44,0.03,-0.01,0.07,1.31,-1.44,-1.45,-1.47
213.56,-1.52,-0.05,-1.54,-0.06,0.06,0.11,1.35,-1.47,-1.48,-1.48
215.69,-1.62,-0.13,-1.64,-0.14,0.12,0.15,1.39,-1.50,-1.51,-1.50
217.85,-1.77,-0.27,-1.71,-0.21,0.19,0.20,1.42,-1.58,-1.52,-1.50
220.03,-1.75,-0.23,-1.78,-0.26,0.26,0.24,1.46,-1.50,-1.52,-1.52
222.23,-1.81,-0.28,-1.85,-0.32,0.32,0.29,1.50,-1.49,-1.53,-1.53
224.45,-1.94,-0.41,-1.92,-0.38,0.38,0.33,1.53,-1.56,-1.53,-1.54
226.70,-2.02,-0.48,-2.00,-0.46,0.45,0.39,1.56,-1.57,-1.55,-1.54
228.96,-2.05,-0.50,-2.07,-0.52,0.52,0.44,1.59,-1.54,-1.55,-1.55
231.25,-2.11,-0.57,-2.12,-0.57,0.59,0.49,1.62,-1.52,-1.53,-1.55
233.57,-2.18,-0.63,-2.18,-0.63,0.66,0.55,1.65,-1.52,-1.52,-1.55
235.90,-2.26,-0.71,-2.28,-0.73,0.74,0.61,1.67,-1.53,-1.54,-1.55
238.26,-2.37,-0.83,-2.37,-0.83,0.81,0.67,1.70,-1.57,-1.56,-1.55
240.64,-2.46,-0.93,-2.45,-0.91,0.87,0.73,1.72,-1.59,-1.57,-1.53
243.05,-2.50,-0.98,-2.51,-0.98,0.94,0.79,1.74,-1.56,-1.56,-1.53
245.48,-2.53,-1.01,-2.55,-1.02,1.02,0.86,1.75,-1.52,-1.53,-1.52
247.93,-2.59,-1.08,-2.58,-1.06,1.09,0.93,1.76,-1.50,-1.49,-1.52
250.41,-2.62,-1.11,-2.64,-1.12,1.16,1.00,1.77,-1.46,-1.47,-1.51
252.92,-2.70,-1.20,-2.71,-1.20,1.22,1.07,1.78,-1.48,-1.49,-1.51
255.45,-2.80,-1.29,-2.81,-1.30,1.28,1.15,1.79,-1.52,-1.53,-1.51
258.00,-2.91,-1.40,-2.93,-1.41,1.35,1.22,1.79,-1.56,-1.58,-1.52
260.58,-3.04,-1.52,-2.99,-1.47,1.43,1.30,1.79,-1.61,-1.56,-1.52
263.19,-3.05,-1.53,-3.03,-1.50,1.52,1.38,1.79,-1.53,-1.51,-1.53
265.82,-3.00,-1.47,-3.08,-1.55,1.61,1.46,1.79,-1.39,-1.47,-1.53
268.48,-3.17,-1.64,-3.18,-1.65,1.70,1.55,1.78,-1.47,-1.48,-1.53
271.16,-3.34,-1.81,-3.33,-1.79,1.79,1.63,1.77,-1.55,-1.54,-1.54
273.87,-3.52,-1.98,-3.48,-1.94,1.89,1.72,1.76,-1.64,-1.59,-1.54
276.61,-3.57,-2.03,-3.59,-2.04,1.99,1.81,1.75,-1.58,-1.60,-1.55
279.38,-3.64,-2.10,-3.66,-2.12,2.10,1.89,1.74,-1.54,-1.56,-1.55
282.17,-3.74,-2.20,-3.71,-2.16,2.21,1.98,1.73,-1.53,-1.50,-1.54
284.99,-3.78,-2.25,-3.81,-2.27,2.31,2.07,1.71,-1.47,-1.50,-1.54
287.84,-3.88,-2.34,-3.94,-2.40,2.40,2.16,1.70,-1.47,-1.53,-1.54
290.72,-4.12,-2.59,-4.05,-2.52,2.48,2.25,1.68,-1.64,-1.56,-1.53
293.63,-4.14,-2.62,-4.12,-2.60,2.57,2.34,1.67,-1.58,-1.56,-1.52
296.57,-4.15,-2.64,-4.17,-2.65,2.64,2.43,1.65,-1.51,-1.53,-1.52
299.53,-4.15,-2.63,-4.22,-2.70,2.71,2.52,1.63,-1.44,-1.51,-1.52
302.53,-4.31,-2.80,-4.29,-2.77,2.78,2.61,1.62,-1.53,-1.51,-1.51
305.55,-4.42,-2.91,-4.35,-2.84,2.84,2.70,1.60,-1.59,-1.51,-1.51
308.61,-4.36,-2.85,-4.43,-2.91,2.90,2.78,1.59,-1.47,-1.53,-1.52
311.69,-4.44,-2.93,-4.47,-2.94,2.95,2.87,1.57,-1.49,-1.51,-1.52
314.81,-4.56,-3.03,-4.50,-2.97,3.01,2.95,1.56,-1.55,-1.49,-1.53
317.96,-4.56,-3.03,-4.59,-3.06,3.07,3.02,1.54,-1.50,-1.52,-1.53
321.14,-4.62,-3.08,-4.68,-3.13,3.12,3.10,1.53,-1.50,-1.55,-1.55
324.35,-4.79,-3.25,-4.74,-3.19,3.18,3.17,1.51,-1.62,-1.56,-1.55
327.59,-4.82,-3.26,-4.80,-3.24,3.22,3.24,1.50,-1.60,-1.58,-1.56
330.87,-4.80,-3.23,-4.84,-3.27,3.26,3.30,1.49,-1.55,-1.58,-1.57
334.18,-4.86,-3.28,-4.86,-3.28,3.29,3.36,1.48,-1.58,-1.58,-1.58
337.52,-4.91,-3.32,-4.91,-3.32,3.31,3.41,1.47,-1.60,-1.60,-1.59
340.90,-4.96,-3.37,-4.97,-3.36,3.34,3.45,1.47,-1.62,-1.62,-1.60
344.30,-4.99,-3.39,-4.98,-3.36,3.37,3.49,1.46,-1.62,-1.61,-1.61
347.75,-4.99,-3.36,-4.97,-3.35,3.40,3.53,1.46,-1.59,-1.57,-1.63
351.23,-4.95,-3.31,-5.01,-3.37,3.43,3.55,1.45,-1.53,-1.58,-1.64
354.74,-5.04,-3.39,-5.07,-3.42,3.45,3.57,1.45,-1.60,-1.62,-1.65
358.28,-5.20,-3.54,-5.16,-3.50,3.45,3.58,1.45,-1.75,-1.71,-1.66
361.87,-5.22,-3.55,-5.22,-3.54,3.45,3.59,1.45,-1.78,-1.77,-1.68
365.49,-5.23,-3.54,-5.20,-3.51,3.44,3.58,1.45,-1.79,-1.76,-1.70
369.14,-5.10,-3.40,-5.13,-3.43,3.43,3.57,1.45,-1.67,-1.70,-1.71
372.83,-5.05,-3.34,-5.08,-3.36,3.41,3.55,1.45,-1.64,-1.66,-1.72
376.56,-5.04,-3.31,-5.04,-3.31,3.38,3.52,1.46,-1.67,-1.66,-1.73
380.33,-5.04,-3.30,-5.04,-3.30,3.33,3.49,1.46,-1.71,-1.70,-1.74
384.13,-5.03,-3.28,-5.06,-3.30,3.28,3.45,1.47,-1.75,-1.78,-1.75
387.97,-5.04,-3.28,-5.05,-3.28,3.23,3.40,1.47,-1.81,-1.81,-1.76
391.85,-5.05,-3.28,-4.99,-3.21,3.19,3.34,1.48,-1.87,-1.80,-1.77
395.77,-4.89,-3.11,-4.92,-3.14,3.14,3.28,1.49,-1.76,-1.79,-1.78
399.73,-4.80,-3.01,-4.87,-3.07,3.08,3.21,1.50,-1.72,-1.79,-1.80
403.72,-4.84,-3.04,-4.81,-3.00,3.02,3.14,1.51,-1.83,-1.79,-1.81
407.76,-4.81,-2.99,-4.77,-2.95,2.95,3.06,1.52,-1.87,-1.82,-1.83
411.84,-4.68,-2.85,-4.72,-2.88,2.88,2.98,1.53,-1.80,-1.84,-1.84
415.96,-4.63,-2.79,-4.64,-2.79,2.81,2.89,1.54,-1.82,-1.82,-1.85
420.12,-4.58,-2.73,-4.59,-2.73,2.75,2.80,1.55,-1.83,-1.84,-1.85
424.32,-4.54,-2.68,-4.56,-2.70,2.69,2.71,1.56,-1.86,-1.87,-1.86
428.56,-4.53,-2.67,-4.49,-2.63,2.62,2.61,1.57,-1.91,-1.87,-1.86
432.85,-4.41,-2.56,-4.41,-2.56,2.55,2.51,1.58,-1.87,-1.86,-1.85
437.18,-4.26,-2.42,-4.33,-2.48,2.47,2.41,1.58,-1.79,-1.85,-1.84
441.55,-4.24,-2.42,-4.22,-2.39,2.39,2.31,1.59,-1.85,-1.82,-1.82
445.96,-4.15,-2.35,-4.12,-2.31,2.31,2.20,1.60,-1.84,-1.80,-1.80
450.42,-3.96,-2.19,-4.00,-2.23,2.22,2.10,1.60,-1.74,-1.78,-1.77
454.93,-3.85,-2.12,-3.85,-2.11,2.13,1.99,1.60,-1.72,-1.72,-1.74
459.48,-3.72,-2.03,-3.71,-2.01,2.03,1.88,1.61,-1.69,-1.68,-1.70
464.07,-3.57,-1.91,-3.60,-1.94,1.93,1.77,1.60,-1.64,-1.67,-1.67
468.71,-3.47,-1.85,-3.47,-1.84,1.82,1.67,1.60,-1.65,-1.64,-1.63
473.40,-3.36,-1.78,-3.33,-1.74,1.72,1.56,1.60,-1.64,-1.61,-1.59
478.13,-3.14,-1.60,-3.18,-1.63,1.62,1.46,1.59,-1.53,-1.56,-1.55
