frequency,raw,error,smoothed,error_smoothed,equalization,parametric_eq,fixed_band_eq,equalized_raw,equalized_smoothed,target
20.00,-5.17,-6.91,-5.18,-6.91,5.95,5.88,1.27,0.78,0.77,1.73
20.20,-5.05,-6.80,-5.05,-6.80,5.99,5.81,1.31,0.94,0.94,1.74
20.40,-4.93,-6.69,-4.93,-6.68,6.02,5.75,1.35,1.09,1.09,1.75
20.61,-4.82,-6.57,-4.81,-6.57,6.04,5.68,1.39,1.22,1.23,1.75
20.81,-4.69,-6.46,-4.69,-6.45,6.04,5.62,1.43,1.35,1.35,1.76
21.02,-4.57,-6.34,-4.58,-6.34,6.03,5.55,1.48,1.46,1.46,1.76
21.23,-4.46,-6.24,-4.46,-6.23,6.01,5.48,1.52,1.55,1.55,1.77
21.44,-4.35,-6.12,-4.35,-6.12,5.98,5.41,1.57,1.62,1.63,1.77
21.66,-4.25,-6.02,-4.24,-6.02,5.94,5.34,1.62,1.69,1.69,1.77
21.87,-4.13,-5.90,-4.14,-5.91,5.88,5.27,1.67,1.74,1.74,1.77
22.09,-4.03,-5.81,-4.03,-5.81,5.80,5.20,1.72,1.77,1.77,1.78
22.31,-3.92,-5.70,-3.93,-5.70,5.71,5.13,1.77,1.79,1.79,1.78
22.54,-3.83,-5.59,-3.82,-5.59,5.61,5.06,1.83,1.79,1.79,1.77
22.76,-3.72,-5.48,-3.72,-5.48,5.50,4.99,1.88,1.78,1.78,1.76
22.99,-3.61,-5.37,-3.62,-5.37,5.39,4.92,1.94,1.77,1.77,1.76
23.22,-3.51,-5.27,-3.52,-5.27,5.27,4.84,2.00,1.76,1.76,1.76
23.45,-3.41,-5.16,-3.41,-5.16,5.17,4.77,2.06,1.75,1.75,1.75
23.69,-3.32,-5.06,-3.31,-5.06,5.06,4.70,2.12,1.75,1.75,1.75
23.92,-3.20,-4.95,-3.21,-4.95,4.96,4.62,2.18,1.76,1.75,1.75
24.16,-3.10,-4.85,-3.11,-4.85,4.85,4.55,2.24,1.75,1.75,1.75
24.40,-3.00,-4.75,-3.00,-4.75,4.75,4.47,2.31,1.74,1.74,1.74
24.65,-2.91,-4.65,-2.90,-4.65,4.64,4.39,2.37,1.73,1.73,1.74
24.89,-2.79,-4.54,-2.79,-4.54,4.52,4.31,2.43,1.73,1.73,1.74
25.14,-2.68,-4.43,-2.68,-4.42,4.41,4.24,2.50,1.72,1.73,1.74
25.39,-2.55,-4.28,-2.55,-4.29,4.29,4.16,2.56,1.73,1.73,1.73
25.65,-2.43,-4.16,-2.43,-4.16,4.16,4.08,2.63,1.74,1.74,1.73
25.91,-2.31,-4.04,-2.30,-4.03,4.04,4.00,2.69,1.73,1.74,1.73
26.16,-2.18,-3.91,-2.18,-3.91,3.92,3.92,2.76,1.74,1.73,1.73
26.43,-2.07,-3.80,-2.06,-3.79,3.80,3.84,2.82,1.73,1.73,1.73
26.69,-1.94,-3.67,-1.95,-3.68,3.68,3.75,2.88,1.74,1.73,1.73
26.96,-1.84,-3.56,-1.83,-3.56,3.57,3.67,2.94,1.73,1.73,1.73
27.23,-1.73,-3.45,-1.73,-3.45,3.46,3.59,3.00,1.73,1.73,1.73
27.50,-1.62,-3.35,-1.62,-3.35,3.35,3.51,3.05,1.73,1.73,1.73
27.77,-1.52,-3.25,-1.52,-3.25,3.25,3.42,3.10,1.72,1.72,1.73
28.05,-1.42,-3.15,-1.42,-3.15,3.14,3.34,3.15,1.72,1.72,1.72
28.33,-1.32,-3.05,-1.32,-3.05,3.04,3.25,3.20,1.72,1.72,1.72
28.62,-1.22,-2.94,-1.22,-2.94,2.94,3.17,3.24,1.72,1.72,1.72
28.90,-1.11,-2.85,-1.11,-2.84,2.84,3.08,3.27,1.72,1.72,1.73
29.19,-1.00,-2.73,-1.00,-2.73,2.73,2.99,3.31,1.73,1.73,1.73
29.48,-0.89,-2.62,-0.89,-2.63,2.63,2.90,3.33,1.74,1.74,1.73
29.78,-0.79,-2.52,-0.79,-2.52,2.53,2.82,3.35,1.74,1.74,1.74
30.08,-0.69,-2.42,-0.69,-2.42,2.42,2.73,3.36,1.74,1.74,1.74
30.38,-0.59,-2.32,-0.58,-2.32,2.32,2.64,3.37,1.73,1.73,1.74
30.68,-0.48,-2.22,-0.49,-2.22,2.21,2.55,3.37,1.73,1.73,1.73
30.99,-0.39,-2.12,-0.39,-2.12,2.11,2.46,3.37,1.73,1.73,1.73
31.30,-0.29,-2.02,-0.28,-2.01,2.02,2.37,3.35,1.73,1.74,1.73
31.61,-0.18,-1.92,-0.18,-1.91,1.93,2.28,3.33,1.74,1.75,1.73
31.93,-0.08,-1.80,-0.09,-1.81,1.84,2.19,3.30,1.76,1.75,1.73
32.24,-0.00,-1.72,-0.01,-1.73,1.74,2.10,3.27,1.74,1.73,1.72
32.57,0.05,-1.66,0.06,-1.66,1.65,2.01,3.23,1.70,1.70,1.72
32.89,0.12,-1.60,0.13,-1.58,1.55,1.92,3.18,1.66,1.68,1.71
33.22,0.22,-1.49,0.22,-1.48,1.44,1.82,3.13,1.66,1.67,1.70
33.55,0.35,-1.35,0.34,-1.36,1.34,1.73,3.07,1.69,1.68,1.70
33.89,0.47,-1.22,0.46,-1.23,1.23,1.64,3.00,1.70,1.70,1.69
34.23,0.57,-1.11,0.58,-1.11,1.13,1.55,2.94,1.71,1.71,1.69
34.57,0.69,-1.00,0.69,-1.00,1.03,1.46,2.86,1.72,1.72,1.68
34.92,0.78,-0.90,0.78,-0.91,0.94,1.36,2.78,1.72,1.71,1.68
35.27,0.85,-0.83,0.85,-0.83,0.84,1.27,2.70,1.70,1.69,1.68
35.62,0.91,-0.77,0.91,-0.77,0.76,1.18,2.61,1.66,1.67,1.68
35.97,0.96,-0.72,0.97,-0.71,0.68,1.08,2.52,1.64,1.65,1.68
36.33,1.05,-0.63,1.05,-0.63,0.60,0.99,2.43,1.65,1.65,1.67
36.70,1.13,-0.54,1.13,-0.54,0.53,0.90,2.33,1.66,1.66,1.67
37.06,1.23,-0.44,1.22,-0.44,0.45,0.81,2.24,1.68,1.68,1.67
37.43,1.31,-0.36,1.31,-0.36,0.38,0.71,2.14,1.69,1.69,1.67
37.81,1.39,-0.29,1.39,-0.28,0.31,0.62,2.03,1.69,1.69,1.67
38.19,1.46,-0.21,1.45,-0.22,0.23,0.53,1.93,1.69,1.68,1.67
38.57,1.52,-0.15,1.51,-0.16,0.16,0.44,1.83,1.67,1.67,1.67
38.95,1.57,-0.11,1.57,-0.10,0.08,0.35,1.72,1.65,1.66,1.67
39.34,1.64,-0.03,1.63,-0.04,0.01,0.26,1.62,1.65,1.64,1.67
39.74,1.71,0.04,1.70,0.04,-0.06,0.17,1.52,1.64,1.64,1.67
40.14,1.78,0.12,1.80,0.13,-0.14,0.08,1.41,1.65,1.66,1.66
40.54,1.88,0.22,1.89,0.23,-0.21,-0.01,1.30,1.67,1.68,1.66
40.94,2.00,0.34,1.97,0.32,-0.29,-0.10,1.20,1.71,1.68,1.66
41.35,2.04,0.38,2.03,0.38,-0.36,-0.18,1.09,1.67,1.67,1.65
41.76,2.07,0.43,2.08,0.44,-0.43,-0.27,0.99,1.63,1.64,1.64
42.18,2.12,0.48,2.12,0.49,-0.50,-0.35,0.88,1.61,1.62,1.63
42.60,2.19,0.56,2.19,0.56,-0.57,-0.44,0.78,1.62,1.62,1.63
43.03,2.26,0.63,2.25,0.62,-0.63,-0.52,0.67,1.62,1.61,1.63
43.46,2.31,0.68,2.30,0.68,-0.69,-0.60,0.57,1.61,1.61,1.62
43.90,2.35,0.74,2.36,0.75,-0.75,-0.68,0.47,1.59,1.61,1.61
44.33,2.42,0.82,2.42,0.82,-0.81,-0.76,0.36,1.61,1.61,1.60
44.78,2.49,0.89,2.48,0.88,-0.86,-0.83,0.26,1.62,1.62,1.60
45.23,2.53,0.94,2.52,0.93,-0.91,-0.91,0.16,1.62,1.61,1.59
45.68,2.55,0.96,2.55,0.96,-0.96,-0.98,0.05,1.59,1.59,1.58
46.13,2.57,0.98,2.58,0.99,-1.01,-1.06,-0.05,1.56,1.57,1.59
46.60,2.62,1.03,2.61,1.03,-1.05,-1.13,-0.15,1.56,1.56,1.58
47.06,2.67,1.08,2.66,1.07,-1.10,-1.20,-0.25,1.57,1.56,1.59
47.53,2.71,1.12,2.71,1.12,-1.13,-1.26,-0.35,1.57,1.58,1.59
48.01,2.76,1.16,2.77,1.17,-1.16,-1.33,-0.45,1.59,1.60,1.59
48.49,2.82,1.22,2.82,1.22,-1.19,-1.39,-0.55,1.63,1.63,1.60
48.97,2.88,1.28,2.85,1.25,-1.21,-1.45,-0.65,1.66,1.64,1.60
49.46,2.87,1.26,2.87,1.26,-1.23,-1.51,-0.75,1.63,1.63,1.60
49.96,2.86,1.24,2.86,1.25,-1.26,-1.56,-0.85,1.60,1.60,1.61
50.46,2.86,1.24,2.85,1.23,-1.28,-1.62,-0.95,1.58,1.57,1.62
50.96,2.86,1.23,2.87,1.25,-1.30,-1.67,-1.05,1.56,1.58,1.63
51.47,2.92,1.29,2.92,1.29,-1.32,-1.72,-1.14,1.60,1.60,1.63
51.99,2.98,1.35,2.97,1.34,-1.34,-1.76,-1.23,1.65,1.64,1.63
52.51,3.03,1.39,3.02,1.39,-1.36,-1.81,-1.33,1.67,1.67,1.63
53.03,3.06,1.42,3.05,1.42,-1.38,-1.85,-1.42,1.68,1.67,1.63
53.56,3.06,1.42,3.06,1.42,-1.40,-1.89,-1.51,1.66,1.66,1.63
54.10,3.06,1.41,3.06,1.42,-1.41,-1.92,-1.60,1.65,1.65,1.64
54.64,3.06,1.41,3.06,1.41,-1.42,-1.96,-1.68,1.64,1.64,1.64
55.18,3.06,1.41,3.06,1.42,-1.43,-1.99,-1.76,1.63,1.63,1.64
55.74,3.06,1.42,3.05,1.41,-1.44,-2.02,-1.84,1.61,1.61,1.63
56.29,3.06,1.43,3.05,1.42,-1.46,-2.05,-1.92,1.60,1.60,1.63
56.86,3.06,1.43,3.08,1.46,-1.48,-2.07,-2.00,1.58,1.61,1.63
57.42,3.12,1.50,3.12,1.51,-1.50,-2.10,-2.07,1.62,1.62,1.62
58.00,3.20,1.59,3.16,1.55,-1.53,-2.12,-2.13,1.67,1.63,1.60
58.58,3.18,1.59,3.18,1.59,-1.55,-2.13,-2.20,1.62,1.63,1.59
59.16,3.16,1.58,3.17,1.59,-1.58,-2.15,-2.25,1.58,1.59,1.58
59.76,3.16,1.59,3.15,1.59,-1.60,-2.17,-2.31,1.55,1.55,1.56
60.35,3.16,1.62,3.15,1.61,-1.63,-2.18,-2.36,1.53,1.52,1.54
60.96,3.16,1.64,3.16,1.64,-1.65,-2.19,-2.40,1.50,1.50,1.51
61.57,3.16,1.67,3.16,1.67,-1.68,-2.20,-2.45,1.48,1.48,1.49
62.18,3.16,1.70,3.16,1.70,-1.70,-2.21,-2.48,1.45,1.45,1.45
62.80,3.16,1.74,3.16,1.74,-1.74,-2.21,-2.51,1.42,1.42,1.42
63.43,3.16,1.79,3.16,1.78,-1.78,-2.22,-2.54,1.37,1.37,1.37
64.07,3.16,1.82,3.16,1.82,-1.83,-2.22,-2.56,1.32,1.32,1.33
64.71,3.16,1.87,3.16,1.87,-1.88,-2.22,-2.58,1.28,1.28,1.29
65.35,3.16,1.91,3.15,1.91,-1.92,-2.22,-2.59,1.24,1.23,1.25
66.01,3.16,1.95,3.15,1.94,-1.95,-2.22,-2.60,1.21,1.20,1.21
66.67,3.16,1.99,3.18,2.00,-1.97,-2.22,-2.61,1.19,1.21,1.17
67.33,3.17,2.03,3.17,2.04,-1.98,-2.22,-2.61,1.19,1.19,1.14
68.01,3.20,2.09,3.13,2.02,-1.98,-2.22,-2.61,1.21,1.14,1.10
68.69,3.03,1.96,3.05,1.98,-1.98,-2.22,-2.60,1.04,1.07,1.07
69.37,2.95,1.91,2.98,1.94,-1.98,-2.21,-2.59,0.96,1.00,1.04
70.07,2.94,1.93,2.93,1.93,-1.98,-2.21,-2.58,0.95,0.95,1.01
70.77,2.96,1.98,2.94,1.96,-1.99,-2.21,-2.57,0.96,0.95,0.97
71.48,2.96,2.00,2.95,2.01,-2.00,-2.21,-2.56,0.95,0.95,0.95
72.19,2.96,2.04,2.96,2.04,-2.03,-2.20,-2.54,0.93,0.93,0.92
72.91,2.96,2.07,2.96,2.07,-2.07,-2.20,-2.52,0.89,0.89,0.88
73.64,2.96,2.11,2.95,2.10,-2.11,-2.20,-2.51,0.85,0.85,0.85
74.38,2.96,2.14,2.96,2.15,-2.15,-2.20,-2.49,0.81,0.82,0.81
75.12,2.96,2.18,2.97,2.19,-2.18,-2.19,-2.47,0.78,0.79,0.78
75.87,2.99,2.25,2.95,2.22,-2.20,-2.19,-2.45,0.78,0.75,0.73
76.63,2.93,2.23,2.93,2.23,-2.22,-2.19,-2.43,0.71,0.71,0.70
77.40,2.88,2.23,2.90,2.25,-2.23,-2.19,-2.41,0.64,0.67,0.65
78.17,2.86,2.25,2.86,2.25,-2.25,-2.19,-2.39,0.61,0.61,0.61
78.95,2.85,2.29,2.82,2.25,-2.26,-2.20,-2.38,0.59,0.55,0.56
79.74,2.76,2.23,2.78,2.26,-2.28,-2.20,-2.36,0.47,0.50,0.52
80.54,2.74,2.26,2.75,2.28,-2.31,-2.21,-2.35,0.43,0.45,0.47
81.35,2.75,2.31,2.73,2.30,-2.33,-2.21,-2.33,0.41,0.40,0.43
82.16,2.76,2.36,2.76,2.36,-2.36,-2.22,-2.32,0.39,0.39,0.39
82.98,2.76,2.40,2.77,2.42,-2.39,-2.23,-2.31,0.36,0.38,0.35
83.81,2.79,2.48,2.76,2.45,-2.42,-2.24,-2.30,0.36,0.34,0.31
84.65,2.75,2.47,2.74,2.46,-2.45,-2.25,-2.29,0.30,0.29,0.28
85.50,2.70,2.46,2.71,2.47,-2.47,-2.26,-2.28,0.22,0.23,0.23
86.35,2.66,2.46,2.68,2.49,-2.49,-2.27,-2.28,0.17,0.19,0.19
87.22,2.66,2.51,2.64,2.49,-2.50,-2.29,-2.28,0.16,0.14,0.15
88.09,2.64,2.53,2.61,2.50,-2.50,-2.30,-2.27,0.13,0.11,0.10
88.97,2.53,2.46,2.58,2.52,-2.51,-2.32,-2.28,0.01,0.07,0.07
89.86,2.58,2.55,2.54,2.52,-2.53,-2.33,-2.28,0.05,0.01,0.02
90.76,2.52,2.54,2.51,2.53,-2.54,-2.35,-2.28,-0.03,-0.04,-0.02
91.66,2.48,2.53,2.50,2.55,-2.56,-2.36,-2.29,-0.08,-0.06,-0.06
92.58,2.47,2.56,2.47,2.57,-2.57,-2.38,-2.30,-0.10,-0.10,-0.09
93.51,2.47,2.60,2.46,2.60,-2.57,-2.39,-2.30,-0.11,-0.11,-0.14
94.44,2.45,2.62,2.44,2.61,-2.58,-2.41,-2.32,-0.13,-0.14,-0.18
95.39,2.40,2.61,2.39,2.60,-2.59,-2.42,-2.33,-0.19,-0.20,-0.21
96.34,2.33,2.58,2.33,2.58,-2.59,-2.43,-2.34,-0.27,-0.27,-0.25
97.30,2.26,2.54,2.28,2.57,-2.60,-2.44,-2.36,-0.34,-0.32,-0.29
98.28,2.25,2.58,2.24,2.57,-2.60,-2.45,-2.38,-0.36,-0.36,-0.33
99.26,2.23,2.60,2.22,2.59,-2.60,-2.46,-2.39,-0.38,-0.38,-0.37
100.25,2.21,2.62,2.21,2.62,-2.60,-2.46,-2.42,-0.39,-0.39,-0.41
101.25,2.19,2.63,2.18,2.63,-2.59,-2.47,-2.44,-0.41,-0.42,-0.45
102.27,2.14,2.63,2.13,2.62,-2.60,-2.47,-2.46,-0.46,-0.47,-0.50
103.29,2.06,2.60,2.06,2.60,-2.60,-2.47,-2.48,-0.55,-0.54,-0.55
104.32,1.99,2.58,1.99,2.58,-2.61,-2.47,-2.50,-0.62,-0.62,-0.59
105.37,1.93,2.56,1.93,2.57,-2.61,-2.47,-2.53,-0.69,-0.68,-0.63
106.42,1.90,2.58,1.90,2.58,-2.61,-2.47,-2.55,-0.71,-0.71,-0.68
107.48,1.88,2.60,1.88,2.61,-2.60,-2.47,-2.58,-0.73,-0.72,-0.73
108.56,1.86,2.63,1.86,2.64,-2.59,-2.47,-2.60,-0.74,-0.73,-0.78
109.64,1.85,2.67,1.83,2.65,-2.59,-2.47,-2.62,-0.74,-0.76,-0.83
110.74,1.76,2.62,1.76,2.62,-2.59,-2.47,-2.65,-0.83,-0.83,-0.86
111.85,1.69,2.59,1.67,2.57,-2.59,-2.48,-2.67,-0.91,-0.92,-0.90
112.97,1.57,2.50,1.60,2.54,-2.60,-2.48,-2.69,-1.03,-1.00,-0.94
114.10,1.56,2.53,1.56,2.54,-2.60,-2.48,-2.71,-1.04,-1.03,-0.98
115.24,1.58,2.58,1.56,2.57,-2.59,-2.48,-2.73,-1.02,-1.03,-1.00
116.39,1.59,2.63,1.59,2.62,-2.59,-2.49,-2.74,-1.00,-1.00,-1.04
117.55,1.60,2.65,1.59,2.65,-2.59,-2.49,-2.76,-0.99,-1.00,-1.06
118.73,1.57,2.65,1.55,2.64,-2.59,-2.50,-2.77,-1.03,-1.04,-1.08
119.92,1.50,2.60,1.50,2.60,-2.60,-2.51,-2.78,-1.11,-1.10,-1.10
121.12,1.44,2.55,1.44,2.56,-2.60,-2.51,-2.79,-1.17,-1.16,-1.12
122.33,1.41,2.54,1.41,2.54,-2.59,-2.52,-2.80,-1.19,-1.18,-1.13
123.55,1.41,2.55,1.42,2.56,-2.58,-2.53,-2.80,-1.17,-1.16,-1.15
124.79,1.44,2.60,1.43,2.59,-2.55,-2.54,-2.80,-1.12,-1.12,-1.16
126.03,1.45,2.62,1.42,2.59,-2.54,-2.54,-2.80,-1.09,-1.12,-1.17
127.29,1.38,2.56,1.37,2.56,-2.53,-2.55,-2.79,-1.16,-1.17,-1.19
128.57,1.29,2.49,1.30,2.50,-2.53,-2.56,-2.79,-1.24,-1.23,-1.20
129.85,1.23,2.44,1.25,2.46,-2.52,-2.57,-2.78,-1.30,-1.27,-1.21
131.15,1.24,2.46,1.24,2.47,-2.50,-2.58,-2.76,-1.27,-1.26,-1.23
132.46,1.27,2.51,1.26,2.50,-2.48,-2.59,-2.75,-1.22,-1.23,-1.25
133.79,1.28,2.54,1.26,2.52,-2.47,-2.60,-2.73,-1.19,-1.21,-1.26
135.12,1.22,2.50,1.21,2.49,-2.45,-2.61,-2.71,-1.24,-1.24,-1.28
136.48,1.15,2.44,1.14,2.44,-2.45,-2.62,-2.69,-1.30,-1.31,-1.29
137.84,1.06,2.37,1.08,2.39,-2.44,-2.63,-2.67,-1.38,-1.36,-1.31
139.22,1.06,2.39,1.07,2.39,-2.42,-2.64,-2.65,-1.37,-1.36,-1.33
140.61,1.07,2.41,1.07,2.42,-2.40,-2.64,-2.62,-1.34,-1.33,-1.35
142.02,1.09,2.45,1.05,2.42,-2.38,-2.65,-2.60,-1.30,-1.33,-1.37
143.44,1.01,2.40,0.99,2.39,-2.37,-2.66,-2.57,-1.36,-1.37,-1.39
144.87,0.90,2.32,0.94,2.36,-2.36,-2.67,-2.55,-1.46,-1.42,-1.42
146.32,0.88,2.32,0.89,2.34,-2.35,-2.68,-2.52,-1.48,-1.46,-1.45
147.78,0.89,2.37,0.86,2.34,-2.35,-2.68,-2.49,-1.47,-1.50,-1.48
149.26,0.85,2.37,0.83,2.35,-2.36,-2.69,-2.46,-1.51,-1.53,-1.52
150.75,0.78,2.34,0.80,2.36,-2.38,-2.70,-2.44,-1.60,-1.58,-1.56
152.26,0.77,2.38,0.77,2.39,-2.41,-2.70,-2.41,-1.64,-1.64,-1.62
153.78,0.77,2.44,0.76,2.43,-2.45,-2.71,-2.38,-1.68,-1.69,-1.67
155.32,0.77,2.50,0.77,2.50,-2.50,-2.71,-2.36,-1.73,-1.73,-1.74
156.88,0.77,2.55,0.77,2.56,-2.56,-2.72,-2.33,-1.79,-1.79,-1.79
158.44,0.78,2.63,0.77,2.62,-2.61,-2.72,-2.31,-1.84,-1.84,-1.85
160.03,0.78,2.68,0.77,2.67,-2.67,-2.73,-2.29,-1.90,-1.90,-1.90
161.63,0.77,2.71,0.77,2.72,-2.72,-2.73,-2.27,-1.96,-1.95,-1.94
163.24,0.77,2.76,0.77,2.76,-2.76,-2.74,-2.25,-1.99,-1.99,-1.99
164.88,0.77,2.79,0.77,2.79,-2.78,-2.74,-2.23,-2.01,-2.01,-2.02
166.53,0.76,2.81,0.75,2.81,-2.78,-2.74,-2.21,-2.02,-2.02,-2.05
168.19,0.73,2.80,0.71,2.78,-2.76,-2.74,-2.20,-2.03,-2.04,-2.07
169.87,0.66,2.73,0.65,2.73,-2.71,-2.74,-2.18,-2.06,-2.06,-2.08
171.57,0.56,2.64,0.57,2.66,-2.65,-2.75,-2.17,-2.09,-2.07,-2.09
173.29,0.50,2.58,0.48,2.56,-2.56,-2.75,-2.16,-2.07,-2.08,-2.08
175.02,0.40,2.46,0.39,2.47,-2.46,-2.75,-2.15,-2.06,-2.06,-2.07
176.77,0.29,2.34,0.31,2.37,-2.35,-2.75,-2.14,-2.06,-2.04,-2.06
178.54,0.24,2.28,0.21,2.25,-2.24,-2.75,-2.14,-2.00,-2.03,-2.04
180.32,0.12,2.13,0.11,2.12,-2.14,-2.74,-2.13,-2.02,-2.03,-2.02
182.13,0.01,2.01,0.02,2.02,-2.05,-2.74,-2.13,-2.05,-2.03,-2.00
183.95,-0.06,1.91,-0.04,1.94,-1.99,-2.74,-2.13,-2.05,-2.03,-1.98
185.79,-0.04,1.93,-0.05,1.91,-1.95,-2.74,-2.13,-1.99,-2.00,-1.97
187.65,-0.03,1.93,-0.04,1.92,-1.93,-2.74,-2.13,-1.96,-1.97,-1.96
189.52,-0.01,1.94,-0.02,1.94,-1.94,-2.73,-2.13,-1.95,-1.96,-1.96
191.42,-0.00,1.95,0.01,1.96,-1.97,-2.73,-2.14,-1.97,-1.96,-1.96
193.33,0.05,2.00,0.05,2.00,-2.01,-2.73,-2.14,-1.97,-1.97,-1.95
195.27,0.11,2.06,0.11,2.06,-2.07,-2.73,-2.15,-1.96,-1.96,-1.95
197.22,0.18,2.14,0.17,2.13,-2.12,-2.72,-2.16,-1.94,-1.94,-1.97
199.19,0.24,2.20,0.22,2.19,-2.16,-2.72,-2.17,-1.93,-1.94,-1.97
201.18,0.26,2.23,0.26,2.23,-2.20,-2.71,-2.18,-1.95,-1.95,-1.98
203.19,0.27,2.25,0.27,2.25,-2.24,-2.71,-2.19,-1.97,-1.97,-1.99
205.23,0.27,2.26,0.27,2.26,-2.26,-2.70,-2.21,-2.00,-2.00,-2.00
207.28,0.27,2.27,0.27,2.27,-2.28,-2.70,-2.22,-2.02,-2.02,-2.01
209.35,0.27,2.28,0.26,2.28,-2.29,-2.70,-2.24,-2.03,-2.03,-2.02
211.44,0.26,2.29,0.26,2.29,-2.30,-2.69,-2.25,-2.04,-2.04,-2.04
213.56,0.26,2.30,0.26,2.30,-2.31,-2.69,-2.27,-2.05,-2.05,-2.04
215.69,0.26,2.32,0.25,2.31,-2.32,-2.68,-2.28,-2.06,-2.07,-2.06
217.85,0.25,2.32,0.25,2.32,-2.33,-2.67,-2.30,-2.08,-2.08,-2.07
220.03,0.25,2.34,0.25,2.33,-2.34,-2.67,-2.32,-2.09,-2.09,-2.09
222.23,0.25,2.34,0.25,2.34,-2.34,-2.66,-2.33,-2.09,-2.09,-2.10
224.45,0.25,2.35,0.25,2.36,-2.34,-2.66,-2.35,-2.09,-2.09,-2.10
226.70,0.25,2.36,0.24,2.35,-2.33,-2.65,-2.36,-2.09,-2.09,-2.11
228.96,0.24,2.35,0.22,2.33,-2.33,-2.65,-2.38,-2.09,-2.11,-2.12
231.25,0.18,2.29,0.19,2.31,-2.32,-2.64,-2.39,-2.14,-2.13,-2.12
233.57,0.17,2.29,0.17,2.29,-2.32,-2.64,-2.41,-2.15,-2.14,-2.12
235.90,0.18,2.29,0.17,2.29,-2.32,-2.63,-2.42,-2.14,-2.14,-2.12
238.26,0.20,2.31,0.19,2.30,-2.32,-2.63,-2.43,-2.12,-2.13,-2.11
240.64,0.21,2.31,0.20,2.31,-2.32,-2.62,-2.44,-2.11,-2.11,-2.10
243.05,0.22,2.31,0.22,2.32,-2.31,-2.62,-2.44,-2.10,-2.09,-2.10
245.48,0.24,2.33,0.25,2.34,-2.31,-2.61,-2.45,-2.07,-2.06,-2.09
247.93,0.27,2.35,0.25,2.33,-2.30,-2.61,-2.46,-2.03,-2.05,-2.09
250.41,0.26,2.34,0.22,2.30,-2.29,-2.60,-2.46,-2.03,-2.07,-2.08
252.92,0.15,2.22,0.18,2.26,-2.27,-2.60,-2.46,-2.13,-2.09,-2.08
255.45,0.13,2.21,0.14,2.22,-2.25,-2.59,-2.46,-2.12,-2.11,-2.08
258.00,0.13,2.21,0.12,2.21,-2.22,-2.59,-2.46,-2.09,-2.10,-2.09
260.58,0.13,2.22,0.12,2.21,-2.20,-2.58,-2.46,-2.07,-2.08,-2.09
263.19,0.12,2.21,0.09,2.19,-2.18,-2.58,-2.45,-2.06,-2.08,-2.09
265.82,0.05,2.14,0.06,2.16,-2.16,-2.57,-2.45,-2.12,-2.11,-2.10
268.48,0.02,2.12,0.03,2.13,-2.16,-2.57,-2.44,-2.14,-2.13,-2.10
271.16,0.03,2.13,0.03,2.14,-2.15,-2.57,-2.43,-2.12,-2.12,-2.11
273.87,0.05,2.16,0.04,2.16,-2.14,-2.56,-2.43,-2.10,-2.10,-2.11
276.61,0.08,2.19,0.05,2.16,-2.13,-2.56,-2.42,-2.06,-2.09,-2.11
279.38,0.03,2.14,0.04,2.15,-2.13,-2.56,-2.41,-2.10,-2.09,-2.12
282.17,0.02,2.13,0.03,2.14,-2.13,-2.55,-2.40,-2.11,-2.10,-2.11
284.99,0.03,2.13,0.02,2.13,-2.14,-2.55,-2.39,-2.11,-2.12,-2.10
287.84,0.04,2.14,0.03,2.13,-2.15,-2.55,-2.38,-2.12,-2.13,-2.11
290.72,0.05,2.14,0.04,2.14,-2.18,-2.55,-2.37,-2.13,-2.13,-2.10
293.63,0.06,2.15,0.08,2.17,-2.21,-2.55,-2.36,-2.15,-2.13,-2.09
296.57,0.15,2.23,0.14,2.23,-2.24,-2.54,-2.35,-2.10,-2.10,-2.09
299.53,0.22,2.30,0.21,2.30,-2.28,-2.54,-2.34,-2.06,-2.07,-2.09
302.53,0.29,2.37,0.27,2.36,-2.32,-2.54,-2.33,-2.03,-2.05,-2.08
305.55,0.31,2.39,0.30,2.39,-2.36,-2.54,-2.33,-2.05,-2.05,-2.08
308.61,0.32,2.40,0.32,2.40,-2.39,-2.54,-2.32,-2.07,-2.07,-2.08
311.69,0.32,2.40,0.32,2.41,-2.41,-2.54,-2.31,-2.10,-2.09,-2.09
314.81,0.33,2.42,0.32,2.42,-2.43,-2.54,-2.31,-2.10,-2.11,-2.10
317.96,0.33,2.43,0.33,2.43,-2.44,-2.54,-2.31,-2.11,-2.11,-2.10
321.14,0.33,2.44,0.33,2.44,-2.44,-2.54,-2.31,-2.12,-2.12,-2.11
324.35,0.33,2.44,0.33,2.44,-2.45,-2.54,-2.31,-2.12,-2.12,-2.12
327.59,0.33,2.45,0.33,2.45,-2.45,-2.54,-2.31,-2.13,-2.13,-2.13
330.87,0.33,2.46,0.33,2.46,-2.46,-2.54,-2.31,-2.13,-2.13,-2.14
334.18,0.33,2.48,0.32,2.47,-2.47,-2.54,-2.32,-2.14,-2.15,-2.15
337.52,0.32,2.48,0.32,2.48,-2.48,-2.55,-2.33,-2.16,-2.16,-2.16
340.90,0.32,2.48,0.32,2.48,-2.49,-2.55,-2.33,-2.17,-2.17,-2.16
344.30,0.32,2.49,0.31,2.49,-2.50,-2.55,-2.34,-2.18,-2.19,-2.18
347.75,0.32,2.51,0.32,2.51,-2.51,-2.55,-2.36,-2.20,-2.20,-2.20
351.23,0.32,2.52,0.32,2.53,-2.53,-2.56,-2.37,-2.21,-2.21,-2.21
354.74,0.33,2.55,0.33,2.55,-2.55,-2.56,-2.39,-2.22,-2.22,-2.22
358.28,0.34,2.57,0.34,2.57,-2.57,-2.56,-2.40,-2.23,-2.23,-2.23
361.87,0.36,2.60,0.35,2.59,-2.59,-2.57,-2.42,-2.23,-2.24,-2.24
365.49,0.35,2.61,0.35,2.61,-2.60,-2.57,-2.45,-2.26,-2.26,-2.26
369.14,0.35,2.62,0.35,2.63,-2.62,-2.57,-2.47,-2.28,-2.27,-2.28
372.83,0.36,2.64,0.35,2.64,-2.64,-2.58,-2.49,-2.29,-2.29,-2.29
376.56,0.36,2.65,0.36,2.66,-2.66,-2.58,-2.52,-2.30,-2.30,-2.30
380.33,0.37,2.67,0.37,2.67,-2.68,-2.59,-2.55,-2.31,-2.31,-2.31
384.13,0.38,2.70,0.37,2.69,-2.69,-2.59,-2.58,-2.32,-2.32,-2.32
387.97,0.38,2.71,0.38,2.71,-2.71,-2.60,-2.61,-2.33,-2.33,-2.33
391.85,0.39,2.73,0.38,2.72,-2.72,-2.60,-2.64,-2.34,-2.34,-2.34
395.77,0.39,2.74,0.39,2.74,-2.74,-2.61,-2.68,-2.35,-2.35,-2.35
399.73,0.39,2.75,0.39,2.75,-2.75,-2.61,-2.71,-2.36,-2.36,-2.36
403.72,0.39,2.76,0.38,2.76,-2.76,-2.62,-2.75,-2.37,-2.38,-2.37
407.76,0.38,2.77,0.38,2.77,-2.77,-2.63,-2.78,-2.39,-2.39,-2.40
411.84,0.38,2.78,0.38,2.78,-2.78,-2.63,-2.82,-2.40,-2.40,-2.41
415.96,0.38,2.79,0.37,2.79,-2.79,-2.64,-2.86,-2.42,-2.42,-2.42
420.12,0.38,2.79,0.37,2.79,-2.80,-2.65,-2.90,-2.43,-2.44,-2.42
424.32,0.38,2.80,0.38,2.81,-2.82,-2.65,-2.94,-2.44,-2.44,-2.43
428.56,0.39,2.81,0.41,2.83,-2.83,-2.66,-2.98,-2.45,-2.42,-2.43
432.85,0.46,2.88,0.43,2.86,-2.85,-2.67,-3.01,-2.39,-2.41,-2.42
437.18,0.48,2.89,0.46,2.87,-2.86,-2.67,-3.05,-2.39,-2.40,-2.41
441.55,0.48,2.87,0.49,2.88,-2.88,-2.68,-3.09,-2.41,-2.39,-2.39
445.96,0.52,2.89,0.52,2.89,-2.90,-2.69,-3.12,-2.39,-2.38,-2.37
450.42,0.57,2.91,0.56,2.90,-2.92,-2.70,-3.16,-2.36,-2.36,-2.34
454.93,0.63,2.93,0.63,2.93,-2.93,-2.70,-3.19,-2.31,-2.31,-2.30
459.48,0.69,2.95,0.69,2.96,-2.94,-2.71,-3.22,-2.26,-2.25,-2.26
464.07,0.75,2.98,0.74,2.97,-2.95,-2.72,-3.24,-2.20,-2.21,-2.23
468.71,0.80,2.99,0.78,2.97,-2.95,-2.73,-3.27,-2.16,-2.17,-2.19
473.40,0.81,2.96,0.81,2.97,-2.95,-2.73,-3.29,-2.15,-2.14,-2.15
478.13,0.83,2.94,0.84,2.95,-2.96,-2.74,-3.31,-2.13,-2.12,-2.12
482.91,0.87,2.95,0.87,2.95,-2.96,-2.75,-3.32,-2.10,-2.10,-2.09
487.74,0.91,2.96,0.90,2.95,-2.97,-2.76,-3.34,-2.07,-2.07,-2.06
492.62,0.94,2.97,0.93,2.96,-2.99,-2.76,-3.35,-2.05,-2.06,-2.04
497.55,0.96,2.97,0.97,2.99,-3.01,-2.77,-3.35,-2.06,-2.04,-2.02
