frequency,raw,error,smoothed,error_smoothed,equalization,parametric_eq,fixed_band_eq,equalized_raw,equalized_smoothed,target
20.00,-11.70,-12.60,-11.70,-12.59,6.00,5.63,2.77,-5.70,-5.70,0.90
20.20,-11.58,-12.48,-11.58,-12.48,6.00,5.67,2.85,-5.58,-5.58,0.90
20.40,-11.46,-12.37,-11.46,-12.37,6.00,5.70,2.93,-5.46,-5.46,0.91
20.61,-11.34,-12.26,-11.34,-12.25,6.00,5.74,3.02,-5.34,-5.34,0.92
20.81,-11.22,-12.14,-11.22,-12.14,6.00,5.77,3.11,-5.22,-5.22,0.92
21.02,-11.10,-12.03,-11.10,-12.02,6.00,5.81,3.20,-5.10,-5.10,0.93
21.23,-10.97,-11.90,-10.97,-11.90,6.00,5.84,3.29,-4.97,-4.97,0.93
21.44,-10.85,-11.78,-10.85,-11.79,6.00,5.87,3.39,-4.85,-4.85,0.94
21.66,-10.73,-11.68,-10.73,-11.67,6.00,5.90,3.49,-4.73,-4.73,0.95
21.87,-10.60,-11.54,-10.60,-11.55,6.00,5.93,3.59,-4.60,-4.60,0.95
22.09,-10.48,-11.43,-10.48,-11.43,6.00,5.96,3.69,-4.48,-4.48,0.96
22.31,-10.35,-11.31,-10.35,-11.31,6.00,5.98,3.80,-4.35,-4.35,0.97
22.54,-10.23,-11.20,-10.23,-11.20,6.00,6.01,3.91,-4.23,-4.23,0.97
22.76,-10.10,-11.08,-10.10,-11.08,6.00,6.04,4.03,-4.10,-4.10,0.98
22.99,-9.98,-10.97,-9.98,-10.96,6.00,6.06,4.14,-3.98,-3.98,0.99
23.22,-9.85,-10.85,-9.85,-10.85,6.00,6.08,4.26,-3.85,-3.85,1.00
23.45,-9.72,-10.73,-9.72,-10.73,6.00,6.10,4.38,-3.72,-3.72,1.01
23.69,-9.60,-10.62,-9.60,-10.61,6.00,6.12,4.51,-3.60,-3.60,1.02
23.92,-9.47,-10.49,-9.47,-10.50,6.00,6.14,4.63,-3.47,-3.47,1.03
24.16,-9.35,-10.39,-9.35,-10.38,6.00,6.16,4.76,-3.35,-3.35,1.04
24.40,-9.22,-10.26,-9.22,-10.27,6.00,6.17,4.90,-3.22,-3.22,1.05
24.65,-9.10,-10.17,-9.10,-10.16,6.00,6.19,5.03,-3.10,-3.10,1.07
24.89,-8.97,-10.04,-8.97,-10.05,6.00,6.20,5.17,-2.97,-2.97,1.08
25.14,-8.85,-9.93,-8.84,-9.93,6.00,6.21,5.31,-2.85,-2.84,1.09
25.39,-8.72,-9.81,-8.72,-9.82,6.00,6.22,5.44,-2.72,-2.72,1.10
25.65,-8.59,-9.70,-8.59,-9.70,6.00,6.23,5.58,-2.59,-2.59,1.11
25.91,-8.47,-9.60,-8.47,-9.59,6.00,6.24,5.73,-2.47,-2.47,1.13
26.16,-8.34,-9.47,-8.34,-9.48,6.00,6.24,5.87,-2.34,-2.34,1.14
26.43,-8.21,-9.36,-8.21,-9.36,6.00,6.25,6.01,-2.21,-2.21,1.15
26.69,-8.09,-9.25,-8.09,-9.24,6.00,6.25,6.15,-2.09,-2.09,1.16
26.96,-7.96,-9.14,-7.96,-9.13,6.00,6.25,6.28,-1.96,-1.96,1.18
27.23,-7.83,-9.02,-7.83,-9.02,6.00,6.25,6.42,-1.83,-1.83,1.19
27.50,-7.71,-8.92,-7.71,-8.91,6.00,6.25,6.55,-1.71,-1.71,1.21
27.77,-7.58,-8.79,-7.58,-8.80,6.00,6.24,6.68,-1.58,-1.58,1.22
28.05,-7.46,-8.70,-7.46,-8.69,6.00,6.24,6.80,-1.46,-1.46,1.24
28.33,-7.34,-8.59,-7.33,-8.58,6.00,6.23,6.92,-1.34,-1.33,1.25
28.62,-7.21,-8.48,-7.21,-8.48,6.00,6.22,7.03,-1.21,-1.21,1.27
28.90,-7.09,-8.37,-7.09,-8.37,6.00,6.21,7.13,-1.09,-1.09,1.28
29.19,-6.97,-8.27,-6.97,-8.26,6.00,6.20,7.23,-0.97,-0.97,1.30
29.48,-6.85,-8.16,-6.84,-8.15,6.00,6.18,7.31,-0.85,-0.84,1.31
29.78,-6.72,-8.05,-6.72,-8.05,6.00,6.17,7.38,-0.72,-0.72,1.33
30.08,-6.60,-7.94,-6.60,-7.94,6.00,6.15,7.45,-0.60,-0.60,1.34
30.38,-6.49,-7.85,-6.49,-7.84,6.00,6.13,7.50,-0.49,-0.49,1.36
30.68,-6.38,-7.75,-6.38,-7.75,6.00,6.11,7.53,-0.38,-0.38,1.37
30.99,-6.26,-7.65,-6.26,-7.65,6.00,6.09,7.56,-0.26,-0.26,1.39
31.30,-6.15,-7.55,-6.15,-7.55,6.00,6.06,7.57,-0.15,-0.15,1.40
31.61,-6.03,-7.45,-6.03,-7.45,6.00,6.04,7.56,-0.03,-0.03,1.42
31.93,-5.92,-7.35,-5.92,-7.35,6.00,6.01,7.55,0.08,0.08,1.43
32.24,-5.80,-7.24,-5.80,-7.25,6.00,5.98,7.52,0.20,0.20,1.45
32.57,-5.69,-7.15,-5.69,-7.15,6.00,5.96,7.48,0.31,0.31,1.46
32.89,-5.58,-7.06,-5.57,-7.05,6.00,5.92,7.42,0.42,0.43,1.48
33.22,-5.46,-6.95,-5.46,-6.95,6.00,5.89,7.36,0.54,0.54,1.49
33.55,-5.35,-6.86,-5.35,-6.85,6.00,5.86,7.28,0.65,0.65,1.51
33.89,-5.24,-6.76,-5.24,-6.76,6.00,5.82,7.20,0.76,0.76,1.52
34.23,-5.13,-6.67,-5.13,-6.66,6.00,5.79,7.10,0.87,0.87,1.54
34.57,-5.02,-6.57,-5.02,-6.57,6.01,5.75,7.00,0.99,0.99,1.55
34.92,-4.91,-6.47,-4.91,-6.47,6.02,5.71,6.89,1.10,1.10,1.56
35.27,-4.80,-6.38,-4.80,-6.37,6.02,5.67,6.78,1.22,1.22,1.58
35.62,-4.69,-6.28,-4.69,-6.28,6.01,5.62,6.66,1.32,1.32,1.59
35.97,-4.58,-6.18,-4.58,-6.18,6.00,5.58,6.54,1.42,1.42,1.60
36.33,-4.48,-6.09,-4.48,-6.08,5.97,5.54,6.41,1.49,1.50,1.61
36.70,-4.37,-5.99,-4.37,-5.99,5.93,5.49,6.28,1.56,1.56,1.62
37.06,-4.27,-5.89,-4.27,-5.89,5.87,5.44,6.15,1.60,1.61,1.63
37.43,-4.16,-5.79,-4.16,-5.80,5.80,5.40,6.02,1.64,1.64,1.64
37.81,-4.05,-5.70,-4.05,-5.70,5.71,5.35,5.89,1.66,1.66,1.65
38.19,-3.95,-5.61,-3.94,-5.60,5.62,5.30,5.76,1.67,1.68,1.66
38.57,-3.83,-5.50,-3.83,-5.50,5.51,5.24,5.63,1.68,1.68,1.67
38.95,-3.72,-5.39,-3.72,-5.40,5.41,5.19,5.50,1.69,1.68,1.68
39.34,-3.62,-5.31,-3.61,-5.30,5.30,5.14,5.37,1.68,1.69,1.69
39.74,-3.51,-5.21,-3.51,-5.20,5.20,5.08,5.25,1.69,1.69,1.70
40.14,-3.40,-5.10,-3.40,-5.10,5.10,5.03,5.12,1.70,1.70,1.70
40.54,-3.29,-5.00,-3.29,-5.00,5.00,4.97,5.00,1.71,1.71,1.71
40.94,-3.19,-4.91,-3.19,-4.90,4.90,4.91,4.89,1.71,1.72,1.72
41.35,-3.08,-4.81,-3.08,-4.81,4.81,4.86,4.77,1.73,1.72,1.73
41.76,-2.98,-4.71,-2.98,-4.71,4.71,4.80,4.66,1.73,1.73,1.74
42.18,-2.87,-4.62,-2.87,-4.62,4.62,4.74,4.55,1.75,1.75,1.75
42.60,-2.77,-4.53,-2.76,-4.52,4.52,4.68,4.44,1.76,1.76,1.76
43.03,-2.66,-4.43,-2.66,-4.43,4.44,4.62,4.34,1.78,1.77,1.77
43.46,-2.57,-4.35,-2.57,-4.35,4.35,4.56,4.24,1.78,1.78,1.78
43.90,-2.48,-4.27,-2.48,-4.27,4.27,4.49,4.14,1.79,1.79,1.79
44.33,-2.39,-4.20,-2.39,-4.19,4.19,4.43,4.04,1.80,1.80,1.81
44.78,-2.30,-4.12,-2.30,-4.12,4.12,4.37,3.95,1.82,1.82,1.82
45.23,-2.21,-4.04,-2.21,-4.04,4.04,4.30,3.87,1.83,1.83,1.83
45.68,-2.13,-3.98,-2.13,-3.97,3.97,4.24,3.78,1.84,1.84,1.85
46.13,-2.05,-3.91,-2.05,-3.91,3.91,4.17,3.70,1.86,1.86,1.86
46.60,-1.97,-3.85,-1.97,-3.84,3.84,4.11,3.62,1.87,1.87,1.88
47.06,-1.89,-3.78,-1.89,-3.78,3.78,4.04,3.54,1.89,1.89,1.89
47.53,-1.81,-3.72,-1.81,-3.71,3.72,3.97,3.47,1.91,1.91,1.91
48.01,-1.73,-3.65,-1.73,-3.65,3.66,3.90,3.40,1.93,1.92,1.92
48.49,-1.66,-3.60,-1.66,-3.59,3.60,3.84,3.33,1.94,1.94,1.94
48.97,-1.59,-3.54,-1.59,-3.54,3.54,3.77,3.26,1.95,1.95,1.95
49.46,-1.52,-3.49,-1.52,-3.48,3.48,3.70,3.20,1.96,1.96,1.97
49.96,-1.45,-3.43,-1.45,-3.42,3.42,3.63,3.14,1.97,1.97,1.98
50.46,-1.37,-3.36,-1.37,-3.36,3.36,3.56,3.08,1.99,1.99,1.99
50.96,-1.30,-3.31,-1.30,-3.30,3.30,3.49,3.02,2.00,2.00,2.01
51.47,-1.22,-3.24,-1.22,-3.23,3.24,3.42,2.97,2.02,2.02,2.02
51.99,-1.14,-3.17,-1.14,-3.17,3.18,3.35,2.91,2.04,2.03,2.03
52.51,-1.07,-3.11,-1.07,-3.11,3.11,3.28,2.86,2.04,2.04,2.04
53.03,-1.00,-3.05,-1.00,-3.05,3.05,3.21,2.81,2.05,2.05,2.05
53.56,-0.93,-3.00,-0.93,-2.99,2.99,3.14,2.76,2.06,2.06,2.07
54.10,-0.86,-2.94,-0.86,-2.93,2.92,3.07,2.72,2.06,2.07,2.08
54.64,-0.78,-2.87,-0.78,-2.87,2.86,3.00,2.67,2.08,2.08,2.09
55.18,-0.71,-2.80,-0.71,-2.80,2.80,2.93,2.62,2.09,2.10,2.09
55.74,-0.63,-2.73,-0.63,-2.73,2.74,2.86,2.58,2.11,2.11,2.10
56.29,-0.57,-2.68,-0.57,-2.67,2.68,2.79,2.53,2.11,2.11,2.11
56.86,-0.51,-2.62,-0.51,-2.62,2.62,2.72,2.49,2.11,2.11,2.11
57.42,-0.45,-2.57,-0.45,-2.56,2.56,2.64,2.45,2.11,2.11,2.12
58.00,-0.38,-2.50,-0.38,-2.50,2.50,2.57,2.40,2.12,2.11,2.12
58.58,-0.32,-2.45,-0.32,-2.44,2.44,2.50,2.36,2.12,2.12,2.13
59.16,-0.25,-2.38,-0.25,-2.38,2.38,2.43,2.31,2.13,2.13,2.13
59.76,-0.19,-2.32,-0.19,-2.32,2.32,2.36,2.27,2.13,2.13,2.13
60.35,-0.14,-2.27,-0.13,-2.26,2.27,2.29,2.23,2.13,2.13,2.13
60.96,-0.08,-2.21,-0.08,-2.21,2.21,2.22,2.18,2.13,2.13,2.13
61.57,-0.03,-2.16,-0.03,-2.16,2.16,2.15,2.13,2.13,2.13,2.13
62.18,0.02,-2.11,0.02,-2.11,2.10,2.07,2.09,2.12,2.12,2.13
62.80,0.07,-2.06,0.07,-2.05,2.05,2.00,2.04,2.12,2.12,2.13
63.43,0.12,-2.01,0.12,-2.00,2.00,1.93,1.99,2.12,2.12,2.13
64.07,0.18,-1.94,0.18,-1.94,1.95,1.86,1.94,2.13,2.12,2.12
64.71,0.23,-1.89,0.23,-1.89,1.89,1.79,1.89,2.12,2.12,2.12
65.35,0.28,-1.84,0.28,-1.83,1.84,1.72,1.84,2.12,2.12,2.12
66.01,0.33,-1.79,0.34,-1.78,1.78,1.65,1.78,2.11,2.11,2.12
66.67,0.40,-1.72,0.40,-1.72,1.72,1.58,1.73,2.12,2.11,2.12
67.33,0.46,-1.66,0.46,-1.66,1.66,1.51,1.68,2.12,2.11,2.12
68.01,0.52,-1.59,0.52,-1.59,1.59,1.44,1.62,2.11,2.11,2.11
68.69,0.58,-1.53,0.58,-1.52,1.52,1.37,1.56,2.10,2.11,2.11
69.37,0.65,-1.46,0.65,-1.45,1.45,1.30,1.51,2.10,2.10,2.11
70.07,0.73,-1.38,0.73,-1.38,1.38,1.23,1.45,2.11,2.10,2.11
70.77,0.80,-1.31,0.81,-1.30,1.30,1.17,1.39,2.10,2.11,2.11
71.48,0.89,-1.22,0.89,-1.22,1.22,1.10,1.33,2.11,2.11,2.11
72.19,0.97,-1.14,0.97,-1.14,1.14,1.03,1.27,2.11,2.11,2.11
72.91,1.06,-1.06,1.06,-1.05,1.05,0.96,1.21,2.11,2.11,2.12
73.64,1.15,-0.97,1.15,-0.97,0.97,0.90,1.15,2.12,2.12,2.12
74.38,1.25,-0.88,1.25,-0.88,0.88,0.83,1.09,2.13,2.13,2.13
75.12,1.34,-0.79,1.34,-0.79,0.79,0.77,1.03,2.13,2.13,2.13
75.87,1.43,-0.71,1.43,-0.70,0.70,0.70,0.97,2.14,2.14,2.14
76.63,1.53,-0.62,1.53,-0.62,0.62,0.64,0.91,2.15,2.15,2.15
77.40,1.62,-0.54,1.62,-0.53,0.53,0.57,0.85,2.15,2.16,2.16
78.17,1.72,-0.45,1.72,-0.45,0.45,0.51,0.78,2.17,2.16,2.17
78.95,1.81,-0.37,1.81,-0.37,0.36,0.44,0.72,2.17,2.17,2.18
79.74,1.90,-0.29,1.91,-0.28,0.28,0.38,0.66,2.18,2.19,2.19
80.54,2.00,-0.20,2.00,-0.20,0.20,0.32,0.60,2.20,2.20,2.20
81.35,2.09,-0.12,2.09,-0.12,0.12,0.26,0.53,2.21,2.21,2.21
82.16,2.17,-0.05,2.17,-0.05,0.05,0.20,0.47,2.22,2.22,2.22
82.98,2.25,0.02,2.25,0.02,-0.03,0.14,0.41,2.23,2.22,2.23
83.81,2.32,0.08,2.33,0.09,-0.10,0.08,0.35,2.22,2.23,2.24
84.65,2.41,0.16,2.40,0.16,-0.16,0.02,0.28,2.25,2.24,2.25
85.50,2.48,0.22,2.48,0.22,-0.23,-0.03,0.22,2.26,2.26,2.26
86.35,2.55,0.28,2.56,0.29,-0.28,-0.09,0.16,2.27,2.27,2.27
87.22,2.63,0.35,2.62,0.35,-0.34,-0.15,0.09,2.29,2.29,2.28
88.09,2.69,0.40,2.69,0.40,-0.39,-0.20,0.03,2.30,2.30,2.29
88.97,2.74,0.43,2.74,0.44,-0.44,-0.25,-0.03,2.30,2.30,2.31
89.86,2.79,0.47,2.80,0.48,-0.48,-0.31,-0.10,2.31,2.31,2.32
90.76,2.85,0.52,2.85,0.52,-0.53,-0.36,-0.16,2.32,2.32,2.33
91.66,2.91,0.56,2.91,0.56,-0.57,-0.41,-0.22,2.34,2.34,2.35
92.58,2.96,0.60,2.97,0.61,-0.61,-0.46,-0.29,2.35,2.36,2.36
93.51,3.02,0.65,3.02,0.65,-0.65,-0.51,-0.35,2.37,2.37,2.37
94.44,3.08,0.69,3.08,0.69,-0.69,-0.56,-0.42,2.39,2.39,2.39
95.39,3.13,0.73,3.13,0.73,-0.73,-0.60,-0.48,2.40,2.40,2.40
96.34,3.18,0.76,3.18,0.76,-0.77,-0.65,-0.55,2.41,2.41,2.42
97.30,3.22,0.79,3.22,0.80,-0.80,-0.69,-0.61,2.42,2.42,2.43
98.28,3.26,0.82,3.27,0.83,-0.83,-0.73,-0.67,2.43,2.44,2.44
99.26,3.31,0.86,3.31,0.86,-0.85,-0.77,-0.74,2.46,2.46,2.45
100.25,3.35,0.88,3.35,0.88,-0.87,-0.81,-0.80,2.48,2.48,2.47
101.25,3.37,0.89,3.37,0.89,-0.88,-0.85,-0.86,2.49,2.49,2.48
102.27,3.38,0.89,3.38,0.90,-0.90,-0.89,-0.93,2.49,2.49,2.49
103.29,3.39,0.90,3.39,0.90,-0.91,-0.93,-0.99,2.48,2.49,2.49
104.32,3.40,0.90,3.40,0.91,-0.91,-0.96,-1.05,2.49,2.49,2.50
105.37,3.42,0.91,3.42,0.92,-0.92,-0.99,-1.11,2.50,2.50,2.51
106.42,3.44,0.93,3.44,0.93,-0.93,-1.03,-1.16,2.51,2.51,2.51
107.48,3.46,0.95,3.46,0.95,-0.95,-1.06,-1.22,2.51,2.51,2.51
108.56,3.48,0.97,3.48,0.97,-0.97,-1.08,-1.27,2.51,2.51,2.51
109.64,3.49,0.98,3.50,0.99,-1.00,-1.11,-1.33,2.49,2.50,2.51
110.74,3.52,1.01,3.52,1.02,-1.03,-1.14,-1.38,2.49,2.50,2.51
111.85,3.56,1.05,3.56,1.05,-1.06,-1.16,-1.42,2.50,2.50,2.51
112.97,3.59,1.09,3.59,1.09,-1.09,-1.18,-1.47,2.50,2.50,2.50
114.10,3.63,1.13,3.63,1.13,-1.13,-1.20,-1.51,2.50,2.50,2.50
115.24,3.66,1.17,3.66,1.17,-1.17,-1.22,-1.55,2.49,2.49,2.49
116.39,3.68,1.19,3.68,1.20,-1.20,-1.24,-1.58,2.48,2.48,2.49
117.55,3.71,1.23,3.71,1.23,-1.23,-1.26,-1.61,2.48,2.48,2.48
118.73,3.73,1.25,3.74,1.26,-1.26,-1.27,-1.64,2.47,2.48,2.48
119.92,3.76,1.29,3.76,1.29,-1.28,-1.28,-1.66,2.48,2.48,2.47
121.12,3.77,1.30,3.77,1.30,-1.29,-1.29,-1.68,2.48,2.48,2.47
122.33,3.77,1.30,3.77,1.31,-1.30,-1.30,-1.69,2.47,2.47,2.47
123.55,3.77,1.30,3.77,1.30,-1.31,-1.31,-1.70,2.47,2.46,2.47
124.79,3.76,1.29,3.76,1.30,-1.31,-1.31,-1.70,2.45,2.46,2.47
126.03,3.76,1.29,3.76,1.30,-1.31,-1.32,-1.70,2.45,2.45,2.47
127.29,3.77,1.30,3.77,1.30,-1.31,-1.32,-1.69,2.46,2.46,2.47
128.57,3.77,1.30,3.77,1.30,-1.31,-1.32,-1.68,2.47,2.47,2.47
129.85,3.77,1.30,3.77,1.31,-1.30,-1.32,-1.67,2.47,2.47,2.47
131.15,3.77,1.30,3.77,1.30,-1.29,-1.31,-1.65,2.48,2.48,2.47
132.46,3.76,1.29,3.76,1.29,-1.28,-1.31,-1.62,2.48,2.48,2.47
133.79,3.74,1.26,3.74,1.27,-1.27,-1.30,-1.59,2.47,2.48,2.48
135.12,3.72,1.24,3.72,1.24,-1.25,-1.29,-1.56,2.47,2.47,2.48
136.48,3.70,1.22,3.70,1.22,-1.22,-1.28,-1.53,2.48,2.48,2.48
137.84,3.66,1.18,3.67,1.19,-1.19,-1.27,-1.49,2.47,2.48,2.48
139.22,3.64,1.16,3.64,1.16,-1.15,-1.25,-1.44,2.49,2.49,2.48
140.61,3.61,1.13,3.60,1.12,-1.12,-1.24,-1.40,2.49,2.49,2.48
142.02,3.56,1.07,3.57,1.08,-1.08,-1.22,-1.35,2.48,2.48,2.49
143.44,3.53,1.04,3.53,1.04,-1.05,-1.20,-1.30,2.48,2.48,2.49
144.87,3.49,1.00,3.50,1.01,-1.02,-1.18,-1.24,2.47,2.47,2.49
146.32,3.48,1.00,3.47,0.99,-1.00,-1.16,-1.19,2.48,2.47,2.48
147.78,3.45,0.97,3.45,0.98,-0.98,-1.13,-1.13,2.47,2.47,2.48
149.26,3.44,0.96,3.44,0.96,-0.97,-1.11,-1.07,2.47,2.47,2.48
150.75,3.43,0.95,3.43,0.95,-0.96,-1.08,-1.01,2.47,2.47,2.48
152.26,3.42,0.94,3.43,0.95,-0.95,-1.05,-0.95,2.47,2.48,2.48
153.78,3.42,0.95,3.42,0.95,-0.94,-1.02,-0.89,2.48,2.47,2.47
155.32,3.41,0.94,3.41,0.94,-0.93,-0.99,-0.82,2.48,2.47,2.47
156.88,3.39,0.92,3.40,0.93,-0.92,-0.96,-0.76,2.47,2.47,2.47
158.44,3.38,0.91,3.38,0.91,-0.91,-0.92,-0.69,2.47,2.46,2.47
160.03,3.35,0.89,3.36,0.90,-0.90,-0.89,-0.63,2.46,2.46,2.46
161.63,3.33,0.87,3.33,0.88,-0.88,-0.85,-0.56,2.46,2.46,2.46
163.24,3.31,0.86,3.30,0.85,-0.85,-0.81,-0.50,2.46,2.45,2.45
164.88,3.26,0.81,3.27,0.82,-0.82,-0.77,-0.43,2.44,2.44,2.45
166.53,3.22,0.78,3.23,0.79,-0.79,-0.73,-0.37,2.43,2.44,2.44
168.19,3.19,0.76,3.18,0.75,-0.75,-0.68,-0.30,2.44,2.43,2.43
169.87,3.14,0.72,3.14,0.72,-0.72,-0.64,-0.23,2.42,2.42,2.42
171.57,3.08,0.67,3.09,0.68,-0.68,-0.60,-0.17,2.40,2.41,2.41
173.29,3.04,0.64,3.03,0.63,-0.64,-0.55,-0.10,2.40,2.39,2.40
175.02,2.96,0.57,2.97,0.59,-0.60,-0.50,-0.03,2.36,2.37,2.39
176.77,2.92,0.55,2.92,0.55,-0.56,-0.45,0.03,2.36,2.36,2.37
178.54,2.86,0.50,2.86,0.51,-0.51,-0.40,0.10,2.35,2.35,2.36
180.32,2.81,0.47,2.81,0.47,-0.46,-0.35,0.16,2.35,2.35,2.34
182.13,2.76,0.43,2.75,0.42,-0.41,-0.30,0.23,2.35,2.33,2.33
183.95,2.67,0.36,2.68,0.37,-0.36,-0.25,0.30,2.31,2.32,2.31
185.79,2.60,0.31,2.60,0.31,-0.31,-0.19,0.36,2.29,2.29,2.29
187.65,2.52,0.24,2.52,0.25,-0.25,-0.14,0.43,2.27,2.27,2.28
189.52,2.44,0.18,2.44,0.19,-0.19,-0.08,0.49,2.25,2.25,2.26
191.42,2.36,0.12,2.36,0.12,-0.13,-0.03,0.56,2.23,2.23,2.24
193.33,2.28,0.06,2.29,0.07,-0.06,0.03,0.62,2.22,2.22,2.22
195.27,2.21,0.00,2.21,0.00,0.00,0.09,0.69,2.21,2.21,2.21
197.22,2.13,-0.06,2.12,-0.06,0.07,0.14,0.75,2.20,2.19,2.19
199.19,2.03,-0.14,2.04,-0.13,0.13,0.20,0.82,2.16,2.17,2.17
201.18,1.94,-0.20,1.94,-0.20,0.20,0.26,0.88,2.14,2.14,2.14
203.19,1.85,-0.27,1.85,-0.27,0.27,0.32,0.95,2.12,2.12,2.12
205.23,1.76,-0.34,1.76,-0.34,0.34,0.38,1.01,2.10,2.10,2.10
207.28,1.67,-0.41,1.67,-0.41,0.40,0.44,1.07,2.08,2.07,2.08
209.35,1.58,-0.48,1.58,-0.47,0.47,0.50,1.13,2.05,2.05,2.06
211.44,1.49,-0.54,1.49,-0.54,0.53,0.56,1.19,2.02,2.03,2.03
213.56,1.41,-0.60,1.41,-0.60,0.59,0.62,1.25,2.00,2.00,2.01
215.69,1.32,-0.66,1.32,-0.66,0.65,0.68,1.31,1.97,1.97,1.98
217.85,1.23,-0.72,1.24,-0.71,0.71,0.74,1.36,1.94,1.95,1.95
220.03,1.16,-0.77,1.16,-0.77,0.77,0.80,1.42,1.93,1.93,1.93
222.23,1.09,-0.82,1.08,-0.82,0.83,0.86,1.47,1.92,1.91,1.91
224.45,1.00,-0.88,1.00,-0.88,0.89,0.92,1.52,1.89,1.89,1.88
226.70,0.91,-0.95,0.91,-0.95,0.95,0.98,1.57,1.86,1.86,1.86
228.96,0.81,-1.03,0.83,-1.01,1.01,1.04,1.61,1.82,1.83,1.84
231.25,0.75,-1.07,0.74,-1.08,1.07,1.10,1.65,1.82,1.81,1.82
233.57,0.68,-1.13,0.67,-1.13,1.13,1.16,1.69,1.81,1.80,1.81
235.90,0.59,-1.20,0.60,-1.19,1.19,1.22,1.73,1.78,1.79,1.79
238.26,0.54,-1.24,0.53,-1.25,1.25,1.28,1.76,1.79,1.78,1.78
240.64,0.46,-1.31,0.46,-1.30,1.30,1.33,1.79,1.76,1.77,1.77
243.05,0.40,-1.36,0.40,-1.36,1.36,1.39,1.82,1.76,1.76,1.76
245.48,0.33,-1.42,0.33,-1.42,1.41,1.44,1.84,1.75,1.75,1.75
247.93,0.26,-1.48,0.27,-1.47,1.47,1.50,1.86,1.73,1.74,1.74
250.41,0.21,-1.52,0.20,-1.53,1.53,1.55,1.88,1.74,1.73,1.73
252.92,0.13,-1.59,0.14,-1.58,1.58,1.60,1.89,1.71,1.72,1.72
255.45,0.07,-1.64,0.07,-1.64,1.64,1.65,1.90,1.71,1.71,1.71
258.00,0.01,-1.69,0.01,-1.69,1.69,1.70,1.90,1.70,1.70,1.70
260.58,-0.06,-1.76,-0.05,-1.75,1.75,1.74,1.91,1.69,1.69,1.70
263.19,-0.11,-1.80,-0.12,-1.80,1.80,1.79,1.90,1.69,1.68,1.69
265.82,-0.18,-1.86,-0.18,-1.85,1.85,1.83,1.90,1.67,1.68,1.68
268.48,-0.24,-1.91,-0.23,-1.90,1.91,1.88,1.89,1.67,1.67,1.67
271.16,-0.29,-1.95,-0.30,-1.95,1.96,1.92,1.88,1.67,1.66,1.66
273.87,-0.36,-2.01,-0.36,-2.00,2.01,1.95,1.87,1.65,1.65,1.65
276.61,-0.42,-2.06,-0.42,-2.06,2.06,1.99,1.86,1.64,1.64,1.64
279.38,-0.48,-2.11,-0.48,-2.10,2.10,2.02,1.84,1.62,1.63,1.63
282.17,-0.53,-2.15,-0.53,-2.14,2.15,2.06,1.82,1.62,1.62,1.62
284.99,-0.57,-2.18,-0.58,-2.19,2.18,2.09,1.80,1.61,1.60,1.61
287.84,-0.63,-2.23,-0.63,-2.22,2.21,2.12,1.78,1.59,1.59,1.60
290.72,-0.67,-2.26,-0.67,-2.25,2.24,2.14,1.75,1.57,1.57,1.59
293.63,-0.70,-2.28,-0.70,-2.27,2.26,2.16,1.73,1.56,1.57,1.58
296.57,-0.71,-2.28,-0.71,-2.28,2.28,2.19,1.71,1.57,1.57,1.57
299.53,-0.73,-2.29,-0.73,-2.29,2.30,2.21,1.68,1.57,1.57,1.56
302.53,-0.75,-2.30,-0.75,-2.30,2.31,2.22,1.66,1.56,1.56,1.55
305.55,-0.78,-2.31,-0.78,-2.31,2.32,2.24,1.63,1.54,1.54,1.53
308.61,-0.82,-2.34,-0.82,-2.33,2.33,2.25,1.60,1.51,1.51,1.52
311.69,-0.85,-2.36,-0.84,-2.35,2.34,2.26,1.58,1.49,1.50,1.51
314.81,-0.87,-2.36,-0.87,-2.36,2.36,2.27,1.55,1.49,1.49,1.49
317.96,-0.89,-2.37,-0.89,-2.37,2.37,2.27,1.53,1.48,1.48,1.48
321.14,-0.92,-2.38,-0.92,-2.38,2.39,2.28,1.50,1.47,1.47,1.46
324.35,-0.95,-2.40,-0.95,-2.40,2.40,2.28,1.48,1.45,1.45,1.45
327.59,-0.99,-2.42,-0.98,-2.41,2.42,2.28,1.46,1.43,1.43,1.43
330.87,-1.01,-2.43,-1.01,-2.43,2.43,2.28,1.44,1.42,1.42,1.42
334.18,-1.04,-2.44,-1.04,-2.44,2.44,2.27,1.41,1.40,1.40,1.40
337.52,-1.08,-2.47,-1.07,-2.46,2.45,2.26,1.39,1.38,1.38,1.39
340.90,-1.09,-2.46,-1.10,-2.47,2.46,2.25,1.37,1.37,1.36,1.37
344.30,-1.12,-2.48,-1.12,-2.47,2.46,2.24,1.36,1.34,1.34,1.36
347.75,-1.13,-2.47,-1.13,-2.46,2.45,2.23,1.34,1.32,1.33,1.34
351.23,-1.13,-2.45,-1.13,-2.45,2.44,2.22,1.32,1.31,1.31,1.32
354.74,-1.13,-2.44,-1.13,-2.43,2.43,2.20,1.31,1.30,1.30,1.31
358.28,-1.12,-2.41,-1.12,-2.41,2.41,2.18,1.29,1.29,1.29,1.29
361.87,-1.11,-2.38,-1.11,-2.38,2.39,2.16,1.28,1.29,1.28,1.27
365.49,-1.11,-2.37,-1.11,-2.36,2.38,2.14,1.27,1.27,1.27,1.26
369.14,-1.11,-2.35,-1.11,-2.35,2.36,2.12,1.26,1.25,1.25,1.24
372.83,-1.12,-2.35,-1.12,-2.34,2.34,2.10,1.25,1.23,1.22,1.23
376.56,-1.13,-2.34,-1.13,-2.34,2.33,2.07,1.24,1.20,1.20,1.21
380.33,-1.14,-2.33,-1.13,-2.32,2.32,2.05,1.23,1.18,1.18,1.19
384.13,-1.13,-2.31,-1.13,-2.30,2.30,2.02,1.22,1.17,1.17,1.18
387.97,-1.12,-2.28,-1.12,-2.28,2.29,1.99,1.22,1.17,1.16,1.16
391.85,-1.11,-2.26,-1.11,-2.26,2.26,1.96,1.21,1.15,1.15,1.15
395.77,-1.10,-2.24,-1.10,-2.23,2.23,1.93,1.21,1.14,1.14,1.14
399.73,-1.08,-2.21,-1.08,-2.21,2.20,1.90,1.20,1.12,1.12,1.13
403.72,-1.06,-2.18,-1.06,-2.17,2.16,1.86,1.20,1.10,1.11,1.12
407.76,-1.02,-2.13,-1.02,-2.12,2.12,1.83,1.20,1.10,1.10,1.11
411.84,-0.98,-2.07,-0.98,-2.07,2.07,1.80,1.19,1.09,1.09,1.09
415.96,-0.93,-2.01,-0.93,-2.01,2.01,1.76,1.19,1.08,1.08,1.08
420.12,-0.88,-1.95,-0.88,-1.95,1.95,1.72,1.19,1.07,1.07,1.07
424.32,-0.83,-1.89,-0.83,-1.89,1.88,1.69,1.19,1.06,1.05,1.06
428.56,-0.78,-1.83,-0.77,-1.82,1.81,1.65,1.19,1.04,1.04,1.05
432.85,-0.72,-1.75,-0.71,-1.74,1.74,1.61,1.19,1.02,1.03,1.03
437.18,-0.64,-1.66,-0.65,-1.67,1.67,1.57,1.19,1.03,1.02,1.02
441.55,-0.59,-1.60,-0.59,-1.59,1.60,1.52,1.19,1.01,1.01,1.01
445.96,-0.53,-1.52,-0.53,-1.52,1.52,1.48,1.19,0.99,0.99,0.99
450.42,-0.47,-1.44,-0.47,-1.44,1.44,1.43,1.19,0.97,0.97,0.97
454.93,-0.42,-1.38,-0.42,-1.37,1.36,1.39,1.19,0.94,0.95,0.96
459.48,-0.36,-1.30,-0.36,-1.30,1.29,1.34,1.19,0.93,0.93,0.94
464.07,-0.30,-1.22,-0.30,-1.22,1.21,1.29,1.19,0.91,0.91,0.92
468.71,-0.24,-1.14,-0.23,-1.13,1.14,1.24,1.19,0.90,0.90,0.90
473.40,-0.17,-1.06,-0.17,-1.06,1.07,1.18,1.18,0.90,0.89,0.89
478.13,-0.11,-0.98,-0.12,-0.98,1.00,1.12,1.18,0.89,0.88,0.87
482.91,-0.07,-0.93,-0.07,-0.92,0.93,1.06,1.18,0.86,0.86,0.86
487.74,-0.03,-0.87,-0.03,-0.87,0.87,1.00,1.17,0.84,0.84,0.84
492.62,0.01,-0.82,0.01,-0.81,0.81,0.93,1.17,0.82,0.82,0.83
497.55,0.06,-0.76,0.06,-0.76,0.75,0.85,1.16,0.81,0.81,0.82
502.52,0.11,-0.70,0.11,-0.70,0.70,0.78,1.15,0.81,0.80,0.81
507.55,0.15,-0.65,0.15,-0.64,0.64,0.70,1.14,0.79,0.79,0.80
512.62,0.19,-0.59,0.19,-0.59,0.58,0.62,1.13,0.77,0.77,0.78
517.75,0.23,-0.54,0.23,-0.53,0.52,0.54,1.12,0.75,0.76,0.77
522.93,0.28,-0.47,0.28,-0.46,0.46,0.45,1.11,0.74,0.74,0.75
