frequency,raw,error,smoothed,error_smoothed,equalization,parametric_eq,fixed_band_eq,equalized_raw,equalized_smoothed,target
20.00,12.81,4.13,12.81,4.13,-4.13,-3.85,-1.84,8.68,8.68,8.68
20.20,12.80,4.15,12.80,4.15,-4.15,-3.85,-1.89,8.65,8.65,8.65
20.40,12.80,4.17,12.79,4.17,-4.17,-3.85,-1.94,8.63,8.63,8.62
20.61,12.79,4.18,12.79,4.18,-4.19,-3.85,-2.00,8.60,8.60,8.61
20.81,12.78,4.19,12.78,4.20,-4.20,-3.85,-2.06,8.58,8.58,8.58
21.02,12.77,4.20,12.77,4.21,-4.21,-3.85,-2.12,8.56,8.56,8.56
21.23,12.77,4.23,12.77,4.22,-4.22,-3.85,-2.18,8.54,8.54,8.54
21.44,12.76,4.24,12.76,4.23,-4.23,-3.85,-2.25,8.52,8.52,8.52
21.66,12.75,4.25,12.75,4.24,-4.24,-3.85,-2.31,8.51,8.51,8.50
21.87,12.74,4.25,12.74,4.25,-4.25,-3.85,-2.38,8.49,8.49,8.49
22.09,12.73,4.26,12.73,4.26,-4.25,-3.85,-2.45,8.48,8.48,8.47
22.31,12.72,4.26,12.72,4.26,-4.26,-3.85,-2.52,8.46,8.46,8.46
22.54,12.71,4.26,12.71,4.26,-4.26,-3.85,-2.59,8.45,8.45,8.45
22.76,12.69,4.25,12.69,4.25,-4.26,-3.85,-2.67,8.43,8.44,8.44
22.99,12.68,4.25,12.68,4.25,-4.25,-3.85,-2.74,8.43,8.43,8.43
23.22,12.67,4.25,12.67,4.25,-4.25,-3.85,-2.82,8.42,8.42,8.42
23.45,12.66,4.25,12.66,4.25,-4.25,-3.85,-2.90,8.41,8.41,8.41
23.69,12.64,4.24,12.64,4.24,-4.24,-3.85,-2.98,8.40,8.40,8.40
23.92,12.63,4.23,12.63,4.24,-4.24,-3.85,-3.07,8.39,8.39,8.40
24.16,12.62,4.23,12.62,4.23,-4.23,-3.85,-3.15,8.39,8.38,8.38
24.40,12.61,4.22,12.61,4.23,-4.23,-3.85,-3.24,8.38,8.38,8.38
24.65,12.60,4.23,12.60,4.22,-4.22,-3.85,-3.33,8.38,8.37,8.37
24.89,12.59,4.22,12.58,4.22,-4.22,-3.85,-3.41,8.37,8.37,8.37
25.14,12.57,4.21,12.57,4.21,-4.21,-3.85,-3.50,8.36,8.36,8.36
25.39,12.56,4.21,12.56,4.21,-4.21,-3.85,-3.59,8.35,8.35,8.35
25.65,12.55,4.20,12.55,4.20,-4.20,-3.85,-3.68,8.35,8.35,8.35
25.91,12.54,4.20,12.54,4.20,-4.19,-3.85,-3.77,8.34,8.34,8.34
26.16,12.53,4.19,12.53,4.19,-4.19,-3.85,-3.86,8.34,8.34,8.34
26.43,12.51,4.17,12.51,4.18,-4.18,-3.85,-3.95,8.33,8.33,8.34
26.69,12.50,4.17,12.50,4.17,-4.18,-3.85,-4.04,8.32,8.32,8.32
26.96,12.49,4.17,12.49,4.17,-4.17,-3.85,-4.13,8.32,8.32,8.32
27.23,12.48,4.17,12.48,4.16,-4.16,-3.85,-4.21,8.32,8.32,8.31
27.50,12.47,4.16,12.47,4.16,-4.16,-3.85,-4.30,8.31,8.31,8.31
27.77,12.46,4.15,12.46,4.15,-4.15,-3.85,-4.37,8.31,8.31,8.31
28.05,12.44,4.14,12.44,4.14,-4.14,-3.85,-4.45,8.30,8.30,8.30
28.33,12.43,4.13,12.43,4.13,-4.13,-3.85,-4.53,8.29,8.29,8.30
28.62,12.42,4.12,12.42,4.13,-4.13,-3.85,-4.60,8.29,8.29,8.29
28.90,12.41,4.13,12.41,4.12,-4.12,-3.85,-4.66,8.29,8.29,8.28
29.19,12.40,4.12,12.40,4.11,-4.11,-3.85,-4.72,8.29,8.28,8.28
29.48,12.38,4.10,12.38,4.10,-4.10,-3.85,-4.77,8.27,8.28,8.28
29.78,12.37,4.09,12.37,4.09,-4.10,-3.85,-4.82,8.27,8.27,8.28
30.08,12.36,4.08,12.36,4.09,-4.09,-3.85,-4.86,8.27,8.27,8.28
30.38,12.35,4.08,12.35,4.08,-4.08,-3.85,-4.90,8.27,8.27,8.26
30.68,12.34,4.08,12.34,4.07,-4.07,-3.85,-4.93,8.27,8.27,8.26
30.99,12.33,4.07,12.33,4.07,-4.07,-3.85,-4.95,8.26,8.26,8.26
31.30,12.31,4.05,12.31,4.06,-4.06,-3.85,-4.96,8.25,8.25,8.26
31.61,12.30,4.05,12.30,4.05,-4.05,-3.85,-4.97,8.25,8.25,8.25
31.93,12.29,4.05,12.29,4.05,-4.05,-3.85,-4.97,8.24,8.24,8.24
32.24,12.28,4.04,12.28,4.04,-4.04,-3.85,-4.97,8.24,8.24,8.24
32.57,12.27,4.04,12.27,4.03,-4.03,-3.85,-4.95,8.24,8.23,8.23
32.89,12.25,4.02,12.25,4.03,-4.03,-3.85,-4.94,8.22,8.23,8.23
33.22,12.24,4.02,12.24,4.02,-4.02,-3.85,-4.91,8.22,8.22,8.22
33.55,12.23,4.02,12.23,4.01,-4.01,-3.85,-4.88,8.22,8.21,8.21
33.89,12.22,4.01,12.22,4.01,-4.01,-3.85,-4.84,8.21,8.21,8.21
34.23,12.20,3.99,12.20,4.00,-4.00,-3.85,-4.80,8.20,8.20,8.20
34.57,12.19,4.00,12.19,3.99,-4.00,-3.85,-4.76,8.19,8.19,8.19
34.92,12.18,3.99,12.18,3.99,-3.99,-3.85,-4.71,8.18,8.18,8.19
35.27,12.17,3.98,12.17,3.99,-3.99,-3.85,-4.66,8.17,8.18,8.18
35.62,12.17,4.00,12.17,3.99,-4.00,-3.85,-4.60,8.17,8.17,8.17
35.97,12.16,3.99,12.16,4.00,-4.00,-3.85,-4.55,8.16,8.16,8.17
36.33,12.17,4.00,12.17,4.00,-4.00,-3.85,-4.49,8.16,8.16,8.16
36.70,12.17,4.01,12.17,4.01,-4.01,-3.85,-4.43,8.16,8.16,8.16
37.06,12.17,4.01,12.17,4.01,-4.01,-3.85,-4.37,8.16,8.16,8.16
37.43,12.16,4.02,12.16,4.01,-4.01,-3.84,-4.31,8.15,8.15,8.14
37.81,12.15,4.01,12.15,4.01,-4.01,-3.84,-4.25,8.14,8.14,8.14
38.19,12.14,4.01,12.14,4.01,-4.00,-3.84,-4.19,8.14,8.13,8.13
38.57,12.12,4.00,12.12,3.99,-3.99,-3.84,-4.13,8.12,8.12,8.12
38.95,12.09,3.98,12.09,3.98,-3.98,-3.84,-4.07,8.11,8.11,8.11
39.34,12.06,3.96,12.06,3.96,-3.97,-3.84,-4.01,8.09,8.09,8.10
39.74,12.04,3.95,12.04,3.95,-3.95,-3.84,-3.95,8.08,8.08,8.09
40.14,12.02,3.94,12.02,3.94,-3.94,-3.84,-3.90,8.08,8.08,8.08
40.54,11.99,3.92,11.99,3.92,-3.91,-3.84,-3.85,8.07,8.08,8.07
40.94,11.97,3.90,11.96,3.90,-3.89,-3.83,-3.80,8.08,8.07,8.07
41.35,11.93,3.87,11.93,3.87,-3.87,-3.83,-3.75,8.06,8.06,8.06
41.76,11.90,3.84,11.89,3.84,-3.84,-3.83,-3.70,8.06,8.05,8.05
42.18,11.85,3.80,11.85,3.81,-3.81,-3.83,-3.66,8.04,8.04,8.05
42.60,11.82,3.78,11.82,3.77,-3.78,-3.83,-3.62,8.04,8.04,8.04
43.03,11.79,3.75,11.78,3.74,-3.75,-3.83,-3.58,8.04,8.04,8.04
43.46,11.75,3.71,11.75,3.72,-3.72,-3.82,-3.54,8.03,8.03,8.04
43.90,11.72,3.69,11.72,3.69,-3.69,-3.82,-3.51,8.03,8.03,8.03
44.33,11.68,3.66,11.68,3.66,-3.66,-3.82,-3.48,8.02,8.02,8.02
44.78,11.64,3.63,11.64,3.63,-3.63,-3.82,-3.45,8.01,8.01,8.01
45.23,11.60,3.59,11.60,3.60,-3.60,-3.81,-3.43,8.00,8.01,8.00
45.68,11.57,3.57,11.56,3.57,-3.56,-3.81,-3.41,8.01,8.00,8.00
46.13,11.52,3.53,11.52,3.53,-3.52,-3.81,-3.39,7.99,7.99,7.99
46.60,11.47,3.49,11.47,3.49,-3.48,-3.81,-3.37,7.99,7.98,7.98
47.06,11.41,3.44,11.41,3.44,-3.44,-3.80,-3.35,7.97,7.97,7.97
47.53,11.35,3.40,11.35,3.40,-3.40,-3.80,-3.34,7.95,7.95,7.95
48.01,11.29,3.35,11.29,3.35,-3.35,-3.80,-3.33,7.94,7.93,7.94
48.49,11.23,3.30,11.23,3.31,-3.31,-3.79,-3.32,7.92,7.92,7.93
48.97,11.18,3.26,11.18,3.26,-3.26,-3.79,-3.32,7.91,7.91,7.92
49.46,11.13,3.22,11.13,3.22,-3.22,-3.79,-3.32,7.91,7.91,7.90
49.96,11.08,3.19,11.08,3.19,-3.18,-3.78,-3.31,7.90,7.90,7.89
50.46,11.04,3.16,11.03,3.15,-3.15,-3.78,-3.32,7.89,7.88,7.88
50.96,10.99,3.12,10.99,3.12,-3.12,-3.77,-3.32,7.87,7.87,7.87
51.47,10.95,3.08,10.95,3.09,-3.10,-3.77,-3.32,7.85,7.85,7.87
51.99,10.92,3.07,10.92,3.07,-3.08,-3.77,-3.33,7.84,7.84,7.85
52.51,10.89,3.05,10.89,3.06,-3.06,-3.76,-3.33,7.83,7.83,7.84
53.03,10.88,3.06,10.88,3.05,-3.05,-3.76,-3.34,7.83,7.83,7.82
53.56,10.87,3.06,10.86,3.05,-3.04,-3.75,-3.35,7.82,7.82,7.81
54.10,10.85,3.05,10.85,3.05,-3.05,-3.75,-3.36,7.80,7.80,7.80
54.64,10.83,3.04,10.84,3.05,-3.05,-3.74,-3.37,7.78,7.78,7.79
55.18,10.83,3.06,10.83,3.05,-3.06,-3.73,-3.38,7.77,7.76,7.77
55.74,10.83,3.08,10.83,3.07,-3.08,-3.73,-3.38,7.75,7.75,7.75
56.29,10.83,3.08,10.83,3.09,-3.09,-3.72,-3.39,7.74,7.74,7.75
56.86,10.84,3.11,10.84,3.11,-3.11,-3.71,-3.40,7.73,7.73,7.73
57.42,10.85,3.14,10.84,3.13,-3.12,-3.71,-3.41,7.72,7.72,7.71
58.00,10.85,3.15,10.85,3.15,-3.14,-3.70,-3.41,7.70,7.70,7.70
58.58,10.85,3.17,10.85,3.17,-3.17,-3.69,-3.42,7.68,7.68,7.68
59.16,10.85,3.19,10.85,3.18,-3.19,-3.69,-3.42,7.66,7.66,7.66
59.76,10.85,3.20,10.85,3.20,-3.21,-3.68,-3.42,7.64,7.64,7.65
60.35,10.85,3.22,10.85,3.23,-3.23,-3.67,-3.42,7.61,7.62,7.63
60.96,10.86,3.25,10.86,3.25,-3.26,-3.66,-3.42,7.60,7.60,7.60
61.57,10.87,3.29,10.87,3.28,-3.28,-3.65,-3.42,7.59,7.58,7.58
62.18,10.87,3.31,10.87,3.31,-3.31,-3.64,-3.41,7.56,7.56,7.56
62.80,10.87,3.34,10.87,3.33,-3.33,-3.64,-3.41,7.54,7.54,7.53
63.43,10.86,3.35,10.86,3.35,-3.35,-3.63,-3.39,7.51,7.51,7.51
64.07,10.84,3.36,10.84,3.36,-3.37,-3.62,-3.38,7.47,7.48,7.48
64.71,10.83,3.37,10.83,3.38,-3.38,-3.61,-3.37,7.45,7.45,7.45
65.35,10.82,3.39,10.81,3.39,-3.38,-3.60,-3.35,7.44,7.43,7.43
66.01,10.79,3.39,10.79,3.39,-3.38,-3.59,-3.33,7.40,7.41,7.40
66.67,10.76,3.39,10.76,3.39,-3.38,-3.57,-3.31,7.38,7.38,7.37
67.33,10.72,3.38,10.72,3.38,-3.38,-3.56,-3.29,7.34,7.34,7.34
68.01,10.68,3.37,10.68,3.37,-3.37,-3.55,-3.27,7.31,7.31,7.31
68.69,10.63,3.35,10.63,3.35,-3.35,-3.54,-3.24,7.27,7.27,7.28
69.37,10.58,3.33,10.58,3.34,-3.34,-3.53,-3.22,7.24,7.25,7.25
70.07,10.54,3.32,10.54,3.32,-3.32,-3.52,-3.19,7.22,7.22,7.21
70.77,10.49,3.31,10.49,3.30,-3.30,-3.50,-3.17,7.19,7.19,7.18
71.48,10.44,3.28,10.44,3.28,-3.28,-3.49,-3.14,7.16,7.16,7.16
72.19,10.38,3.26,10.38,3.26,-3.26,-3.48,-3.11,7.12,7.12,7.12
72.91,10.32,3.23,10.32,3.24,-3.24,-3.46,-3.09,7.07,7.08,7.08
73.64,10.27,3.22,10.27,3.22,-3.23,-3.45,-3.06,7.04,7.04,7.05
74.38,10.23,3.21,10.23,3.21,-3.21,-3.43,-3.03,7.01,7.01,7.02
75.12,10.19,3.21,10.19,3.20,-3.20,-3.42,-3.01,6.99,6.99,6.98
75.87,10.15,3.20,10.15,3.20,-3.19,-3.41,-2.98,6.96,6.96,6.95
76.63,10.10,3.19,10.10,3.19,-3.18,-3.39,-2.96,6.92,6.92,6.91
77.40,10.05,3.18,10.05,3.17,-3.17,-3.38,-2.94,6.87,6.87,6.87
78.17,10.00,3.16,10.00,3.16,-3.17,-3.36,-2.92,6.83,6.83,6.84
78.95,9.95,3.15,9.95,3.16,-3.16,-3.34,-2.90,6.79,6.79,6.80
79.74,9.91,3.15,9.91,3.15,-3.15,-3.33,-2.88,6.76,6.76,6.75
80.54,9.87,3.15,9.87,3.15,-3.14,-3.31,-2.86,6.73,6.72,6.72
81.35,9.82,3.14,9.81,3.14,-3.13,-3.30,-2.85,6.69,6.68,6.67
82.16,9.76,3.13,9.76,3.13,-3.12,-3.28,-2.84,6.63,6.63,6.63
82.98,9.69,3.11,9.70,3.11,-3.12,-3.26,-2.82,6.57,6.58,6.58
83.81,9.64,3.10,9.64,3.10,-3.11,-3.25,-2.82,6.53,6.53,6.54
84.65,9.59,3.09,9.59,3.09,-3.10,-3.23,-2.81,6.49,6.49,6.50
85.50,9.54,3.09,9.54,3.09,-3.09,-3.21,-2.81,6.45,6.45,6.45
86.35,9.49,3.09,9.49,3.09,-3.09,-3.20,-2.80,6.40,6.40,6.40
87.22,9.44,3.09,9.43,3.08,-3.08,-3.18,-2.80,6.36,6.35,6.35
88.09,9.38,3.08,9.38,3.08,-3.08,-3.16,-2.80,6.30,6.30,6.30
88.97,9.32,3.07,9.33,3.08,-3.08,-3.15,-2.81,6.24,6.25,6.25
89.86,9.28,3.08,9.27,3.07,-3.08,-3.13,-2.82,6.20,6.19,6.20
90.76,9.22,3.07,9.22,3.08,-3.08,-3.11,-2.82,6.14,6.15,6.14
91.66,9.17,3.08,9.17,3.08,-3.07,-3.10,-2.83,6.09,6.10,6.09
92.58,9.12,3.08,9.11,3.07,-3.07,-3.08,-2.85,6.05,6.04,6.04
93.51,9.06,3.07,9.06,3.07,-3.07,-3.06,-2.86,5.99,5.99,5.99
94.44,9.00,3.07,9.00,3.07,-3.07,-3.05,-2.88,5.92,5.93,5.93
95.39,8.95,3.07,8.95,3.07,-3.07,-3.03,-2.90,5.87,5.88,5.88
96.34,8.90,3.08,8.90,3.07,-3.08,-3.02,-2.92,5.82,5.83,5.82
97.30,8.86,3.08,8.85,3.08,-3.08,-3.00,-2.94,5.78,5.78,5.78
98.28,8.80,3.08,8.80,3.08,-3.08,-2.99,-2.96,5.72,5.72,5.72
99.26,8.75,3.08,8.75,3.08,-3.08,-2.97,-2.99,5.67,5.67,5.67
100.25,8.69,3.08,8.69,3.08,-3.08,-2.96,-3.01,5.61,5.61,5.61
101.25,8.64,3.08,8.64,3.08,-3.08,-2.94,-3.04,5.55,5.55,5.55
102.27,8.59,3.09,8.58,3.09,-3.09,-2.93,-3.07,5.50,5.50,5.50
103.29,8.53,3.09,8.53,3.09,-3.09,-2.92,-3.10,5.44,5.45,5.44
104.32,8.48,3.08,8.48,3.09,-3.09,-2.91,-3.13,5.39,5.39,5.40
105.37,8.43,3.09,8.43,3.09,-3.09,-2.89,-3.16,5.34,5.34,5.34
106.42,8.38,3.10,8.38,3.09,-3.09,-2.88,-3.18,5.29,5.29,5.28
107.48,8.32,3.08,8.32,3.09,-3.09,-2.87,-3.21,5.23,5.23,5.24
108.56,8.27,3.09,8.27,3.09,-3.09,-2.86,-3.24,5.18,5.18,5.18
109.64,8.22,3.09,8.22,3.09,-3.09,-2.85,-3.27,5.13,5.13,5.12
110.74,8.16,3.09,8.16,3.09,-3.09,-2.84,-3.29,5.07,5.07,5.07
111.85,8.11,3.10,8.11,3.09,-3.09,-2.84,-3.32,5.02,5.02,5.01
112.97,8.05,3.08,8.05,3.08,-3.08,-2.83,-3.34,4.97,4.96,4.97
114.10,7.99,3.08,7.99,3.08,-3.08,-2.82,-3.36,4.91,4.91,4.91
115.24,7.93,3.07,7.93,3.07,-3.08,-2.81,-3.38,4.85,4.85,4.86
116.39,7.88,3.08,7.88,3.07,-3.07,-2.81,-3.39,4.81,4.80,4.80
117.55,7.82,3.06,7.82,3.06,-3.07,-2.80,-3.40,4.75,4.75,4.76
118.73,7.77,3.06,7.77,3.06,-3.06,-2.80,-3.41,4.71,4.71,4.71
119.92,7.71,3.06,7.71,3.06,-3.06,-2.79,-3.42,4.65,4.66,4.65
121.12,7.66,3.06,7.66,3.05,-3.05,-2.79,-3.42,4.61,4.61,4.60
122.33,7.60,3.04,7.60,3.04,-3.04,-2.79,-3.41,4.56,4.55,4.56
123.55,7.54,3.03,7.54,3.03,-3.04,-2.78,-3.41,4.50,4.51,4.50
124.79,7.48,3.01,7.49,3.02,-3.03,-2.78,-3.39,4.45,4.46,4.46
126.03,7.44,3.03,7.43,3.02,-3.02,-2.78,-3.38,4.42,4.41,4.41
127.29,7.38,3.01,7.38,3.01,-3.01,-2.78,-3.36,4.37,4.37,4.37
128.57,7.32,2.99,7.32,3.00,-3.00,-2.78,-3.33,4.32,4.32,4.32
129.85,7.26,2.98,7.26,2.98,-2.98,-2.77,-3.30,4.27,4.27,4.28
131.15,7.20,2.97,7.20,2.97,-2.97,-2.77,-3.27,4.23,4.23,4.23
132.46,7.15,2.96,7.15,2.96,-2.96,-2.77,-3.23,4.19,4.19,4.19
133.79,7.09,2.95,7.09,2.95,-2.94,-2.77,-3.19,4.15,4.15,4.14
135.12,7.03,2.93,7.03,2.93,-2.93,-2.77,-3.15,4.10,4.10,4.10
136.48,6.96,2.91,6.96,2.91,-2.91,-2.76,-3.10,4.05,4.05,4.05
137.84,6.89,2.88,6.89,2.89,-2.89,-2.76,-3.05,4.00,4.01,4.01
139.22,6.83,2.86,6.83,2.87,-2.87,-2.76,-3.00,3.96,3.97,3.96
140.61,6.78,2.86,6.77,2.85,-2.84,-2.75,-2.94,3.94,3.93,3.92
142.02,6.71,2.82,6.71,2.82,-2.82,-2.75,-2.88,3.89,3.89,3.89
143.44,6.64,2.79,6.64,2.79,-2.79,-2.74,-2.82,3.85,3.85,3.85
144.87,6.57,2.76,6.57,2.76,-2.76,-2.73,-2.76,3.80,3.81,3.81
146.32,6.51,2.73,6.51,2.73,-2.74,-2.72,-2.70,3.77,3.77,3.78
147.78,6.45,2.71,6.45,2.71,-2.71,-2.71,-2.64,3.74,3.74,3.74
149.26,6.39,2.69,6.38,2.68,-2.67,-2.70,-2.57,3.71,3.71,3.70
150.75,6.32,2.64,6.31,2.64,-2.64,-2.69,-2.51,3.67,3.67,3.67
152.26,6.24,2.60,6.25,2.61,-2.61,-2.67,-2.45,3.63,3.63,3.64
153.78,6.18,2.58,6.18,2.58,-2.58,-2.66,-2.38,3.60,3.60,3.60
155.32,6.13,2.55,6.12,2.55,-2.55,-2.64,-2.32,3.58,3.57,3.58
156.88,6.07,2.52,6.06,2.52,-2.52,-2.62,-2.26,3.55,3.55,3.54
158.44,6.00,2.49,6.00,2.49,-2.49,-2.59,-2.19,3.51,3.51,3.51
160.03,5.93,2.45,5.93,2.45,-2.45,-2.57,-2.13,3.48,3.48,3.48
161.63,5.87,2.42,5.87,2.42,-2.42,-2.54,-2.07,3.45,3.45,3.45
163.24,5.81,2.38,5.81,2.39,-2.38,-2.51,-2.01,3.43,3.43,3.43
164.88,5.75,2.35,5.74,2.35,-2.35,-2.48,-1.95,3.40,3.40,3.40
166.53,5.68,2.31,5.67,2.31,-2.31,-2.45,-1.89,3.37,3.37,3.37
168.19,5.60,2.26,5.61,2.26,-2.27,-2.41,-1.83,3.33,3.34,3.34
169.87,5.54,2.22,5.54,2.22,-2.23,-2.37,-1.78,3.31,3.31,3.32
171.57,5.49,2.19,5.48,2.19,-2.19,-2.33,-1.72,3.30,3.29,3.29
173.29,5.43,2.16,5.43,2.16,-2.15,-2.29,-1.67,3.28,3.28,3.27
175.02,5.36,2.12,5.36,2.11,-2.11,-2.24,-1.62,3.25,3.25,3.24
176.77,5.29,2.06,5.29,2.07,-2.07,-2.20,-1.56,3.22,3.22,3.23
178.54,5.22,2.01,5.22,2.02,-2.02,-2.15,-1.51,3.19,3.20,3.20
180.32,5.17,1.99,5.16,1.98,-1.98,-2.10,-1.47,3.19,3.18,3.18
182.13,5.10,1.94,5.10,1.94,-1.94,-2.05,-1.42,3.16,3.16,3.16
183.95,5.04,1.90,5.03,1.90,-1.90,-2.00,-1.37,3.14,3.14,3.14
185.79,4.96,1.84,4.96,1.85,-1.85,-1.94,-1.33,3.11,3.11,3.12
187.65,4.90,1.80,4.90,1.81,-1.81,-1.89,-1.28,3.09,3.09,3.09
189.52,4.84,1.76,4.84,1.77,-1.77,-1.83,-1.24,3.07,3.07,3.07
191.42,4.79,1.73,4.78,1.73,-1.72,-1.77,-1.20,3.06,3.06,3.05
193.33,4.72,1.68,4.72,1.68,-1.68,-1.71,-1.16,3.04,3.04,3.04
195.27,4.65,1.63,4.65,1.63,-1.63,-1.66,-1.12,3.02,3.02,3.02
197.22,4.58,1.58,4.58,1.58,-1.58,-1.60,-1.08,3.00,3.00,3.00
199.19,4.52,1.54,4.52,1.53,-1.53,-1.54,-1.04,2.99,2.99,2.98
201.18,4.46,1.48,4.45,1.48,-1.48,-1.47,-1.00,2.98,2.98,2.98
203.19,4.39,1.43,4.39,1.42,-1.43,-1.41,-0.96,2.96,2.96,2.96
205.23,4.32,1.36,4.32,1.37,-1.37,-1.35,-0.93,2.94,2.95,2.95
207.28,4.25,1.31,4.25,1.32,-1.32,-1.29,-0.89,2.93,2.93,2.94
209.35,4.20,1.27,4.20,1.27,-1.27,-1.23,-0.86,2.93,2.93,2.92
211.44,4.14,1.22,4.14,1.22,-1.21,-1.17,-0.83,2.93,2.92,2.92
213.56,4.08,1.17,4.07,1.17,-1.16,-1.10,-0.79,2.92,2.91,2.91
215.69,4.00,1.10,4.00,1.11,-1.11,-1.04,-0.76,2.89,2.89,2.89
217.85,3.93,1.05,3.93,1.05,-1.05,-0.98,-0.73,2.87,2.88,2.88
220.03,3.87,0.99,3.87,1.00,-1.00,-0.92,-0.69,2.87,2.87,2.88
222.23,3.82,0.95,3.81,0.95,-0.95,-0.86,-0.66,2.87,2.87,2.87
224.45,3.76,0.90,3.75,0.90,-0.89,-0.80,-0.63,2.86,2.86,2.86
226.70,3.69,0.84,3.69,0.84,-0.84,-0.74,-0.60,2.85,2.85,2.84
228.96,3.62,0.77,3.62,0.78,-0.79,-0.67,-0.56,2.83,2.83,2.84
231.25,3.56,0.73,3.56,0.73,-0.73,-0.61,-0.53,2.82,2.83,2.83
233.57,3.51,0.69,3.51,0.68,-0.68,-0.55,-0.50,2.83,2.83,2.82
235.90,3.46,0.64,3.45,0.63,-0.62,-0.50,-0.47,2.83,2.83,2.82
238.26,3.39,0.57,3.39,0.57,-0.57,-0.44,-0.43,2.82,2.82,2.81
240.64,3.32,0.50,3.32,0.51,-0.51,-0.38,-0.40,2.81,2.81,2.81
243.05,3.26,0.44,3.26,0.45,-0.45,-0.32,-0.37,2.81,2.81,2.82
245.48,3.21,0.39,3.21,0.39,-0.39,-0.26,-0.33,2.82,2.81,2.82
247.93,3.15,0.34,3.15,0.34,-0.33,-0.21,-0.30,2.82,2.82,2.81
250.41,3.09,0.28,3.09,0.27,-0.27,-0.15,-0.26,2.82,2.82,2.81
252.92,3.02,0.20,3.02,0.20,-0.21,-0.09,-0.23,2.81,2.81,2.81
255.45,2.95,0.13,2.95,0.14,-0.14,-0.04,-0.19,2.81,2.81,2.82
258.00,2.89,0.08,2.89,0.08,-0.08,0.02,-0.16,2.81,2.81,2.81
260.58,2.84,0.03,2.83,0.02,-0.02,0.07,-0.12,2.82,2.81,2.81
263.19,2.77,-0.04,2.77,-0.04,0.04,0.13,-0.08,2.81,2.81,2.81
265.82,2.71,-0.09,2.70,-0.10,0.10,0.18,-0.04,2.81,2.80,2.80
268.48,2.64,-0.17,2.64,-0.16,0.15,0.23,-0.00,2.79,2.79,2.80
271.16,2.58,-0.22,2.59,-0.21,0.21,0.29,0.04,2.79,2.79,2.80
273.87,2.54,-0.25,2.53,-0.26,0.26,0.34,0.08,2.80,2.80,2.79
276.61,2.49,-0.31,2.48,-0.31,0.32,0.39,0.12,2.81,2.80,2.80
279.38,2.43,-0.36,2.43,-0.36,0.37,0.44,0.16,2.80,2.80,2.79
282.17,2.37,-0.43,2.37,-0.42,0.42,0.50,0.21,2.79,2.80,2.80
284.99,2.32,-0.47,2.31,-0.48,0.48,0.55,0.25,2.79,2.79,2.79
287.84,2.26,-0.53,2.26,-0.53,0.53,0.60,0.30,2.78,2.78,2.79
290.72,2.20,-0.58,2.20,-0.58,0.57,0.65,0.34,2.77,2.78,2.78
293.63,2.15,-0.63,2.15,-0.63,0.62,0.70,0.39,2.77,2.77,2.78
296.57,2.10,-0.68,2.10,-0.68,0.67,0.75,0.44,2.77,2.77,2.77
299.53,2.06,-0.72,2.06,-0.72,0.72,0.80,0.48,2.78,2.78,2.78
302.53,2.02,-0.76,2.02,-0.76,0.77,0.85,0.53,2.79,2.79,2.78
305.55,1.97,-0.80,1.97,-0.81,0.82,0.90,0.58,2.79,2.78,2.77
308.61,1.91,-0.87,1.91,-0.87,0.87,0.95,0.63,2.78,2.78,2.78
311.69,1.85,-0.93,1.85,-0.92,0.92,1.00,0.68,2.77,2.77,2.77
314.81,1.80,-0.98,1.80,-0.98,0.97,1.05,0.74,2.77,2.77,2.78
317.96,1.76,-1.02,1.76,-1.02,1.02,1.10,0.79,2.78,2.78,2.78
321.14,1.72,-1.07,1.71,-1.07,1.07,1.15,0.84,2.79,2.79,2.78
324.35,1.67,-1.11,1.67,-1.12,1.12,1.20,0.90,2.79,2.79,2.78
327.59,1.61,-1.17,1.61,-1.17,1.17,1.25,0.96,2.78,2.78,2.78
330.87,1.56,-1.23,1.56,-1.23,1.22,1.29,1.01,2.78,2.78,2.79
334.18,1.51,-1.28,1.51,-1.28,1.28,1.34,1.07,2.78,2.79,2.79
337.52,1.47,-1.32,1.47,-1.33,1.33,1.39,1.13,2.80,2.80,2.79
340.90,1.42,-1.38,1.42,-1.38,1.39,1.44,1.19,2.80,2.80,2.80
344.30,1.36,-1.44,1.36,-1.44,1.44,1.49,1.25,2.80,2.80,2.80
347.75,1.30,-1.49,1.30,-1.50,1.50,1.54,1.31,2.80,2.79,2.79
351.23,1.23,-1.56,1.24,-1.56,1.55,1.58,1.38,2.78,2.79,2.79
354.74,1.18,-1.62,1.18,-1.62,1.61,1.63,1.44,2.79,2.79,2.80
358.28,1.13,-1.67,1.12,-1.67,1.67,1.68,1.51,2.80,2.79,2.80
361.87,1.07,-1.73,1.07,-1.72,1.73,1.73,1.57,2.80,2.80,2.79
365.49,1.02,-1.77,1.02,-1.78,1.78,1.78,1.64,2.80,2.80,2.79
369.14,0.96,-1.83,0.96,-1.83,1.84,1.83,1.71,2.80,2.80,2.79
372.83,0.90,-1.89,0.90,-1.89,1.89,1.87,1.78,2.79,2.79,2.79
376.56,0.84,-1.96,0.84,-1.95,1.94,1.92,1.85,2.78,2.78,2.80
380.33,0.79,-2.01,0.79,-2.00,1.99,1.97,1.92,2.78,2.78,2.80
384.13,0.75,-2.05,0.75,-2.05,2.04,2.02,2.00,2.79,2.79,2.79
387.97,0.71,-2.08,0.71,-2.09,2.09,2.06,2.07,2.80,2.80,2.79
391.85,0.67,-2.13,0.67,-2.13,2.14,2.11,2.15,2.81,2.81,2.80
395.77,0.62,-2.18,0.62,-2.18,2.19,2.16,2.22,2.81,2.81,2.80
399.73,0.57,-2.24,0.57,-2.24,2.23,2.21,2.30,2.80,2.80,2.81
403.72,0.52,-2.29,0.52,-2.29,2.28,2.25,2.37,2.80,2.80,2.81
407.76,0.48,-2.34,0.48,-2.33,2.33,2.30,2.45,2.80,2.81,2.82
411.84,0.45,-2.37,0.45,-2.37,2.37,2.35,2.53,2.82,2.82,2.81
415.96,0.41,-2.41,0.41,-2.41,2.42,2.40,2.60,2.83,2.83,2.82
420.12,0.37,-2.45,0.37,-2.46,2.46,2.44,2.68,2.83,2.83,2.82
424.32,0.32,-2.50,0.32,-2.51,2.51,2.49,2.75,2.82,2.82,2.82
428.56,0.27,-2.56,0.27,-2.56,2.55,2.54,2.83,2.82,2.82,2.83
432.85,0.23,-2.60,0.23,-2.60,2.59,2.58,2.90,2.82,2.82,2.83
437.18,0.19,-2.64,0.19,-2.64,2.63,2.63,2.97,2.82,2.82,2.83
441.55,0.16,-2.67,0.16,-2.67,2.68,2.68,3.04,2.83,2.83,2.83
445.96,0.12,-2.71,0.12,-2.71,2.72,2.72,3.11,2.84,2.84,2.83
450.42,0.07,-2.76,0.07,-2.76,2.77,2.77,3.17,2.84,2.84,2.82
454.93,0.02,-2.81,0.02,-2.81,2.81,2.81,3.24,2.83,2.83,2.82
459.48,-0.04,-2.86,-0.04,-2.86,2.86,2.86,3.29,2.82,2.82,2.82
464.07,-0.09,-2.91,-0.09,-2.91,2.91,2.91,3.35,2.82,2.82,2.82
468.71,-0.14,-2.96,-0.14,-2.96,2.95,2.95,3.40,2.81,2.82,2.82
473.40,-0.18,-3.00,-0.18,-3.01,3.00,2.99,3.45,2.82,2.82,2.82
478.13,-0.22,-3.05,-0.22,-3.05,3.05,3.04,3.49,2.83,2.83,2.83
482.91,-0.26,-3.09,-0.26,-3.09,3.09,3.08,3.53,2.83,2.83,2.83
487.74,-0.30,-3.13,-0.30,-3.13,3.13,3.13,3.57,2.83,2.83,2.83
492.62,-0.34,-3.17,-0.34,-3.17,3.18,3.17,3.60,2.83,2.83,2.83
497.55,-0.38,-3.22,-0.38,-3.22,3.22,3.21,3.62,2.84,2.84,2.84
502.52,-0.42,-3.26,-0.42,-3.26,3.26,3.25,3.64,2.84,2.84,2.84
507.55,-0.46,-3.30,-0.46,-3.30,3.30,3.30,3.66,2.84,2.84,2.84
512.62,-0.50,-3.34,-0.50,-3.34,3.34,3.34,3.67,2.84,2.84,2.84
517.75,-0.54,-3.39,-0.54,-3.38,3.38,3.38,3.68,2.84,2.84,2.85
522.93,-0.58,-3.43,-0.58,-3.42,3.42,3.42,3.68,2.84,2.84,2.84
528.16,-0.61,-3.46,-0.62,-3.46,3.46,3.46,3.67,2.84,2.84,2.84
