frequency,raw,error,smoothed,error_smoothed,equalization,parametric_eq,fixed_band_eq,equalized_raw,equalized_smoothed,target
20.00,-2.46,-4.12,-2.47,-4.13,4.09,4.12,1.48,1.62,1.62,1.66
20.20,-2.42,-4.12,-2.42,-4.12,4.11,4.14,1.53,1.68,1.69,1.70
20.40,-2.38,-4.12,-2.38,-4.12,4.13,4.15,1.57,1.74,1.75,1.74
20.61,-2.35,-4.10,-2.34,-4.11,4.14,4.16,1.62,1.79,1.79,1.76
20.81,-2.31,-4.11,-2.31,-4.11,4.15,4.17,1.67,1.83,1.84,1.80
21.02,-2.27,-4.11,-2.28,-4.11,4.15,4.17,1.72,1.88,1.87,1.84
21.23,-2.27,-4.12,-2.27,-4.13,4.15,4.18,1.77,1.88,1.88,1.85
21.44,-2.27,-4.14,-2.28,-4.14,4.15,4.18,1.82,1.87,1.87,1.87
21.66,-2.28,-4.16,-2.28,-4.16,4.15,4.18,1.87,1.86,1.86,1.88
21.87,-2.28,-4.16,-2.28,-4.16,4.14,4.17,1.93,1.86,1.86,1.88
22.09,-2.26,-4.15,-2.26,-4.15,4.12,4.17,1.98,1.86,1.86,1.89
22.31,-2.22,-4.11,-2.22,-4.11,4.10,4.16,2.04,1.87,1.87,1.89
22.54,-2.18,-4.06,-2.18,-4.06,4.06,4.15,2.10,1.88,1.88,1.89
22.76,-2.13,-4.01,-2.13,-4.01,4.01,4.14,2.16,1.87,1.87,1.88
22.99,-2.08,-3.95,-2.08,-3.95,3.95,4.13,2.22,1.87,1.87,1.87
23.22,-2.03,-3.90,-2.04,-3.90,3.90,4.11,2.29,1.86,1.86,1.87
23.45,-1.98,-3.84,-1.98,-3.84,3.85,4.09,2.35,1.87,1.87,1.86
23.69,-1.94,-3.79,-1.93,-3.79,3.82,4.07,2.42,1.88,1.89,1.86
23.92,-1.88,-3.74,-1.90,-3.75,3.79,4.05,2.49,1.91,1.89,1.86
24.16,-1.87,-3.74,-1.88,-3.74,3.77,4.03,2.55,1.89,1.89,1.86
24.40,-1.88,-3.75,-1.88,-3.74,3.75,4.01,2.62,1.86,1.86,1.86
24.65,-1.89,-3.75,-1.90,-3.76,3.72,3.98,2.69,1.83,1.83,1.85
24.89,-1.90,-3.76,-1.89,-3.75,3.70,3.95,2.77,1.80,1.81,1.85
25.14,-1.87,-3.73,-1.87,-3.72,3.67,3.93,2.84,1.80,1.81,1.85
25.39,-1.81,-3.67,-1.82,-3.66,3.65,3.90,2.91,1.83,1.83,1.85
25.65,-1.75,-3.60,-1.75,-3.59,3.62,3.86,2.98,1.87,1.87,1.84
25.91,-1.70,-3.53,-1.71,-3.54,3.59,3.83,3.05,1.90,1.89,1.83
26.16,-1.67,-3.51,-1.68,-3.51,3.56,3.80,3.13,1.88,1.88,1.83
26.43,-1.68,-3.51,-1.68,-3.51,3.52,3.77,3.20,1.84,1.84,1.83
26.69,-1.68,-3.51,-1.69,-3.51,3.49,3.73,3.27,1.80,1.80,1.83
26.96,-1.69,-3.51,-1.68,-3.50,3.45,3.70,3.33,1.76,1.77,1.82
27.23,-1.65,-3.46,-1.64,-3.46,3.42,3.66,3.40,1.78,1.78,1.82
27.50,-1.58,-3.40,-1.59,-3.40,3.39,3.62,3.47,1.81,1.81,1.82
27.77,-1.53,-3.34,-1.53,-3.34,3.37,3.59,3.53,1.83,1.83,1.81
28.05,-1.48,-3.29,-1.50,-3.30,3.34,3.55,3.59,1.86,1.84,1.81
28.33,-1.49,-3.29,-1.49,-3.29,3.32,3.51,3.64,1.83,1.83,1.79
28.62,-1.49,-3.29,-1.49,-3.29,3.31,3.47,3.69,1.82,1.82,1.79
28.90,-1.50,-3.30,-1.50,-3.29,3.30,3.44,3.74,1.80,1.80,1.79
29.19,-1.50,-3.30,-1.51,-3.30,3.29,3.40,3.79,1.79,1.78,1.79
29.48,-1.50,-3.31,-1.51,-3.31,3.28,3.36,3.82,1.77,1.77,1.80
29.78,-1.51,-3.30,-1.51,-3.30,3.26,3.32,3.86,1.74,1.75,1.79
30.08,-1.49,-3.29,-1.48,-3.28,3.23,3.28,3.88,1.74,1.75,1.80
30.38,-1.44,-3.21,-1.43,-3.21,3.20,3.25,3.91,1.76,1.77,1.78
30.68,-1.36,-3.14,-1.37,-3.14,3.16,3.21,3.92,1.80,1.80,1.78
30.99,-1.30,-3.06,-1.32,-3.09,3.13,3.17,3.93,1.84,1.82,1.77
31.30,-1.29,-3.06,-1.29,-3.06,3.10,3.14,3.94,1.81,1.81,1.76
31.61,-1.30,-3.07,-1.29,-3.05,3.08,3.10,3.93,1.77,1.78,1.76
31.93,-1.30,-3.05,-1.30,-3.05,3.05,3.07,3.92,1.75,1.75,1.74
32.24,-1.30,-3.04,-1.31,-3.05,3.03,3.03,3.91,1.72,1.71,1.73
32.57,-1.31,-3.04,-1.32,-3.04,3.00,3.00,3.89,1.69,1.68,1.73
32.89,-1.32,-3.04,-1.31,-3.02,2.97,2.96,3.86,1.65,1.67,1.72
33.22,-1.27,-2.97,-1.26,-2.97,2.94,2.93,3.83,1.67,1.68,1.70
33.55,-1.19,-2.89,-1.20,-2.89,2.90,2.90,3.80,1.71,1.71,1.69
33.89,-1.12,-2.80,-1.14,-2.82,2.86,2.87,3.75,1.74,1.72,1.67
34.23,-1.10,-2.78,-1.11,-2.78,2.82,2.84,3.71,1.71,1.70,1.67
34.57,-1.11,-2.76,-1.11,-2.77,2.77,2.81,3.66,1.66,1.66,1.65
34.92,-1.13,-2.77,-1.12,-2.76,2.73,2.78,3.61,1.60,1.62,1.64
35.27,-1.11,-2.74,-1.10,-2.73,2.70,2.76,3.55,1.60,1.60,1.64
35.62,-1.06,-2.68,-1.07,-2.69,2.68,2.73,3.49,1.61,1.61,1.61
35.97,-1.02,-2.63,-1.04,-2.64,2.66,2.70,3.43,1.64,1.62,1.60
36.33,-1.02,-2.62,-1.02,-2.62,2.65,2.68,3.37,1.62,1.62,1.60
36.70,-1.02,-2.61,-1.02,-2.61,2.63,2.66,3.30,1.60,1.60,1.59
37.06,-1.02,-2.60,-1.03,-2.61,2.60,2.64,3.24,1.58,1.58,1.58
37.43,-1.02,-2.61,-1.03,-2.60,2.58,2.61,3.17,1.56,1.55,1.58
37.81,-1.02,-2.59,-1.02,-2.59,2.56,2.59,3.11,1.54,1.54,1.57
38.19,-1.00,-2.56,-0.99,-2.56,2.55,2.58,3.04,1.54,1.55,1.56
38.57,-0.95,-2.52,-0.96,-2.52,2.53,2.56,2.97,1.57,1.57,1.56
38.95,-0.91,-2.47,-0.93,-2.48,2.50,2.54,2.91,1.59,1.57,1.55
39.34,-0.91,-2.46,-0.91,-2.46,2.48,2.52,2.84,1.56,1.56,1.55
39.74,-0.91,-2.45,-0.91,-2.45,2.45,2.51,2.77,1.53,1.53,1.54
40.14,-0.91,-2.45,-0.90,-2.44,2.42,2.49,2.71,1.51,1.52,1.53
40.54,-0.88,-2.41,-0.88,-2.41,2.40,2.48,2.65,1.51,1.52,1.53
40.94,-0.84,-2.37,-0.86,-2.38,2.38,2.46,2.59,1.53,1.52,1.53
41.35,-0.83,-2.35,-0.83,-2.35,2.36,2.45,2.53,1.52,1.53,1.51
41.76,-0.82,-2.32,-0.82,-2.33,2.34,2.43,2.47,1.52,1.52,1.50
42.18,-0.82,-2.32,-0.82,-2.32,2.32,2.42,2.41,1.50,1.50,1.49
42.60,-0.82,-2.30,-0.82,-2.31,2.31,2.41,2.35,1.48,1.48,1.48
43.03,-0.82,-2.30,-0.82,-2.29,2.29,2.39,2.30,1.47,1.47,1.48
43.46,-0.82,-2.28,-0.82,-2.28,2.27,2.38,2.25,1.45,1.45,1.45
43.90,-0.82,-2.25,-0.83,-2.26,2.25,2.36,2.20,1.42,1.42,1.43
44.33,-0.82,-2.24,-0.83,-2.24,2.22,2.35,2.15,1.40,1.40,1.41
44.78,-0.82,-2.21,-0.82,-2.21,2.20,2.33,2.10,1.37,1.38,1.39
45.23,-0.80,-2.18,-0.79,-2.16,2.17,2.31,2.06,1.36,1.38,1.37
45.68,-0.75,-2.11,-0.76,-2.12,2.13,2.29,2.01,1.38,1.37,1.36
46.13,-0.72,-2.07,-0.74,-2.09,2.10,2.27,1.97,1.37,1.36,1.34
46.60,-0.73,-2.07,-0.73,-2.07,2.06,2.25,1.93,1.33,1.33,1.34
47.06,-0.73,-2.06,-0.71,-2.04,2.03,2.22,1.89,1.29,1.32,1.33
47.53,-0.68,-2.01,-0.69,-2.01,2.00,2.20,1.85,1.31,1.31,1.32
48.01,-0.63,-1.95,-0.65,-1.97,1.97,2.17,1.82,1.34,1.32,1.32
48.49,-0.63,-1.94,-0.63,-1.93,1.95,2.14,1.78,1.31,1.32,1.30
48.97,-0.63,-1.92,-0.63,-1.92,1.93,2.11,1.75,1.30,1.30,1.28
49.46,-0.63,-1.91,-0.63,-1.91,1.92,2.08,1.72,1.28,1.28,1.28
49.96,-0.63,-1.89,-0.63,-1.90,1.91,2.04,1.69,1.27,1.27,1.26
50.46,-0.63,-1.91,-0.63,-1.90,1.90,2.00,1.66,1.27,1.27,1.27
50.96,-0.63,-1.90,-0.63,-1.90,1.90,1.97,1.63,1.27,1.27,1.26
51.47,-0.63,-1.89,-0.63,-1.89,1.89,1.93,1.60,1.26,1.26,1.26
51.99,-0.63,-1.88,-0.64,-1.89,1.88,1.89,1.58,1.25,1.24,1.25
52.51,-0.63,-1.88,-0.64,-1.89,1.86,1.85,1.55,1.22,1.22,1.25
53.03,-0.63,-1.88,-0.62,-1.86,1.83,1.80,1.53,1.20,1.21,1.25
53.56,-0.57,-1.81,-0.58,-1.82,1.80,1.76,1.51,1.23,1.22,1.24
54.10,-0.52,-1.76,-0.53,-1.76,1.77,1.72,1.48,1.24,1.24,1.23
54.64,-0.47,-1.71,-0.48,-1.70,1.73,1.67,1.46,1.26,1.25,1.23
55.18,-0.44,-1.66,-0.45,-1.67,1.70,1.63,1.44,1.26,1.25,1.22
55.74,-0.44,-1.65,-0.44,-1.65,1.67,1.59,1.42,1.23,1.23,1.21
56.29,-0.44,-1.65,-0.44,-1.64,1.65,1.54,1.39,1.21,1.21,1.21
56.86,-0.44,-1.63,-0.44,-1.63,1.64,1.50,1.37,1.19,1.19,1.19
57.42,-0.44,-1.62,-0.44,-1.62,1.63,1.45,1.35,1.18,1.18,1.17
58.00,-0.44,-1.61,-0.44,-1.61,1.61,1.41,1.33,1.17,1.17,1.16
58.58,-0.44,-1.59,-0.45,-1.60,1.59,1.37,1.31,1.14,1.14,1.15
59.16,-0.44,-1.58,-0.45,-1.58,1.55,1.33,1.29,1.11,1.11,1.14
59.76,-0.44,-1.56,-0.43,-1.55,1.51,1.28,1.26,1.06,1.08,1.11
60.35,-0.40,-1.49,-0.40,-1.49,1.46,1.24,1.24,1.05,1.06,1.09
60.96,-0.34,-1.41,-0.34,-1.40,1.40,1.20,1.21,1.05,1.05,1.06
61.57,-0.28,-1.30,-0.29,-1.31,1.34,1.16,1.19,1.05,1.05,1.02
62.18,-0.24,-1.23,-0.26,-1.24,1.28,1.12,1.16,1.03,1.02,0.98
62.80,-0.24,-1.19,-0.24,-1.19,1.22,1.08,1.14,0.97,0.97,0.95
63.43,-0.24,-1.16,-0.24,-1.15,1.16,1.05,1.11,0.92,0.92,0.91
64.07,-0.24,-1.12,-0.24,-1.12,1.11,1.01,1.08,0.87,0.87,0.87
64.71,-0.24,-1.08,-0.24,-1.08,1.08,0.97,1.05,0.83,0.83,0.84
65.35,-0.24,-1.05,-0.24,-1.05,1.04,0.94,1.02,0.80,0.80,0.81
66.01,-0.24,-1.01,-0.24,-1.01,1.02,0.90,0.99,0.77,0.77,0.77
66.67,-0.24,-0.98,-0.24,-0.98,0.98,0.87,0.96,0.74,0.74,0.73
67.33,-0.24,-0.95,-0.24,-0.94,0.95,0.83,0.93,0.70,0.70,0.70
68.01,-0.24,-0.91,-0.25,-0.91,0.90,0.80,0.90,0.66,0.66,0.66
68.69,-0.24,-0.87,-0.25,-0.87,0.85,0.77,0.87,0.61,0.60,0.62
69.37,-0.24,-0.82,-0.24,-0.82,0.80,0.73,0.83,0.56,0.56,0.58
70.07,-0.23,-0.77,-0.21,-0.75,0.75,0.70,0.80,0.51,0.53,0.54
70.77,-0.16,-0.67,-0.18,-0.68,0.69,0.67,0.76,0.53,0.51,0.51
71.48,-0.14,-0.61,-0.16,-0.62,0.63,0.64,0.73,0.49,0.48,0.46
72.19,-0.15,-0.57,-0.15,-0.56,0.58,0.61,0.69,0.42,0.43,0.42
72.91,-0.15,-0.52,-0.15,-0.52,0.52,0.58,0.65,0.37,0.37,0.36
73.64,-0.15,-0.47,-0.16,-0.47,0.47,0.55,0.62,0.32,0.32,0.32
74.38,-0.15,-0.43,-0.15,-0.43,0.43,0.53,0.58,0.27,0.27,0.27
75.12,-0.15,-0.38,-0.15,-0.39,0.38,0.50,0.54,0.23,0.23,0.23
75.87,-0.15,-0.35,-0.15,-0.35,0.34,0.47,0.50,0.19,0.19,0.19
76.63,-0.15,-0.31,-0.15,-0.31,0.31,0.44,0.47,0.15,0.15,0.15
77.40,-0.15,-0.27,-0.15,-0.27,0.27,0.42,0.43,0.12,0.12,0.12
78.17,-0.15,-0.23,-0.15,-0.24,0.24,0.39,0.39,0.08,0.08,0.08
78.95,-0.15,-0.20,-0.15,-0.20,0.20,0.36,0.35,0.05,0.05,0.05
79.74,-0.15,-0.17,-0.15,-0.17,0.17,0.34,0.31,0.02,0.02,0.02
80.54,-0.15,-0.14,-0.15,-0.14,0.14,0.31,0.27,-0.01,-0.01,-0.01
81.35,-0.15,-0.11,-0.15,-0.11,0.11,0.29,0.23,-0.04,-0.04,-0.04
82.16,-0.15,-0.08,-0.15,-0.09,0.09,0.26,0.19,-0.07,-0.07,-0.07
82.98,-0.15,-0.06,-0.15,-0.05,0.06,0.24,0.16,-0.10,-0.10,-0.09
83.81,-0.15,-0.02,-0.15,-0.02,0.03,0.21,0.12,-0.13,-0.13,-0.14
84.65,-0.15,0.01,-0.16,0.01,-0.01,0.19,0.08,-0.17,-0.17,-0.17
85.50,-0.15,0.04,-0.17,0.03,-0.05,0.16,0.04,-0.21,-0.22,-0.19
86.35,-0.16,0.06,-0.15,0.07,-0.10,0.14,-0.00,-0.26,-0.25,-0.23
87.22,-0.15,0.11,-0.13,0.13,-0.15,0.11,-0.04,-0.30,-0.27,-0.26
88.09,-0.06,0.23,-0.09,0.20,-0.19,0.09,-0.08,-0.26,-0.29,-0.30
88.97,-0.05,0.27,-0.06,0.26,-0.24,0.06,-0.12,-0.30,-0.30,-0.32
89.86,-0.05,0.30,-0.05,0.31,-0.29,0.04,-0.16,-0.34,-0.34,-0.36
90.76,-0.05,0.34,-0.05,0.34,-0.34,0.01,-0.20,-0.39,-0.39,-0.39
91.66,-0.04,0.38,-0.05,0.38,-0.38,-0.01,-0.24,-0.42,-0.43,-0.42
92.58,-0.04,0.41,-0.05,0.41,-0.41,-0.04,-0.28,-0.46,-0.46,-0.46
93.51,-0.04,0.44,-0.04,0.44,-0.45,-0.06,-0.32,-0.49,-0.49,-0.48
94.44,-0.04,0.47,-0.05,0.47,-0.47,-0.08,-0.36,-0.52,-0.52,-0.51
95.39,-0.04,0.49,-0.05,0.50,-0.50,-0.11,-0.40,-0.54,-0.54,-0.54
96.34,-0.05,0.52,-0.05,0.53,-0.52,-0.13,-0.45,-0.57,-0.57,-0.58
97.30,-0.05,0.55,-0.06,0.55,-0.54,-0.16,-0.49,-0.59,-0.60,-0.61
98.28,-0.06,0.57,-0.07,0.56,-0.56,-0.18,-0.53,-0.62,-0.62,-0.63
99.26,-0.08,0.57,-0.08,0.57,-0.57,-0.21,-0.57,-0.66,-0.66,-0.65
100.25,-0.10,0.58,-0.10,0.58,-0.59,-0.24,-0.61,-0.69,-0.69,-0.68
101.25,-0.12,0.59,-0.12,0.59,-0.60,-0.26,-0.65,-0.73,-0.72,-0.71
102.27,-0.13,0.61,-0.13,0.61,-0.62,-0.29,-0.69,-0.75,-0.75,-0.74
103.29,-0.14,0.65,-0.15,0.63,-0.63,-0.31,-0.73,-0.78,-0.78,-0.79
104.32,-0.16,0.65,-0.16,0.65,-0.65,-0.34,-0.77,-0.81,-0.81,-0.81
105.37,-0.18,0.66,-0.19,0.66,-0.66,-0.37,-0.81,-0.85,-0.85,-0.85
106.42,-0.21,0.66,-0.21,0.67,-0.67,-0.39,-0.84,-0.89,-0.88,-0.88
107.48,-0.23,0.68,-0.24,0.68,-0.68,-0.42,-0.88,-0.91,-0.91,-0.92
108.56,-0.26,0.69,-0.26,0.70,-0.68,-0.45,-0.92,-0.94,-0.93,-0.96
109.64,-0.28,0.71,-0.29,0.70,-0.68,-0.48,-0.95,-0.96,-0.97,-1.00
110.74,-0.32,0.70,-0.35,0.68,-0.68,-0.50,-0.99,-1.00,-1.03,-1.03
111.85,-0.42,0.63,-0.40,0.66,-0.69,-0.53,-1.02,-1.11,-1.08,-1.05
112.97,-0.44,0.66,-0.43,0.66,-0.69,-0.56,-1.05,-1.14,-1.13,-1.10
114.10,-0.42,0.70,-0.44,0.68,-0.71,-0.59,-1.08,-1.13,-1.15,-1.12
115.24,-0.43,0.73,-0.43,0.73,-0.73,-0.62,-1.11,-1.16,-1.16,-1.16
116.39,-0.42,0.76,-0.43,0.76,-0.75,-0.65,-1.14,-1.17,-1.18,-1.19
117.55,-0.42,0.79,-0.43,0.79,-0.78,-0.68,-1.17,-1.20,-1.20,-1.22
118.73,-0.42,0.82,-0.42,0.82,-0.81,-0.71,-1.19,-1.23,-1.23,-1.24
119.92,-0.41,0.84,-0.41,0.84,-0.84,-0.74,-1.21,-1.26,-1.26,-1.25
121.12,-0.40,0.87,-0.41,0.87,-0.87,-0.77,-1.23,-1.28,-1.28,-1.28
122.33,-0.39,0.90,-0.40,0.89,-0.90,-0.80,-1.25,-1.29,-1.30,-1.29
123.55,-0.39,0.90,-0.39,0.92,-0.92,-0.83,-1.27,-1.31,-1.31,-1.30
124.79,-0.38,0.94,-0.38,0.94,-0.93,-0.86,-1.28,-1.32,-1.31,-1.32
126.03,-0.36,0.97,-0.37,0.96,-0.94,-0.90,-1.29,-1.31,-1.32,-1.34
127.29,-0.37,0.98,-0.39,0.97,-0.95,-0.93,-1.30,-1.33,-1.34,-1.35
128.57,-0.42,0.95,-0.42,0.96,-0.96,-0.96,-1.31,-1.39,-1.38,-1.38
129.85,-0.45,0.94,-0.44,0.95,-0.97,-0.99,-1.31,-1.42,-1.41,-1.39
131.15,-0.44,0.96,-0.45,0.95,-0.98,-1.02,-1.32,-1.42,-1.43,-1.40
132.46,-0.44,0.97,-0.45,0.97,-0.98,-1.05,-1.32,-1.43,-1.43,-1.42
133.79,-0.44,0.97,-0.44,0.99,-0.99,-1.09,-1.32,-1.43,-1.43,-1.42
135.12,-0.43,1.02,-0.43,1.01,-0.99,-1.12,-1.32,-1.42,-1.42,-1.45
136.48,-0.43,1.02,-0.43,1.02,-0.99,-1.15,-1.31,-1.43,-1.43,-1.45
137.84,-0.43,1.04,-0.46,1.02,-1.00,-1.18,-1.31,-1.43,-1.46,-1.47
139.22,-0.49,1.01,-0.49,1.00,-1.00,-1.21,-1.30,-1.50,-1.49,-1.50
140.61,-0.54,0.98,-0.52,0.99,-1.01,-1.24,-1.30,-1.55,-1.53,-1.52
142.02,-0.53,0.98,-0.54,0.99,-1.01,-1.27,-1.29,-1.55,-1.55,-1.52
143.44,-0.52,1.01,-0.53,1.01,-1.02,-1.30,-1.28,-1.55,-1.56,-1.54
144.87,-0.52,1.04,-0.52,1.04,-1.04,-1.33,-1.27,-1.57,-1.57,-1.56
146.32,-0.52,1.07,-0.52,1.06,-1.07,-1.35,-1.26,-1.59,-1.59,-1.59
147.78,-0.52,1.09,-0.53,1.09,-1.10,-1.38,-1.25,-1.63,-1.63,-1.62
149.26,-0.52,1.13,-0.52,1.13,-1.14,-1.40,-1.24,-1.67,-1.66,-1.65
150.75,-0.52,1.18,-0.52,1.19,-1.18,-1.43,-1.23,-1.70,-1.70,-1.71
152.26,-0.51,1.24,-0.52,1.23,-1.21,-1.45,-1.22,-1.73,-1.73,-1.75
153.78,-0.52,1.28,-0.54,1.27,-1.25,-1.47,-1.21,-1.77,-1.78,-1.81
155.32,-0.58,1.28,-0.57,1.30,-1.28,-1.49,-1.20,-1.86,-1.85,-1.87
156.88,-0.61,1.31,-0.62,1.30,-1.31,-1.51,-1.19,-1.92,-1.93,-1.92
158.44,-0.66,1.33,-0.68,1.31,-1.34,-1.53,-1.18,-2.00,-2.02,-1.99
160.03,-0.73,1.32,-0.71,1.35,-1.37,-1.54,-1.17,-2.11,-2.08,-2.06
161.63,-0.72,1.38,-0.73,1.38,-1.40,-1.56,-1.16,-2.13,-2.13,-2.11
163.24,-0.71,1.45,-0.73,1.43,-1.43,-1.57,-1.16,-2.15,-2.16,-2.17
164.88,-0.72,1.47,-0.72,1.48,-1.47,-1.58,-1.15,-2.19,-2.19,-2.20
166.53,-0.72,1.51,-0.73,1.51,-1.50,-1.59,-1.14,-2.22,-2.23,-2.24
168.19,-0.73,1.53,-0.73,1.53,-1.53,-1.60,-1.14,-2.26,-2.26,-2.26
169.87,-0.73,1.56,-0.74,1.55,-1.55,-1.60,-1.13,-2.29,-2.29,-2.29
171.57,-0.74,1.57,-0.75,1.56,-1.56,-1.60,-1.13,-2.31,-2.31,-2.31
173.29,-0.75,1.56,-0.74,1.58,-1.57,-1.60,-1.13,-2.32,-2.31,-2.32
175.02,-0.74,1.58,-0.75,1.58,-1.56,-1.60,-1.13,-2.30,-2.31,-2.32
176.77,-0.74,1.59,-0.78,1.55,-1.54,-1.60,-1.13,-2.29,-2.32,-2.33
178.54,-0.82,1.51,-0.81,1.52,-1.52,-1.59,-1.13,-2.34,-2.33,-2.34
180.32,-0.85,1.47,-0.83,1.50,-1.49,-1.59,-1.13,-2.35,-2.32,-2.32
182.13,-0.84,1.47,-0.86,1.46,-1.47,-1.58,-1.13,-2.32,-2.33,-2.32
183.95,-0.83,1.48,-0.87,1.45,-1.46,-1.57,-1.14,-2.29,-2.33,-2.32
185.79,-0.92,1.40,-0.90,1.43,-1.45,-1.56,-1.14,-2.37,-2.34,-2.32
187.65,-0.92,1.41,-0.91,1.42,-1.45,-1.54,-1.14,-2.37,-2.36,-2.34
189.52,-0.90,1.43,-0.92,1.43,-1.46,-1.53,-1.15,-2.36,-2.37,-2.34
191.42,-0.88,1.47,-0.88,1.47,-1.47,-1.51,-1.16,-2.35,-2.35,-2.35
193.33,-0.86,1.50,-0.86,1.51,-1.48,-1.49,-1.16,-2.35,-2.34,-2.36
195.27,-0.83,1.54,-0.84,1.54,-1.50,-1.47,-1.17,-2.34,-2.34,-2.38
197.22,-0.83,1.56,-0.85,1.54,-1.52,-1.45,-1.18,-2.35,-2.37,-2.40
199.19,-0.88,1.53,-0.87,1.54,-1.54,-1.43,-1.19,-2.42,-2.41,-2.42
201.18,-0.91,1.51,-0.90,1.53,-1.55,-1.41,-1.20,-2.47,-2.45,-2.43
203.19,-0.90,1.53,-0.91,1.53,-1.56,-1.39,-1.21,-2.47,-2.47,-2.44
205.23,-0.90,1.56,-0.91,1.55,-1.56,-1.37,-1.22,-2.47,-2.47,-2.47
207.28,-0.90,1.56,-0.90,1.58,-1.56,-1.34,-1.23,-2.47,-2.46,-2.47
209.35,-0.90,1.59,-0.91,1.59,-1.56,-1.32,-1.24,-2.47,-2.47,-2.50
211.44,-0.91,1.60,-0.93,1.58,-1.56,-1.29,-1.25,-2.48,-2.50,-2.52
213.56,-0.97,1.55,-0.97,1.55,-1.56,-1.27,-1.26,-2.53,-2.53,-2.52
215.69,-1.02,1.51,-1.01,1.53,-1.55,-1.24,-1.27,-2.58,-2.56,-2.53
217.85,-1.03,1.51,-1.02,1.53,-1.53,-1.22,-1.28,-2.57,-2.56,-2.54
220.03,-1.01,1.54,-1.03,1.53,-1.51,-1.19,-1.29,-2.53,-2.54,-2.56
222.23,-1.01,1.55,-1.04,1.52,-1.50,-1.17,-1.30,-2.51,-2.54,-2.57
224.45,-1.08,1.47,-1.07,1.49,-1.48,-1.14,-1.31,-2.56,-2.55,-2.55
226.70,-1.12,1.43,-1.11,1.45,-1.47,-1.12,-1.32,-2.59,-2.57,-2.55
228.96,-1.11,1.43,-1.12,1.42,-1.45,-1.09,-1.32,-2.56,-2.57,-2.55
231.25,-1.11,1.42,-1.12,1.42,-1.43,-1.07,-1.33,-2.55,-2.55,-2.53
233.57,-1.10,1.41,-1.10,1.43,-1.41,-1.04,-1.33,-2.52,-2.51,-2.52
235.90,-1.08,1.42,-1.09,1.41,-1.39,-1.02,-1.33,-2.47,-2.48,-2.51
238.26,-1.07,1.41,-1.10,1.38,-1.37,-1.00,-1.33,-2.44,-2.47,-2.48
240.64,-1.12,1.33,-1.12,1.34,-1.35,-0.97,-1.33,-2.47,-2.46,-2.46
243.05,-1.14,1.28,-1.11,1.31,-1.32,-0.95,-1.32,-2.46,-2.43,-2.42
245.48,-1.10,1.29,-1.11,1.29,-1.29,-0.93,-1.32,-2.39,-2.40,-2.40
247.93,-1.06,1.31,-1.11,1.26,-1.26,-0.90,-1.31,-2.32,-2.37,-2.37
250.41,-1.14,1.21,-1.12,1.23,-1.23,-0.88,-1.30,-2.37,-2.34,-2.36
252.92,-1.15,1.17,-1.14,1.19,-1.20,-0.86,-1.29,-2.36,-2.34,-2.32
255.45,-1.13,1.16,-1.15,1.15,-1.18,-0.84,-1.27,-2.32,-2.33,-2.30
258.00,-1.13,1.15,-1.13,1.15,-1.16,-0.82,-1.26,-2.30,-2.30,-2.28
260.58,-1.12,1.14,-1.13,1.14,-1.14,-0.80,-1.24,-2.26,-2.26,-2.26
263.19,-1.12,1.11,-1.12,1.12,-1.10,-0.78,-1.22,-2.23,-2.22,-2.24
265.82,-1.12,1.10,-1.12,1.10,-1.06,-0.76,-1.20,-2.19,-2.18,-2.22
268.48,-1.12,1.07,-1.14,1.06,-1.02,-0.74,-1.17,-2.14,-2.15,-2.20
271.16,-1.18,0.98,-1.18,0.99,-0.97,-0.72,-1.15,-2.15,-2.15,-2.17
273.87,-1.23,0.92,-1.25,0.90,-0.92,-0.70,-1.12,-2.15,-2.16,-2.15
276.61,-1.32,0.80,-1.30,0.83,-0.86,-0.68,-1.09,-2.19,-2.16,-2.13
279.38,-1.33,0.76,-1.33,0.77,-0.81,-0.66,-1.06,-2.15,-2.14,-2.10
282.17,-1.32,0.76,-1.34,0.74,-0.77,-0.65,-1.03,-2.09,-2.10,-2.08
284.99,-1.32,0.72,-1.32,0.72,-0.73,-0.63,-1.00,-2.05,-2.05,-2.05
287.84,-1.31,0.70,-1.31,0.71,-0.69,-0.61,-0.97,-2.01,-2.00,-2.02
290.72,-1.30,0.68,-1.30,0.68,-0.66,-0.60,-0.93,-1.96,-1.96,-1.98
293.63,-1.29,0.66,-1.31,0.64,-0.63,-0.58,-0.90,-1.92,-1.93,-1.95
296.57,-1.31,0.60,-1.32,0.61,-0.59,-0.57,-0.86,-1.90,-1.90,-1.92
299.53,-1.35,0.54,-1.33,0.56,-0.55,-0.55,-0.83,-1.90,-1.88,-1.90
302.53,-1.34,0.53,-1.36,0.50,-0.51,-0.54,-0.79,-1.85,-1.87,-1.87
305.55,-1.38,0.45,-1.39,0.45,-0.46,-0.53,-0.75,-1.85,-1.85,-1.83
308.61,-1.42,0.39,-1.41,0.40,-0.43,-0.51,-0.72,-1.85,-1.83,-1.81
311.69,-1.42,0.37,-1.42,0.37,-0.39,-0.50,-0.68,-1.81,-1.81,-1.80
314.81,-1.41,0.34,-1.42,0.35,-0.36,-0.49,-0.64,-1.77,-1.78,-1.76
317.96,-1.41,0.34,-1.41,0.34,-0.32,-0.47,-0.60,-1.74,-1.74,-1.75
321.14,-1.41,0.32,-1.41,0.32,-0.30,-0.46,-0.57,-1.71,-1.71,-1.73
324.35,-1.41,0.31,-1.43,0.29,-0.27,-0.45,-0.53,-1.68,-1.70,-1.72
327.59,-1.45,0.25,-1.46,0.25,-0.24,-0.44,-0.49,-1.70,-1.70,-1.71
330.87,-1.50,0.19,-1.49,0.21,-0.22,-0.43,-0.45,-1.73,-1.71,-1.70
334.18,-1.51,0.17,-1.51,0.18,-0.20,-0.42,-0.42,-1.71,-1.71,-1.69
337.52,-1.51,0.17,-1.52,0.16,-0.18,-0.41,-0.38,-1.69,-1.70,-1.68
340.90,-1.51,0.15,-1.52,0.15,-0.15,-0.40,-0.34,-1.67,-1.67,-1.66
344.30,-1.52,0.13,-1.51,0.14,-0.13,-0.39,-0.30,-1.65,-1.64,-1.65
347.75,-1.51,0.13,-1.52,0.13,-0.10,-0.38,-0.27,-1.62,-1.62,-1.64
351.23,-1.51,0.12,-1.54,0.10,-0.08,-0.37,-0.23,-1.59,-1.62,-1.64
354.74,-1.58,0.05,-1.56,0.07,-0.05,-0.36,-0.19,-1.64,-1.62,-1.64
358.28,-1.60,0.02,-1.60,0.03,-0.03,-0.35,-0.15,-1.64,-1.64,-1.63
361.87,-1.62,0.00,-1.64,-0.02,-0.01,-0.34,-0.12,-1.63,-1.65,-1.63
365.49,-1.68,-0.06,-1.67,-0.04,0.02,-0.33,-0.08,-1.67,-1.65,-1.62
369.14,-1.68,-0.06,-1.68,-0.05,0.04,-0.33,-0.04,-1.64,-1.63,-1.62
372.83,-1.67,-0.05,-1.68,-0.06,0.07,-0.32,-0.01,-1.61,-1.61,-1.62
376.56,-1.66,-0.04,-1.68,-0.06,0.08,-0.31,0.03,-1.58,-1.59,-1.62
380.33,-1.68,-0.08,-1.69,-0.08,0.10,-0.30,0.06,-1.59,-1.60,-1.60
384.13,-1.73,-0.12,-1.72,-0.11,0.11,-0.29,0.10,-1.63,-1.61,-1.62
387.97,-1.74,-0.13,-1.74,-0.13,0.11,-0.29,0.14,-1.63,-1.63,-1.62
391.85,-1.74,-0.13,-1.75,-0.14,0.12,-0.28,0.17,-1.63,-1.63,-1.62
395.77,-1.74,-0.14,-1.75,-0.13,0.12,-0.27,0.21,-1.62,-1.62,-1.61
399.73,-1.74,-0.14,-1.74,-0.13,0.13,-0.27,0.24,-1.61,-1.61,-1.61
403.72,-1.74,-0.13,-1.75,-0.13,0.14,-0.26,0.27,-1.61,-1.61,-1.62
407.76,-1.74,-0.12,-1.74,-0.13,0.14,-0.26,0.31,-1.60,-1.60,-1.62
411.84,-1.75,-0.14,-1.75,-0.13,0.15,-0.25,0.34,-1.60,-1.60,-1.61
415.96,-1.75,-0.13,-1.77,-0.16,0.16,-0.24,0.37,-1.59,-1.61,-1.62
420.12,-1.80,-0.18,-1.80,-0.18,0.18,-0.24,0.40,-1.62,-1.62,-1.62
424.32,-1.84,-0.23,-1.82,-0.21,0.20,-0.23,0.43,-1.64,-1.62,-1.61
428.56,-1.83,-0.22,-1.84,-0.23,0.23,-0.23,0.46,-1.61,-1.61,-1.61
432.85,-1.82,-0.23,-1.84,-0.25,0.25,-0.22,0.49,-1.58,-1.59,-1.59
437.18,-1.83,-0.26,-1.84,-0.27,0.26,-0.22,0.52,-1.57,-1.57,-1.57
441.55,-1.84,-0.31,-1.83,-0.29,0.28,-0.21,0.55,-1.57,-1.55,-1.53
445.96,-1.80,-0.30,-1.80,-0.30,0.28,-0.21,0.57,-1.53,-1.53,-1.50
450.42,-1.75,-0.28,-1.76,-0.29,0.28,-0.20,0.59,-1.48,-1.48,-1.48
454.93,-1.69,-0.28,-1.70,-0.27,0.27,-0.20,0.61,-1.42,-1.42,-1.42
459.48,-1.63,-0.26,-1.64,-0.27,0.27,-0.19,0.63,-1.37,-1.37,-1.38
464.07,-1.57,-0.26,-1.57,-0.26,0.27,-0.19,0.65,-1.31,-1.31,-1.32
