frequency,raw,error,smoothed,error_smoothed,equalization,parametric_eq,fixed_band_eq,equalized_raw,equalized_smoothed,target
20.00,-3.24,-5.85,-3.23,-5.85,5.87,5.60,0.40,2.63,2.63,2.62
20.20,-3.10,-5.75,-3.10,-5.75,5.76,5.51,0.41,2.66,2.66,2.66
20.40,-2.95,-5.65,-2.96,-5.65,5.65,5.41,0.43,2.70,2.69,2.70
20.61,-2.82,-5.54,-2.82,-5.54,5.54,5.31,0.45,2.72,2.72,2.72
20.81,-2.67,-5.43,-2.68,-5.44,5.42,5.21,0.46,2.75,2.75,2.76
21.02,-2.54,-5.33,-2.53,-5.32,5.31,5.10,0.48,2.77,2.77,2.80
21.23,-2.39,-5.19,-2.38,-5.20,5.18,4.98,0.50,2.80,2.80,2.81
21.44,-2.23,-5.06,-2.24,-5.06,5.06,4.86,0.52,2.82,2.82,2.83
21.66,-2.09,-4.92,-2.09,-4.92,4.93,4.74,0.54,2.84,2.84,2.84
21.87,-1.94,-4.78,-1.94,-4.78,4.79,4.62,0.56,2.85,2.85,2.84
22.09,-1.79,-4.64,-1.80,-4.65,4.65,4.49,0.58,2.86,2.85,2.85
22.31,-1.66,-4.51,-1.66,-4.51,4.51,4.36,0.60,2.85,2.85,2.85
22.54,-1.54,-4.38,-1.53,-4.38,4.38,4.23,0.62,2.84,2.84,2.85
22.76,-1.40,-4.24,-1.40,-4.24,4.24,4.09,0.65,2.84,2.84,2.84
22.99,-1.28,-4.10,-1.28,-4.11,4.11,3.96,0.67,2.83,2.83,2.83
23.22,-1.15,-3.97,-1.15,-3.97,3.98,3.82,0.69,2.83,2.83,2.83
23.45,-1.02,-3.84,-1.02,-3.84,3.85,3.68,0.72,2.82,2.82,2.82
23.69,-0.90,-3.71,-0.90,-3.72,3.71,3.54,0.74,2.81,2.81,2.81
23.92,-0.77,-3.59,-0.77,-3.59,3.57,3.40,0.76,2.80,2.81,2.81
24.16,-0.63,-3.46,-0.63,-3.45,3.44,3.25,0.79,2.80,2.81,2.82
24.40,-0.48,-3.31,-0.49,-3.31,3.30,3.11,0.81,2.82,2.81,2.82
24.65,-0.35,-3.16,-0.34,-3.16,3.17,2.97,0.84,2.82,2.82,2.81
24.89,-0.19,-3.01,-0.20,-3.01,3.03,2.82,0.86,2.84,2.83,2.81
25.14,-0.06,-2.88,-0.06,-2.87,2.89,2.68,0.89,2.83,2.83,2.81
25.39,0.07,-2.74,0.06,-2.75,2.75,2.54,0.91,2.82,2.81,2.81
25.65,0.18,-2.62,0.18,-2.62,2.61,2.39,0.93,2.79,2.79,2.80
25.91,0.30,-2.49,0.31,-2.48,2.47,2.25,0.95,2.77,2.78,2.79
26.16,0.46,-2.33,0.45,-2.34,2.33,2.11,0.97,2.78,2.78,2.79
26.43,0.60,-2.19,0.60,-2.18,2.18,1.97,0.99,2.79,2.79,2.79
26.69,0.75,-2.03,0.75,-2.03,2.04,1.82,1.01,2.79,2.79,2.79
26.96,0.90,-1.88,0.90,-1.89,1.89,1.68,1.03,2.79,2.79,2.78
27.23,1.03,-1.74,1.04,-1.74,1.74,1.54,1.04,2.78,2.78,2.78
27.50,1.17,-1.60,1.18,-1.60,1.60,1.40,1.06,2.77,2.77,2.78
27.77,1.32,-1.45,1.31,-1.45,1.45,1.26,1.07,2.77,2.77,2.77
28.05,1.46,-1.31,1.45,-1.31,1.31,1.12,1.08,2.77,2.76,2.77
28.33,1.59,-1.17,1.59,-1.17,1.17,0.98,1.08,2.76,2.76,2.75
28.62,1.72,-1.03,1.72,-1.03,1.04,0.85,1.08,2.76,2.76,2.75
28.90,1.86,-0.90,1.86,-0.90,0.90,0.71,1.08,2.75,2.75,2.75
29.19,1.99,-0.76,1.99,-0.76,0.76,0.57,1.07,2.75,2.75,2.75
29.48,2.13,-0.64,2.12,-0.63,0.62,0.44,1.06,2.74,2.74,2.76
29.78,2.25,-0.50,2.25,-0.50,0.48,0.30,1.05,2.74,2.74,2.75
30.08,2.38,-0.38,2.38,-0.37,0.36,0.17,1.03,2.74,2.74,2.76
30.38,2.51,-0.23,2.52,-0.22,0.24,0.04,1.01,2.76,2.77,2.74
30.68,2.64,-0.09,2.65,-0.09,0.14,-0.09,0.98,2.78,2.78,2.74
30.99,2.77,0.05,2.75,0.02,0.03,-0.23,0.95,2.80,2.78,2.73
31.30,2.82,0.10,2.82,0.09,-0.08,-0.36,0.91,2.74,2.74,2.72
31.61,2.87,0.15,2.88,0.16,-0.20,-0.48,0.87,2.68,2.68,2.72
31.93,2.92,0.22,2.95,0.25,-0.32,-0.61,0.83,2.61,2.64,2.70
32.24,3.08,0.39,3.08,0.38,-0.44,-0.74,0.77,2.63,2.63,2.69
32.57,3.24,0.55,3.24,0.56,-0.58,-0.87,0.72,2.67,2.66,2.69
32.89,3.43,0.75,3.41,0.74,-0.72,-0.99,0.66,2.71,2.70,2.68
33.22,3.58,0.92,3.57,0.91,-0.87,-1.12,0.59,2.71,2.70,2.66
33.55,3.70,1.04,3.70,1.05,-1.02,-1.24,0.52,2.67,2.68,2.65
33.89,3.82,1.19,3.82,1.19,-1.17,-1.36,0.45,2.65,2.65,2.63
34.23,3.94,1.31,3.94,1.32,-1.31,-1.48,0.37,2.63,2.63,2.63
34.57,4.05,1.45,4.06,1.44,-1.45,-1.60,0.29,2.61,2.61,2.61
34.92,4.16,1.57,4.17,1.56,-1.58,-1.72,0.20,2.59,2.59,2.60
35.27,4.27,1.68,4.27,1.69,-1.70,-1.84,0.11,2.57,2.57,2.60
35.62,4.38,1.81,4.38,1.80,-1.81,-1.96,0.02,2.57,2.57,2.57
35.97,4.49,1.92,4.49,1.93,-1.92,-2.07,-0.08,2.56,2.57,2.56
36.33,4.61,2.05,4.62,2.06,-2.03,-2.19,-0.18,2.58,2.59,2.56
36.70,4.73,2.19,4.73,2.18,-2.14,-2.30,-0.28,2.59,2.58,2.55
37.06,4.85,2.31,4.82,2.27,-2.27,-2.42,-0.38,2.58,2.55,2.53
37.43,4.89,2.34,4.88,2.35,-2.39,-2.53,-0.49,2.49,2.49,2.54
37.81,4.93,2.40,4.96,2.43,-2.52,-2.64,-0.60,2.42,2.44,2.53
38.19,5.06,2.55,5.10,2.58,-2.63,-2.75,-0.71,2.43,2.48,2.52
38.57,5.28,2.76,5.28,2.77,-2.73,-2.86,-0.83,2.56,2.56,2.52
38.95,5.50,2.99,5.44,2.93,-2.82,-2.97,-0.94,2.69,2.62,2.51
39.34,5.52,3.02,5.52,3.02,-2.91,-3.07,-1.06,2.61,2.61,2.51
39.74,5.52,3.03,5.54,3.05,-3.01,-3.18,-1.18,2.51,2.53,2.50
40.14,5.53,3.04,5.54,3.05,-3.12,-3.28,-1.30,2.42,2.42,2.49
40.54,5.60,3.12,5.59,3.11,-3.22,-3.38,-1.43,2.38,2.37,2.49
40.94,5.68,3.19,5.71,3.22,-3.31,-3.48,-1.55,2.36,2.39,2.49
41.35,5.86,3.38,5.87,3.39,-3.40,-3.58,-1.68,2.45,2.46,2.47
41.76,6.05,3.59,6.02,3.56,-3.50,-3.68,-1.81,2.54,2.52,2.46
42.18,6.17,3.72,6.15,3.69,-3.61,-3.78,-1.94,2.57,2.54,2.45
42.60,6.21,3.77,6.22,3.77,-3.72,-3.87,-2.08,2.49,2.50,2.44
43.03,6.24,3.81,6.26,3.83,-3.83,-3.97,-2.21,2.42,2.43,2.44
43.46,6.30,3.89,6.30,3.89,-3.93,-4.06,-2.35,2.38,2.38,2.41
43.90,6.37,3.99,6.37,3.98,-4.02,-4.15,-2.49,2.35,2.35,2.39
44.33,6.46,4.08,6.46,4.09,-4.11,-4.24,-2.63,2.34,2.34,2.37
44.78,6.54,4.20,6.54,4.19,-4.21,-4.32,-2.77,2.34,2.33,2.35
45.23,6.63,4.30,6.64,4.30,-4.31,-4.41,-2.91,2.33,2.33,2.33
45.68,6.73,4.42,6.73,4.42,-4.41,-4.49,-3.06,2.33,2.33,2.32
46.13,6.84,4.53,6.84,4.53,-4.51,-4.57,-3.21,2.32,2.33,2.30
46.60,6.93,4.64,6.93,4.64,-4.61,-4.66,-3.36,2.32,2.32,2.30
47.06,7.02,4.74,7.01,4.72,-4.70,-4.73,-3.51,2.32,2.30,2.29
47.53,7.06,4.78,7.07,4.78,-4.79,-4.81,-3.66,2.27,2.28,2.28
48.01,7.11,4.84,7.13,4.86,-4.88,-4.89,-3.82,2.24,2.26,2.28
48.49,7.20,4.94,7.20,4.94,-4.96,-4.96,-3.97,2.24,2.24,2.26
48.97,7.29,5.05,7.28,5.03,-5.04,-5.03,-4.13,2.25,2.24,2.24
49.46,7.35,5.12,7.35,5.12,-5.12,-5.10,-4.29,2.23,2.23,2.24
49.96,7.40,5.18,7.43,5.20,-5.20,-5.17,-4.45,2.21,2.23,2.22
50.46,7.50,5.27,7.51,5.28,-5.27,-5.24,-4.61,2.23,2.24,2.23
50.96,7.60,5.38,7.58,5.36,-5.34,-5.30,-4.77,2.27,2.24,2.22
51.47,7.64,5.43,7.64,5.43,-5.40,-5.36,-4.93,2.24,2.24,2.22
51.99,7.67,5.47,7.68,5.47,-5.47,-5.42,-5.09,2.21,2.22,2.21
52.51,7.71,5.51,7.71,5.51,-5.53,-5.48,-5.25,2.19,2.19,2.21
53.03,7.75,5.55,7.75,5.55,-5.59,-5.54,-5.41,2.17,2.17,2.21
53.56,7.80,5.60,7.81,5.61,-5.64,-5.60,-5.57,2.17,2.17,2.20
54.10,7.86,5.67,7.88,5.68,-5.68,-5.65,-5.72,2.18,2.20,2.19
54.64,7.95,5.76,7.95,5.76,-5.73,-5.70,-5.88,2.23,2.22,2.19
55.18,8.01,5.84,8.00,5.82,-5.77,-5.75,-6.03,2.25,2.23,2.18
55.74,8.01,5.85,8.01,5.83,-5.81,-5.80,-6.17,2.20,2.19,2.17
56.29,7.99,5.83,7.99,5.83,-5.86,-5.85,-6.31,2.14,2.13,2.17
56.86,7.96,5.82,8.00,5.85,-5.89,-5.89,-6.45,2.07,2.11,2.15
57.42,8.03,5.89,8.03,5.90,-5.92,-5.94,-6.57,2.10,2.11,2.13
58.00,8.11,5.99,8.08,5.96,-5.95,-5.98,-6.70,2.16,2.13,2.12
58.58,8.11,6.01,8.12,6.01,-5.98,-6.02,-6.81,2.13,2.13,2.11
59.16,8.11,6.02,8.12,6.03,-6.02,-6.06,-6.91,2.09,2.10,2.10
59.76,8.11,6.04,8.11,6.04,-6.06,-6.10,-7.01,2.05,2.05,2.07
60.35,8.11,6.07,8.12,6.07,-6.09,-6.14,-7.10,2.02,2.02,2.05
60.96,8.11,6.09,8.13,6.11,-6.11,-6.18,-7.17,2.01,2.02,2.02
61.57,8.13,6.16,8.13,6.15,-6.12,-6.21,-7.24,2.02,2.02,1.98
62.18,8.13,6.19,8.12,6.18,-6.12,-6.25,-7.30,2.01,2.00,1.94
62.80,8.08,6.18,8.06,6.16,-6.13,-6.28,-7.34,1.95,1.93,1.91
63.43,7.98,6.11,7.98,6.11,-6.14,-6.31,-7.38,1.84,1.84,1.87
64.07,7.88,6.04,7.92,6.09,-6.15,-6.34,-7.40,1.73,1.77,1.83
64.71,7.90,6.11,7.91,6.11,-6.15,-6.37,-7.42,1.75,1.75,1.80
65.35,7.92,6.16,7.91,6.15,-6.15,-6.40,-7.43,1.77,1.76,1.77
66.01,7.94,6.21,7.91,6.18,-6.15,-6.43,-7.42,1.80,1.76,1.73
66.67,7.85,6.16,7.89,6.20,-6.14,-6.46,-7.41,1.71,1.75,1.69
67.33,7.82,6.16,7.84,6.18,-6.14,-6.49,-7.39,1.68,1.70,1.66
68.01,7.83,6.21,7.76,6.14,-6.15,-6.51,-7.36,1.69,1.62,1.62
68.69,7.67,6.09,7.70,6.12,-6.14,-6.54,-7.33,1.53,1.56,1.58
69.37,7.60,6.07,7.64,6.10,-6.13,-6.56,-7.29,1.48,1.51,1.54
70.07,7.61,6.12,7.60,6.10,-6.12,-6.59,-7.25,1.49,1.48,1.50
70.77,7.62,6.16,7.60,6.13,-6.12,-6.61,-7.21,1.50,1.47,1.46
71.48,7.57,6.15,7.57,6.15,-6.14,-6.64,-7.16,1.44,1.44,1.42
72.19,7.51,6.14,7.53,6.16,-6.17,-6.66,-7.11,1.35,1.37,1.38
72.91,7.51,6.19,7.51,6.18,-6.21,-6.69,-7.05,1.30,1.29,1.32
73.64,7.51,6.24,7.53,6.25,-6.27,-6.71,-7.00,1.24,1.25,1.28
74.38,7.55,6.32,7.56,6.32,-6.33,-6.73,-6.95,1.22,1.22,1.23
75.12,7.61,6.43,7.59,6.40,-6.40,-6.76,-6.90,1.22,1.19,1.19
75.87,7.62,6.46,7.64,6.49,-6.46,-6.78,-6.84,1.15,1.17,1.15
76.63,7.67,6.56,7.67,6.56,-6.53,-6.80,-6.80,1.14,1.14,1.11
77.40,7.71,6.64,7.69,6.62,-6.60,-6.82,-6.75,1.11,1.09,1.08
78.17,7.71,6.68,7.71,6.67,-6.67,-6.85,-6.70,1.05,1.05,1.04
78.95,7.70,6.70,7.72,6.72,-6.73,-6.87,-6.66,0.98,1.00,1.01
79.74,7.74,6.77,7.75,6.77,-6.78,-6.89,-6.62,0.96,0.96,0.98
80.54,7.78,6.84,7.78,6.83,-6.84,-6.91,-6.59,0.95,0.94,0.95
81.35,7.81,6.90,7.81,6.89,-6.89,-6.93,-6.56,0.92,0.91,0.92
82.16,7.82,6.94,7.84,6.95,-6.95,-6.96,-6.53,0.88,0.89,0.89
82.98,7.85,6.99,7.86,7.01,-7.00,-6.98,-6.51,0.85,0.86,0.87
83.81,7.90,7.08,7.89,7.06,-7.05,-7.00,-6.49,0.85,0.84,0.82
84.65,7.91,7.12,7.91,7.12,-7.10,-7.02,-6.48,0.82,0.81,0.79
85.50,7.91,7.15,7.92,7.16,-7.14,-7.04,-6.47,0.78,0.78,0.77
86.35,7.91,7.18,7.92,7.18,-7.18,-7.07,-6.46,0.74,0.74,0.73
87.22,7.91,7.22,7.91,7.21,-7.22,-7.09,-6.47,0.69,0.69,0.70
88.09,7.91,7.25,7.91,7.24,-7.27,-7.11,-6.47,0.65,0.64,0.66
88.97,7.91,7.28,7.92,7.28,-7.31,-7.13,-6.48,0.60,0.60,0.64
89.86,7.91,7.31,7.94,7.34,-7.36,-7.15,-6.50,0.56,0.58,0.60
90.76,7.99,7.43,7.98,7.41,-7.41,-7.17,-6.52,0.59,0.57,0.57
91.66,8.02,7.48,8.01,7.47,-7.46,-7.19,-6.54,0.57,0.55,0.54
92.58,8.02,7.52,8.03,7.53,-7.50,-7.21,-6.57,0.52,0.53,0.50
93.51,8.02,7.55,8.03,7.55,-7.54,-7.23,-6.61,0.48,0.49,0.48
94.44,8.02,7.58,8.03,7.58,-7.57,-7.26,-6.65,0.45,0.46,0.45
95.39,8.02,7.60,8.02,7.60,-7.59,-7.28,-6.69,0.43,0.43,0.42
96.34,8.00,7.62,7.99,7.61,-7.60,-7.29,-6.74,0.40,0.39,0.38
97.30,7.95,7.60,7.95,7.60,-7.61,-7.31,-6.79,0.35,0.35,0.35
98.28,7.89,7.57,7.91,7.59,-7.60,-7.33,-6.85,0.29,0.31,0.32
99.26,7.88,7.58,7.89,7.58,-7.60,-7.35,-6.91,0.28,0.29,0.31
100.25,7.87,7.60,7.87,7.59,-7.59,-7.37,-6.97,0.28,0.28,0.28
101.25,7.85,7.61,7.85,7.60,-7.59,-7.39,-7.04,0.27,0.26,0.25
102.27,7.81,7.60,7.81,7.59,-7.58,-7.40,-7.11,0.23,0.22,0.22
103.29,7.75,7.59,7.76,7.58,-7.59,-7.42,-7.18,0.17,0.17,0.17
104.32,7.70,7.56,7.71,7.57,-7.59,-7.44,-7.25,0.11,0.12,0.15
105.37,7.68,7.57,7.68,7.57,-7.59,-7.45,-7.33,0.09,0.09,0.11
106.42,7.65,7.57,7.65,7.58,-7.59,-7.46,-7.40,0.07,0.07,0.08
107.48,7.63,7.59,7.64,7.60,-7.58,-7.48,-7.48,0.06,0.06,0.04
108.56,7.60,7.60,7.61,7.61,-7.57,-7.49,-7.55,0.04,0.04,0.00
109.64,7.58,7.62,7.56,7.59,-7.56,-7.50,-7.63,0.02,-0.01,-0.04
110.74,7.48,7.55,7.48,7.55,-7.55,-7.51,-7.70,-0.07,-0.07,-0.07
111.85,7.37,7.47,7.40,7.51,-7.54,-7.52,-7.77,-0.16,-0.13,-0.10
112.97,7.34,7.49,7.35,7.49,-7.52,-7.53,-7.83,-0.17,-0.16,-0.14
114.10,7.33,7.50,7.33,7.50,-7.50,-7.53,-7.90,-0.17,-0.17,-0.16
115.24,7.32,7.53,7.30,7.50,-7.48,-7.54,-7.95,-0.16,-0.18,-0.20
116.39,7.25,7.48,7.25,7.48,-7.47,-7.54,-8.00,-0.22,-0.22,-0.23
117.55,7.17,7.43,7.19,7.45,-7.46,-7.55,-8.05,-0.28,-0.27,-0.26
118.73,7.14,7.43,7.16,7.44,-7.45,-7.55,-8.09,-0.30,-0.29,-0.28
119.92,7.14,7.44,7.14,7.44,-7.44,-7.55,-8.12,-0.29,-0.29,-0.29
121.12,7.14,7.46,7.12,7.44,-7.42,-7.55,-8.14,-0.28,-0.30,-0.32
122.33,7.08,7.42,7.08,7.41,-7.41,-7.54,-8.15,-0.32,-0.33,-0.33
123.55,7.01,7.35,7.03,7.38,-7.39,-7.54,-8.15,-0.37,-0.35,-0.34
124.79,6.97,7.34,6.99,7.35,-7.37,-7.53,-8.15,-0.39,-0.37,-0.37
126.03,6.98,7.36,6.96,7.34,-7.34,-7.52,-8.13,-0.35,-0.38,-0.38
127.29,6.92,7.32,6.92,7.32,-7.30,-7.52,-8.10,-0.38,-0.38,-0.39
128.57,6.86,7.28,6.87,7.29,-7.27,-7.50,-8.07,-0.40,-0.40,-0.42
129.85,6.80,7.24,6.80,7.23,-7.23,-7.49,-8.03,-0.42,-0.43,-0.43
131.15,6.73,7.18,6.74,7.18,-7.19,-7.48,-7.97,-0.46,-0.45,-0.45
132.46,6.67,7.13,6.68,7.13,-7.15,-7.46,-7.91,-0.48,-0.48,-0.46
133.79,6.62,7.08,6.62,7.09,-7.11,-7.44,-7.84,-0.49,-0.49,-0.46
135.12,6.56,7.06,6.58,7.06,-7.07,-7.42,-7.77,-0.50,-0.49,-0.49
136.48,6.53,7.03,6.54,7.03,-7.02,-7.40,-7.69,-0.49,-0.49,-0.49
137.84,6.51,7.03,6.48,7.00,-6.98,-7.37,-7.60,-0.46,-0.50,-0.51
139.22,6.39,6.94,6.42,6.96,-6.93,-7.35,-7.51,-0.53,-0.51,-0.54
140.61,6.32,6.89,6.34,6.90,-6.88,-7.32,-7.41,-0.55,-0.53,-0.56
142.02,6.29,6.85,6.26,6.82,-6.83,-7.29,-7.31,-0.53,-0.57,-0.56
143.44,6.17,6.75,6.19,6.77,-6.78,-7.26,-7.21,-0.60,-0.59,-0.58
144.87,6.09,6.70,6.11,6.71,-6.74,-7.22,-7.11,-0.64,-0.63,-0.61
146.32,6.04,6.68,6.03,6.66,-6.70,-7.19,-7.01,-0.65,-0.67,-0.63
147.78,5.96,6.62,5.98,6.64,-6.66,-7.15,-6.90,-0.70,-0.68,-0.66
149.26,5.93,6.63,5.95,6.65,-6.63,-7.11,-6.80,-0.70,-0.68,-0.69
150.75,5.92,6.67,5.89,6.63,-6.61,-7.07,-6.69,-0.69,-0.72,-0.75
152.26,5.83,6.63,5.82,6.61,-6.60,-7.03,-6.59,-0.76,-0.78,-0.79
153.78,5.69,6.54,5.73,6.58,-6.58,-6.99,-6.49,-0.88,-0.84,-0.85
155.32,5.64,6.55,5.65,6.55,-6.56,-6.94,-6.39,-0.91,-0.91,-0.91
156.88,5.58,6.55,5.57,6.53,-6.53,-6.90,-6.30,-0.95,-0.97,-0.96
158.44,5.49,6.53,5.48,6.52,-6.50,-6.85,-6.21,-1.01,-1.02,-1.03
160.03,5.37,6.47,5.39,6.49,-6.48,-6.80,-6.12,-1.10,-1.09,-1.10
161.63,5.29,6.44,5.30,6.45,-6.46,-6.75,-6.03,-1.16,-1.16,-1.15
163.24,5.23,6.44,5.22,6.42,-6.44,-6.69,-5.95,-1.21,-1.22,-1.21
164.88,5.15,6.39,5.17,6.41,-6.43,-6.64,-5.87,-1.27,-1.26,-1.24
166.53,5.12,6.40,5.13,6.40,-6.42,-6.58,-5.79,-1.29,-1.29,-1.28
168.19,5.10,6.41,5.11,6.41,-6.41,-6.53,-5.72,-1.30,-1.30,-1.30
169.87,5.09,6.43,5.09,6.42,-6.40,-6.47,-5.65,-1.30,-1.31,-1.33
171.57,5.07,6.43,5.06,6.41,-6.39,-6.41,-5.59,-1.32,-1.33,-1.35
173.29,5.01,6.37,5.02,6.38,-6.38,-6.35,-5.53,-1.37,-1.36,-1.36
175.02,4.97,6.34,4.99,6.36,-6.37,-6.29,-5.47,-1.39,-1.37,-1.36
176.77,4.97,6.35,4.97,6.34,-6.34,-6.23,-5.42,-1.37,-1.37,-1.37
178.54,4.97,6.35,4.96,6.33,-6.32,-6.16,-5.38,-1.34,-1.35,-1.38
180.32,4.94,6.31,4.94,6.30,-6.29,-6.10,-5.33,-1.34,-1.35,-1.36
182.13,4.89,6.25,4.89,6.25,-6.25,-6.03,-5.30,-1.36,-1.36,-1.36
183.95,4.83,6.19,4.85,6.21,-6.22,-5.97,-5.26,-1.39,-1.37,-1.36
185.79,4.80,6.17,4.82,6.18,-6.19,-5.90,-5.23,-1.39,-1.38,-1.36
187.65,4.80,6.18,4.78,6.16,-6.16,-5.83,-5.20,-1.36,-1.38,-1.38
189.52,4.75,6.13,4.75,6.13,-6.14,-5.77,-5.18,-1.39,-1.39,-1.38
191.42,4.69,6.09,4.71,6.11,-6.12,-5.70,-5.16,-1.42,-1.40,-1.39
193.33,4.67,6.08,4.68,6.09,-6.10,-5.63,-5.14,-1.42,-1.41,-1.40
195.27,4.67,6.09,4.66,6.08,-6.08,-5.56,-5.13,-1.40,-1.41,-1.42
197.22,4.64,6.08,4.63,6.07,-6.05,-5.49,-5.12,-1.40,-1.42,-1.44
199.19,4.57,6.03,4.58,6.03,-6.02,-5.42,-5.11,-1.44,-1.43,-1.46
201.18,4.51,5.98,4.52,5.99,-5.98,-5.35,-5.11,-1.46,-1.46,-1.47
203.19,4.44,5.92,4.45,5.94,-5.94,-5.28,-5.10,-1.49,-1.48,-1.48
205.23,4.38,5.89,4.38,5.88,-5.89,-5.21,-5.10,-1.50,-1.51,-1.51
207.28,4.30,5.81,4.28,5.80,-5.83,-5.13,-5.10,-1.52,-1.54,-1.51
209.35,4.18,5.72,4.21,5.75,-5.75,-5.06,-5.10,-1.57,-1.54,-1.54
211.44,4.10,5.66,4.14,5.69,-5.67,-4.99,-5.11,-1.57,-1.53,-1.56
213.56,4.10,5.67,4.05,5.62,-5.58,-4.92,-5.11,-1.47,-1.53,-1.57
215.69,3.96,5.54,3.95,5.53,-5.48,-4.84,-5.11,-1.52,-1.53,-1.57
217.85,3.78,5.37,3.83,5.42,-5.39,-4.77,-5.11,-1.61,-1.56,-1.58
220.03,3.70,5.30,3.68,5.28,-5.32,-4.70,-5.11,-1.61,-1.63,-1.60
222.23,3.59,5.20,3.57,5.17,-5.25,-4.63,-5.11,-1.65,-1.67,-1.61
224.45,3.46,5.06,3.52,5.12,-5.19,-4.55,-5.11,-1.73,-1.67,-1.59
226.70,3.48,5.08,3.47,5.06,-5.14,-4.48,-5.10,-1.65,-1.66,-1.59
228.96,3.50,5.09,3.47,5.05,-5.07,-4.41,-5.09,-1.57,-1.60,-1.59
231.25,3.42,5.00,3.48,5.06,-4.99,-4.33,-5.08,-1.57,-1.51,-1.57
233.57,3.47,5.03,3.45,5.01,-4.89,-4.26,-5.06,-1.42,-1.44,-1.56
235.90,3.38,4.93,3.35,4.89,-4.77,-4.19,-5.04,-1.39,-1.42,-1.55
238.26,3.19,4.72,3.19,4.72,-4.63,-4.11,-5.01,-1.44,-1.44,-1.52
240.64,2.95,4.45,2.98,4.47,-4.47,-4.04,-4.98,-1.52,-1.50,-1.50
243.05,2.76,4.23,2.76,4.22,-4.31,-3.97,-4.94,-1.55,-1.55,-1.46
245.48,2.59,4.03,2.60,4.04,-4.15,-3.89,-4.90,-1.55,-1.54,-1.44
247.93,2.47,3.89,2.52,3.93,-4.00,-3.82,-4.85,-1.52,-1.48,-1.41
250.41,2.49,3.89,2.46,3.85,-3.87,-3.74,-4.79,-1.38,-1.42,-1.40
252.92,2.43,3.80,2.42,3.78,-3.78,-3.67,-4.72,-1.34,-1.36,-1.36
255.45,2.36,3.70,2.38,3.73,-3.71,-3.60,-4.65,-1.34,-1.33,-1.34
258.00,2.33,3.66,2.36,3.68,-3.66,-3.52,-4.57,-1.32,-1.30,-1.32
260.58,2.34,3.65,2.33,3.63,-3.62,-3.45,-4.49,-1.27,-1.29,-1.30
263.19,2.34,3.62,2.30,3.58,-3.57,-3.37,-4.40,-1.23,-1.27,-1.28
265.82,2.23,3.50,2.28,3.54,-3.53,-3.30,-4.30,-1.29,-1.25,-1.26
268.48,2.22,3.46,2.24,3.47,-3.48,-3.22,-4.20,-1.25,-1.24,-1.24
271.16,2.24,3.45,2.19,3.41,-3.42,-3.15,-4.09,-1.18,-1.23,-1.21
273.87,2.13,3.33,2.16,3.35,-3.36,-3.07,-3.97,-1.22,-1.20,-1.19
276.61,2.09,3.26,2.11,3.28,-3.28,-3.00,-3.86,-1.19,-1.17,-1.17
279.38,2.06,3.20,2.07,3.22,-3.19,-2.92,-3.73,-1.13,-1.12,-1.14
282.17,2.04,3.17,2.01,3.13,-3.09,-2.85,-3.61,-1.05,-1.08,-1.12
284.99,1.94,3.03,1.92,3.01,-2.98,-2.77,-3.48,-1.04,-1.06,-1.09
287.84,1.75,2.81,1.82,2.88,-2.86,-2.69,-3.34,-1.11,-1.04,-1.06
290.72,1.73,2.76,1.71,2.73,-2.74,-2.61,-3.21,-1.00,-1.03,-1.02
293.63,1.61,2.61,1.59,2.58,-2.61,-2.53,-3.07,-1.00,-1.02,-0.99
296.57,1.49,2.45,1.49,2.45,-2.48,-2.46,-2.93,-0.98,-0.99,-0.96
299.53,1.32,2.26,1.39,2.32,-2.35,-2.37,-2.79,-1.02,-0.96,-0.94
302.53,1.32,2.24,1.32,2.22,-2.22,-2.29,-2.64,-0.89,-0.90,-0.91
305.55,1.28,2.16,1.24,2.12,-2.10,-2.21,-2.50,-0.82,-0.86,-0.87
308.61,1.16,2.02,1.16,2.02,-2.00,-2.12,-2.35,-0.83,-0.84,-0.86
311.69,1.02,1.86,1.05,1.88,-1.90,-2.04,-2.20,-0.87,-0.85,-0.84
314.81,0.94,1.74,0.94,1.75,-1.79,-1.95,-2.06,-0.85,-0.85,-0.80
317.96,0.87,1.67,0.87,1.66,-1.67,-1.86,-1.91,-0.80,-0.80,-0.79
321.14,0.80,1.58,0.82,1.59,-1.55,-1.77,-1.76,-0.75,-0.73,-0.77
324.35,0.75,1.52,0.74,1.50,-1.43,-1.67,-1.61,-0.67,-0.69,-0.76
327.59,0.63,1.38,0.60,1.34,-1.31,-1.57,-1.47,-0.68,-0.72,-0.75
330.87,0.42,1.16,0.44,1.18,-1.20,-1.47,-1.32,-0.77,-0.76,-0.74
334.18,0.24,0.97,0.29,1.02,-1.09,-1.37,-1.17,-0.84,-0.80,-0.73
337.52,0.20,0.93,0.18,0.90,-0.98,-1.26,-1.02,-0.77,-0.80,-0.72
340.90,0.13,0.84,0.15,0.85,-0.86,-1.15,-0.88,-0.73,-0.72,-0.70
344.30,0.08,0.78,0.11,0.80,-0.75,-1.03,-0.73,-0.66,-0.64,-0.69
347.75,0.08,0.77,0.00,0.69,-0.64,-0.91,-0.58,-0.55,-0.64,-0.68
351.23,-0.14,0.54,-0.13,0.55,-0.53,-0.78,-0.43,-0.66,-0.65,-0.68
354.74,-0.33,0.35,-0.25,0.42,-0.41,-0.65,-0.29,-0.74,-0.67,-0.68
358.28,-0.37,0.30,-0.37,0.30,-0.30,-0.51,-0.14,-0.67,-0.67,-0.67
361.87,-0.44,0.23,-0.49,0.18,-0.18,-0.36,0.01,-0.62,-0.67,-0.67
365.49,-0.60,0.07,-0.62,0.04,-0.05,-0.22,0.15,-0.65,-0.67,-0.66
369.14,-0.83,-0.16,-0.75,-0.09,0.07,-0.06,0.30,-0.76,-0.69,-0.66
372.83,-0.86,-0.19,-0.85,-0.19,0.16,0.09,0.45,-0.69,-0.68,-0.66
376.56,-0.88,-0.21,-0.90,-0.25,0.24,0.25,0.59,-0.63,-0.66,-0.66
380.33,-0.95,-0.30,-0.98,-0.33,0.31,0.40,0.74,-0.63,-0.67,-0.64
384.13,-1.08,-0.42,-1.09,-0.43,0.38,0.55,0.88,-0.69,-0.70,-0.66
387.97,-1.24,-0.58,-1.14,-0.49,0.46,0.68,1.03,-0.77,-0.68,-0.66
391.85,-1.17,-0.51,-1.16,-0.50,0.55,0.81,1.17,-0.62,-0.61,-0.66
395.77,-1.11,-0.46,-1.20,-0.55,0.64,0.91,1.32,-0.47,-0.56,-0.65
399.73,-1.29,-0.64,-1.31,-0.66,0.74,1.00,1.46,-0.55,-0.58,-0.65
403.72,-1.55,-0.89,-1.51,-0.85,0.85,1.07,1.60,-0.70,-0.66,-0.66
407.76,-1.75,-1.09,-1.68,-1.02,0.97,1.13,1.74,-0.77,-0.71,-0.66
411.84,-1.79,-1.13,-1.81,-1.16,1.10,1.17,1.88,-0.68,-0.71,-0.65
415.96,-1.85,-1.18,-1.90,-1.24,1.24,1.21,2.02,-0.61,-0.66,-0.66
420.12,-2.05,-1.38,-1.97,-1.31,1.37,1.24,2.16,-0.68,-0.60,-0.66
424.32,-2.07,-1.41,-2.11,-1.45,1.46,1.27,2.29,-0.60,-0.65,-0.65
428.56,-2.19,-1.53,-2.25,-1.60,1.54,1.31,2.42,-0.65,-0.72,-0.65
432.85,-2.43,-1.79,-2.31,-1.67,1.60,1.35,2.55,-0.83,-0.71,-0.63
437.18,-2.37,-1.75,-2.34,-1.73,1.66,1.39,2.68,-0.71,-0.68,-0.61
441.55,-2.22,-1.64,-2.31,-1.73,1.73,1.44,2.80,-0.49,-0.58,-0.57
445.96,-2.28,-1.73,-2.26,-1.71,1.81,1.50,2.92,-0.47,-0.45,-0.55
450.42,-2.31,-1.79,-2.28,-1.77,1.89,1.57,3.03,-0.41,-0.38,-0.52
454.93,-2.35,-1.89,-2.38,-1.92,1.98,1.65,3.13,-0.37,-0.40,-0.46
459.48,-2.45,-2.03,-2.49,-2.07,2.08,1.73,3.23,-0.37,-0.41,-0.42
464.07,-2.66,-2.30,-2.57,-2.22,2.19,1.82,3.33,-0.47,-0.39,-0.36
468.71,-2.67,-2.36,-2.65,-2.34,2.28,1.92,3.41,-0.38,-0.36,-0.31
473.40,-2.63,-2.37,-2.73,-2.47,2.38,2.03,3.50,-0.25,-0.35,-0.26
478.13,-2.75,-2.54,-2.72,-2.51,2.46,2.14,3.57,-0.28,-0.26,-0.21
482.91,-2.83,-2.66,-2.69,-2.53,2.52,2.26,3.63,-0.30,-0.17,-0.17
487.74,-2.58,-2.46,-2.70,-2.58,2.57,2.38,3.69,-0.01,-0.14,-0.12
492.62,-2.61,-2.53,-2.64,-2.55,2.61,2.51,3.74,0.00,-0.03,-0.08
497.55,-2.77,-2.72,-2.61,-2.56,2.65,2.65,3.78,-0.12,0.04,-0.05
502.52,-2.56,-2.54,-2.74,-2.71,2.70,2.78,3.81,0.14,-0.04,-0.02
