frequency,raw
20.00,1.40
20.20,1.47
20.40,1.54
20.61,1.60
20.81,1.67
21.02,1.73
21.23,1.80
21.44,1.87
21.66,1.94
21.87,1.99
22.09,2.06
22.31,2.12
22.54,2.17
22.76,2.23
22.99,2.29
23.22,2.34
23.45,2.40
23.69,2.46
23.92,2.50
24.16,2.56
24.40,2.60
24.65,2.66
24.89,2.70
25.14,2.76
25.39,2.81
25.65,2.86
25.91,2.91
26.16,2.96
26.43,3.00
26.69,3.06
26.96,3.10
27.23,3.15
27.50,3.20
27.77,3.24
28.05,3.29
28.33,3.33
28.62,3.37
28.90,3.43
29.19,3.47
29.48,3.50
29.78,3.54
30.08,3.58
30.38,3.63
30.68,3.67
30.99,3.71
31.30,3.74
31.61,3.78
31.93,3.81
32.24,3.84
32.57,3.88
32.89,3.91
33.22,3.94
33.55,3.97
33.89,4.00
34.23,4.03
34.57,4.06
34.92,4.08
35.27,4.11
35.62,4.14
35.97,4.17
36.33,4.20
36.70,4.23
37.06,4.25
37.43,4.29
37.81,4.32
38.19,4.35
38.57,4.39
38.95,4.42
39.34,4.45
39.74,4.48
40.14,4.52
40.54,4.54
40.94,4.56
41.35,4.58
41.76,4.61
42.18,4.63
42.60,4.65
43.03,4.66
43.46,4.68
43.90,4.70
44.33,4.72
44.78,4.75
45.23,4.77
45.68,4.79
46.13,4.82
46.60,4.84
47.06,4.86
47.53,4.90
48.01,4.92
48.49,4.94
48.97,4.96
49.46,4.98
49.96,5.00
50.46,5.02
50.96,5.04
51.47,5.04
51.99,5.06
52.51,5.08
53.03,5.09
53.56,5.10
54.10,5.10
54.64,5.11
55.18,5.12
55.74,5.13
56.29,5.13
56.86,5.13
57.42,5.13
58.00,5.13
58.58,5.14
59.16,5.14
59.76,5.14
60.35,5.14
60.96,5.15
61.57,5.16
62.18,5.17
62.80,5.18
63.43,5.20
64.07,5.22
64.71,5.25
65.35,5.27
66.01,5.29
66.67,5.32
67.33,5.34
68.01,5.36
68.69,5.38
69.37,5.40
70.07,5.42
70.77,5.44
71.48,5.44
72.19,5.45
72.91,5.46
73.64,5.47
74.38,5.46
75.12,5.45
75.87,5.43
76.63,5.42
77.40,5.42
78.17,5.41
78.95,5.41
79.74,5.41
80.54,5.40
81.35,5.40
82.16,5.40
82.98,5.40
83.81,5.40
84.65,5.39
85.50,5.39
86.35,5.39
87.22,5.39
88.09,5.39
88.97,5.39
89.86,5.39
90.76,5.39
91.66,5.39
92.58,5.39
93.51,5.39
94.44,5.39
95.39,5.39
96.34,5.39
97.30,5.38
98.28,5.38
99.26,5.38
100.25,5.38
101.25,5.38
102.27,5.38
103.29,5.38
104.32,5.37
105.37,5.37
106.42,5.37
107.48,5.36
108.56,5.36
109.64,5.36
110.74,5.36
111.85,5.37
112.97,5.36
114.10,5.37
115.24,5.37
116.39,5.36
117.55,5.34
118.73,5.33
119.92,5.30
121.12,5.27
122.33,5.24
123.55,5.21
124.79,5.16
126.03,5.12
127.29,5.08
128.57,5.05
129.85,5.02
131.15,5.00
132.46,4.98
133.79,4.96
135.12,4.96
136.48,4.96
137.84,4.97
139.22,4.97
140.61,4.98
142.02,4.97
143.44,4.97
144.87,4.97
146.32,4.96
147.78,4.96
149.26,4.96
150.75,4.95
152.26,4.95
153.78,4.95
155.32,4.94
156.88,4.94
158.44,4.94
160.03,4.94
161.63,4.94
163.24,4.93
164.88,4.93
166.53,4.93
168.19,4.93
169.87,4.92
171.57,4.92
173.29,4.92
175.02,4.93
176.77,4.93
178.54,4.93
180.32,4.92
182.13,4.91
183.95,4.89
185.79,4.86
187.65,4.84
189.52,4.81
191.42,4.78
193.33,4.74
195.27,4.71
197.22,4.68
199.19,4.65
201.18,4.61
203.19,4.59
205.23,4.56
207.28,4.54
209.35,4.54
211.44,4.54
213.56,4.54
215.69,4.55
217.85,4.55
220.03,4.54
222.23,4.53
224.45,4.53
226.70,4.52
228.96,4.51
231.25,4.52
233.57,4.54
235.90,4.55
238.26,4.57
240.64,4.58
243.05,4.61
245.48,4.63
247.93,4.68
250.41,4.69
252.92,4.72
255.45,4.73
258.00,4.76
260.58,4.78
263.19,4.79
265.82,4.80
268.48,4.79
271.16,4.78
273.87,4.77
276.61,4.76
279.38,4.76
282.17,4.75
284.99,4.75
287.84,4.75
290.72,4.75
293.63,4.75
296.57,4.75
299.53,4.75
302.53,4.76
305.55,4.76
308.61,4.74
311.69,4.72
314.81,4.70
317.96,4.67
321.14,4.63
324.35,4.60
327.59,4.56
330.87,4.52
334.18,4.47
337.52,4.43
340.90,4.40
344.30,4.37
347.75,4.36
351.23,4.34
354.74,4.32
358.28,4.33
361.87,4.34
365.49,4.36
369.14,4.36
372.83,4.35
376.56,4.33
380.33,4.31
384.13,4.29
387.97,4.27
391.85,4.22
395.77,4.19
399.73,4.15
403.72,4.13
407.76,4.09
411.84,4.06
415.96,4.02
420.12,3.98
424.32,3.95
428.56,3.90
432.85,3.88
437.18,3.85
441.55,3.84
445.96,3.80
450.42,3.76
454.93,3.71
459.48,3.65
464.07,3.61
468.71,3.56
473.40,3.52
478.13,3.46
482.91,3.41
487.74,3.37
492.62,3.32
497.55,3.28
502.52,3.23
507.55,3.18
512.62,3.13
517.75,3.07
522.93,3.03
528.16,2.99
533.44,2.94
538.77,2.87
544.16,2.81
549.60,2.75
555.10,2.69
560.65,2.63
566.25,2.57
571.92,2.49
577.64,2.43
583.41,2.36
589.25,2.29
595.14,2.21
601.09,2.14
607.10,2.08
613.17,2.00
619.30,1.92
625.50,1.83
631.75,1.75
638.07,1.65
644.45,1.57
650.89,1.47
657.40,1.37
663.98,1.27
670.62,1.18
677.32,1.09
684.10,1.00
690.94,0.91
697.85,0.81
704.83,0.71
711.87,0.62
718.99,0.55
726.18,0.46
733.44,0.36
740.78,0.27
748.19,0.19
755.67,0.11
763.23,0.01
770.86,-0.06
778.57,-0.14
786.35,-0.21
794.22,-0.28
802.16,-0.35
810.18,-0.42
818.28,-0.49
826.46,-0.55
834.73,-0.61
843.08,-0.68
851.51,-0.76
860.02,-0.82
868.62,-0.89
877.31,-0.98
886.08,-1.05
894.94,-1.13
903.89,-1.21
912.93,-1.29
922.06,-1.37
931.28,-1.46
940.59,-1.53
950.00,-1.61
959.50,-1.68
969.09,-1.76
978.78,-1.83
988.57,-1.88
998.46,-1.92
1008.44,-1.97
1018.53,-2.01
1028.71,-2.04
1039.00,-2.05
1049.39,-2.06
1059.88,-2.08
1070.48,-2.09
1081.19,-2.08
1092.00,-2.08
1102.92,-2.07
1113.95,-2.06
1125.09,-2.04
1136.34,-2.02
1147.70,-2.01
1159.18,-1.98
1170.77,-1.96
1182.48,-1.94
1194.30,-1.92
1206.25,-1.91
1218.31,-1.89
1230.49,-1.86
1242.80,-1.82
1255.22,-1.80
1267.78,-1.79
1280.45,-1.77
1293.26,-1.75
1306.19,-1.73
1319.25,-1.72
1332.45,-1.72
1345.77,-1.73
1359.23,-1.74
1372.82,-1.75
1386.55,-1.75
1400.41,-1.76
1414.42,-1.77
1428.56,-1.80
1442.85,-1.81
1457.28,-1.82
1471.85,-1.83
1486.57,-1.83
1501.43,-1.82
1516.45,-1.82
1531.61,-1.81
1546.93,-1.79
1562.40,-1.78
1578.02,-1.76
1593.80,-1.75
1609.74,-1.74
1625.84,-1.73
1642.10,-1.71
1658.52,-1.69
1675.10,-1.66
1691.85,-1.62
1708.77,-1.57
1725.86,-1.50
1743.12,-1.43
1760.55,-1.36
1778.15,-1.26
1795.94,-1.16
1813.90,-1.04
1832.03,-0.92
1850.36,-0.79
1868.86,-0.67
1887.55,-0.53
1906.42,-0.39
1925.49,-0.24
1944.74,-0.08
1964.19,0.10
1983.83,0.29
2003.67,0.49
2023.71,0.71
2043.94,0.91
2064.38,1.12
2085.03,1.33
2105.88,1.55
2126.94,1.77
2148.20,1.98
2169.69,2.19
2191.38,2.41
2213.30,2.60
2235.43,2.79
2257.78,2.97
2280.36,3.15
2303.17,3.32
2326.20,3.48
2349.46,3.65
2372.95,3.81
2396.68,3.96
2420.65,4.10
2444.86,4.24
2469.31,4.37
2494.00,4.48
2518.94,4.59
2544.13,4.70
2569.57,4.79
2595.27,4.86
2621.22,4.95
2647.43,5.05
2673.90,5.13
2700.64,5.22
2727.65,5.29
2754.93,5.37
2782.48,5.46
2810.30,5.53
2838.40,5.60
2866.79,5.67
2895.46,5.74
2924.41,5.81
2953.65,5.88
2983.19,5.96
3013.02,6.04
3043.15,6.12
3073.58,6.20
3104.32,6.28
3135.36,6.36
3166.72,6.44
3198.38,6.52
3230.37,6.60
3262.67,6.68
3295.30,6.76
3328.25,6.84
3361.53,6.93
3395.15,7.01
3429.10,7.08
3463.39,7.15
3498.03,7.21
3533.01,7.28
3568.34,7.33
3604.02,7.38
3640.06,7.43
3676.46,7.47
3713.22,7.49
3750.36,7.50
3787.86,7.49
3825.74,7.46
3864.00,7.42
3902.64,7.36
3941.66,7.30
3981.08,7.23
4020.89,7.16
4061.10,7.10
4101.71,7.03
4142.73,6.97
4184.15,6.91
4226.00,6.85
4268.26,6.80
4310.94,6.76
4354.05,6.73
4397.59,6.71
4441.56,6.72
4485.98,6.73
4530.84,6.76
4576.15,6.80
4621.91,6.85
4668.13,6.94
4714.81,7.04
4761.96,7.15
4809.58,7.29
4857.67,7.43
4906.25,7.61
4955.31,7.80
5004.87,7.99
5054.91,8.20
5105.46,8.41
5156.52,8.63
5208.08,8.85
5260.16,9.07
5312.77,9.27
5365.89,9.46
5419.55,9.65
5473.75,9.81
5528.49,9.93
5583.77,10.05
5639.61,10.15
5696.00,10.24
5752.96,10.33
5810.49,10.41
5868.60,10.46
5927.28,10.50
5986.56,10.53
6046.42,10.56
6106.89,10.57
6167.96,10.57
6229.64,10.54
6291.93,10.50
6354.85,10.41
6418.40,10.31
6482.58,10.19
6547.41,10.01
6612.88,9.79
6679.01,9.51
6745.80,9.19
6813.26,8.83
6881.39,8.47
6950.21,8.08
7019.71,7.69
7089.91,7.31
7160.81,6.93
7232.41,6.56
7304.74,6.22
7377.79,5.88
7451.56,5.57
7526.08,5.29
7601.34,4.99
7677.35,4.67
7754.13,4.35
7831.67,3.99
7909.98,3.59
7989.08,3.12
8068.98,2.56
8149.67,1.97
8231.16,1.31
8313.47,0.60
8396.61,-0.15
8480.57,-0.96
8565.38,-1.79
8651.03,-2.62
8737.54,-3.46
8824.92,-4.27
8913.17,-5.07
9002.30,-5.83
9092.32,-6.57
9183.25,-7.25
9275.08,-7.88
9367.83,-8.45
9461.51,-9.00
9556.12,-9.51
9651.68,-9.98
9748.20,-10.41
9845.68,-10.81
9944.14,-11.14
10043.58,-11.42
10144.02,-11.69
10245.46,-11.92
10347.91,-12.12
10451.39,-12.30
10555.91,-12.43
10661.46,-12.56
10768.08,-12.69
10875.76,-12.82
10984.52,-12.96
11094.36,-13.10
11205.31,-13.26
11317.36,-13.41
11430.53,-13.57
11544.84,-13.74
11660.29,-13.90
11776.89,-14.08
11894.66,-14.20
12013.60,-14.33
12133.74,-14.41
12255.08,-14.49
12377.63,-14.56
12501.41,-14.60
12626.42,-14.67
12752.68,-14.75
12880.21,-14.86
13009.01,-15.02
13139.10,-15.26
13270.49,-15.57
13403.20,-15.94
13537.23,-16.37
13672.60,-16.83
13809.33,-17.33
13947.42,-17.86
14086.90,-18.37
14227.77,-18.88
14370.04,-19.32
14513.74,-19.71
14658.88,-20.05
14805.47,-20.32
14953.52,-20.51
15103.06,-20.64
15254.09,-20.68
15406.63,-20.65
15560.70,-20.54
15716.30,-20.32
15873.47,-20.01
16032.20,-19.61
16192.52,-19.09
16354.45,-18.45
16517.99,-17.71
16683.17,-16.86
16850.01,-15.92
17018.51,-14.90
17188.69,-13.82
17360.58,-12.69
17534.18,-11.58
17709.53,-10.54
17886.62,-9.55
18065.49,-8.73
18246.14,-8.04
18428.60,-7.44
18612.89,-6.90
18799.02,-6.45
18987.01,-6.07
19176.88,-5.77
19368.65,-5.55
19562.33,-5.39
19757.96,-5.30
19955.54,-5.30
