frequency,raw,error,smoothed,error_smoothed,equalization,parametric_eq,fixed_band_eq,equalized_raw,equalized_smoothed,target
20.00,5.98,1.97,5.98,1.97,-1.96,-2.36,-1.46,4.01,4.01,4.01
20.20,6.01,2.02,6.01,2.02,-2.02,-2.39,-1.51,3.99,3.99,3.99
20.40,6.04,2.08,6.04,2.07,-2.07,-2.42,-1.55,3.96,3.96,3.96
20.61,6.07,2.13,6.07,2.13,-2.13,-2.44,-1.60,3.94,3.94,3.94
20.81,6.10,2.18,6.10,2.18,-2.18,-2.47,-1.65,3.91,3.91,3.92
21.02,6.13,2.24,6.13,2.24,-2.24,-2.50,-1.70,3.89,3.89,3.89
21.23,6.17,2.30,6.17,2.30,-2.29,-2.53,-1.75,3.88,3.87,3.87
21.44,6.20,2.35,6.20,2.35,-2.34,-2.55,-1.81,3.85,3.85,3.85
21.66,6.23,2.40,6.23,2.40,-2.40,-2.58,-1.86,3.83,3.83,3.83
21.87,6.25,2.44,6.26,2.45,-2.45,-2.61,-1.92,3.80,3.81,3.81
22.09,6.29,2.50,6.28,2.50,-2.50,-2.64,-1.98,3.79,3.78,3.79
22.31,6.32,2.55,6.31,2.55,-2.55,-2.66,-2.04,3.77,3.76,3.77
22.54,6.34,2.60,6.35,2.60,-2.60,-2.69,-2.10,3.74,3.75,3.74
22.76,6.38,2.66,6.37,2.65,-2.65,-2.72,-2.16,3.73,3.72,3.72
22.99,6.40,2.70,6.40,2.70,-2.70,-2.75,-2.23,3.70,3.70,3.70
23.22,6.42,2.74,6.42,2.74,-2.75,-2.77,-2.29,3.67,3.68,3.68
23.45,6.46,2.79,6.45,2.79,-2.79,-2.80,-2.36,3.67,3.66,3.67
23.69,6.48,2.83,6.48,2.84,-2.84,-2.83,-2.43,3.64,3.65,3.65
23.92,6.52,2.88,6.52,2.88,-2.88,-2.86,-2.50,3.64,3.63,3.64
24.16,6.55,2.93,6.54,2.92,-2.92,-2.88,-2.57,3.62,3.62,3.62
24.40,6.57,2.96,6.57,2.97,-2.97,-2.91,-2.65,3.60,3.61,3.60
24.65,6.60,3.00,6.60,3.01,-3.01,-2.94,-2.72,3.59,3.59,3.59
24.89,6.63,3.05,6.63,3.05,-3.05,-2.96,-2.80,3.58,3.58,3.57
25.14,6.66,3.09,6.65,3.09,-3.09,-2.99,-2.87,3.57,3.57,3.56
25.39,6.68,3.13,6.68,3.13,-3.13,-3.02,-2.95,3.55,3.55,3.55
25.65,6.71,3.16,6.71,3.16,-3.17,-3.04,-3.03,3.54,3.54,3.54
25.91,6.74,3.20,6.73,3.20,-3.21,-3.07,-3.10,3.53,3.53,3.53
26.16,6.76,3.24,6.76,3.24,-3.25,-3.10,-3.18,3.51,3.52,3.52
26.43,6.79,3.29,6.79,3.28,-3.28,-3.12,-3.26,3.50,3.50,3.50
26.69,6.82,3.33,6.82,3.32,-3.32,-3.15,-3.34,3.50,3.50,3.49
26.96,6.84,3.36,6.84,3.36,-3.36,-3.17,-3.41,3.48,3.48,3.48
27.23,6.87,3.40,6.86,3.39,-3.39,-3.20,-3.49,3.48,3.47,3.47
27.50,6.88,3.42,6.88,3.42,-3.43,-3.23,-3.56,3.45,3.46,3.46
27.77,6.91,3.45,6.91,3.46,-3.46,-3.25,-3.63,3.45,3.45,3.46
28.05,6.94,3.49,6.93,3.49,-3.49,-3.28,-3.70,3.45,3.45,3.45
28.33,6.96,3.52,6.96,3.52,-3.52,-3.30,-3.77,3.44,3.44,3.44
28.62,6.98,3.54,6.98,3.55,-3.54,-3.33,-3.83,3.43,3.43,3.44
28.90,7.00,3.57,7.00,3.57,-3.57,-3.35,-3.89,3.43,3.43,3.42
29.19,7.02,3.59,7.02,3.60,-3.60,-3.37,-3.95,3.42,3.42,3.42
29.48,7.04,3.63,7.04,3.62,-3.62,-3.40,-4.00,3.41,3.41,3.41
29.78,7.06,3.65,7.06,3.65,-3.65,-3.42,-4.05,3.41,3.41,3.41
30.08,7.08,3.68,7.07,3.67,-3.67,-3.44,-4.09,3.40,3.40,3.40
30.38,7.09,3.69,7.09,3.70,-3.70,-3.47,-4.13,3.39,3.40,3.40
30.68,7.11,3.72,7.11,3.72,-3.72,-3.49,-4.17,3.39,3.39,3.39
30.99,7.13,3.75,7.12,3.74,-3.74,-3.51,-4.20,3.39,3.39,3.38
31.30,7.13,3.75,7.13,3.76,-3.75,-3.54,-4.22,3.38,3.38,3.38
31.61,7.14,3.77,7.14,3.77,-3.77,-3.56,-4.24,3.37,3.37,3.36
31.93,7.14,3.78,7.14,3.78,-3.78,-3.58,-4.25,3.36,3.36,3.35
32.24,7.14,3.79,7.14,3.79,-3.79,-3.60,-4.26,3.34,3.34,3.35
32.57,7.14,3.80,7.14,3.80,-3.81,-3.62,-4.26,3.33,3.33,3.34
32.89,7.14,3.81,7.14,3.81,-3.82,-3.64,-4.26,3.32,3.32,3.33
33.22,7.15,3.83,7.14,3.83,-3.83,-3.66,-4.25,3.32,3.32,3.32
33.55,7.15,3.84,7.15,3.84,-3.84,-3.68,-4.24,3.31,3.31,3.31
33.89,7.15,3.85,7.15,3.85,-3.85,-3.70,-4.23,3.30,3.30,3.29
34.23,7.15,3.87,7.15,3.86,-3.86,-3.72,-4.21,3.29,3.29,3.28
34.57,7.15,3.87,7.15,3.87,-3.87,-3.74,-4.19,3.28,3.28,3.28
34.92,7.15,3.88,7.15,3.88,-3.88,-3.76,-4.17,3.27,3.27,3.27
35.27,7.15,3.89,7.15,3.89,-3.89,-3.78,-4.14,3.26,3.26,3.26
35.62,7.16,3.90,7.15,3.90,-3.90,-3.79,-4.11,3.26,3.25,3.25
35.97,7.15,3.90,7.15,3.91,-3.91,-3.81,-4.08,3.24,3.24,3.24
36.33,7.16,3.92,7.15,3.92,-3.92,-3.83,-4.05,3.24,3.24,3.24
36.70,7.15,3.92,7.15,3.93,-3.93,-3.85,-4.02,3.22,3.23,3.23
37.06,7.16,3.94,7.15,3.93,-3.93,-3.86,-3.98,3.22,3.22,3.22
37.43,7.16,3.94,7.15,3.94,-3.94,-3.88,-3.95,3.22,3.21,3.21
37.81,7.15,3.95,7.15,3.95,-3.95,-3.89,-3.92,3.20,3.21,3.20
38.19,7.16,3.96,7.15,3.96,-3.96,-3.91,-3.89,3.20,3.20,3.20
38.57,7.15,3.96,7.15,3.96,-3.96,-3.92,-3.85,3.19,3.19,3.19
38.95,7.15,3.97,7.15,3.97,-3.97,-3.94,-3.82,3.18,3.18,3.18
39.34,7.15,3.98,7.14,3.97,-3.97,-3.95,-3.80,3.18,3.17,3.17
39.74,7.14,3.97,7.14,3.98,-3.98,-3.96,-3.77,3.16,3.16,3.17
40.14,7.14,3.98,7.14,3.98,-3.98,-3.98,-3.74,3.16,3.16,3.15
40.54,7.13,3.98,7.13,3.98,-3.98,-3.99,-3.72,3.14,3.15,3.15
40.94,7.13,3.99,7.13,3.99,-3.99,-4.00,-3.70,3.14,3.14,3.14
41.35,7.12,3.98,7.12,3.99,-3.99,-4.01,-3.68,3.13,3.13,3.13
41.76,7.12,4.00,7.12,3.99,-3.99,-4.02,-3.66,3.13,3.12,3.12
42.18,7.11,3.99,7.11,3.99,-3.99,-4.03,-3.64,3.11,3.11,3.12
42.60,7.10,4.00,7.10,3.99,-4.00,-4.05,-3.63,3.10,3.10,3.10
43.03,7.09,3.99,7.09,4.00,-4.00,-4.06,-3.62,3.09,3.09,3.10
43.46,7.09,4.00,7.09,4.00,-4.00,-4.07,-3.61,3.08,3.08,3.08
43.90,7.09,4.01,7.09,4.01,-4.01,-4.07,-3.61,3.08,3.08,3.08
44.33,7.09,4.01,7.08,4.01,-4.01,-4.08,-3.61,3.08,3.07,3.07
44.78,7.08,4.02,7.08,4.02,-4.01,-4.09,-3.61,3.06,3.06,3.06
45.23,7.07,4.01,7.07,4.02,-4.02,-4.10,-3.61,3.05,3.05,3.05
45.68,7.07,4.02,7.07,4.02,-4.02,-4.11,-3.62,3.05,3.05,3.05
46.13,7.07,4.02,7.06,4.02,-4.02,-4.11,-3.62,3.05,3.04,3.04
46.60,7.06,4.02,7.06,4.02,-4.02,-4.12,-3.64,3.04,3.04,3.04
47.06,7.05,4.02,7.05,4.02,-4.02,-4.13,-3.65,3.03,3.03,3.03
47.53,7.05,4.02,7.04,4.02,-4.02,-4.13,-3.67,3.03,3.03,3.03
48.01,7.04,4.02,7.04,4.02,-4.02,-4.14,-3.68,3.02,3.02,3.02
48.49,7.03,4.02,7.03,4.02,-4.02,-4.15,-3.71,3.01,3.01,3.01
48.97,7.02,4.01,7.02,4.01,-4.01,-4.15,-3.73,3.00,3.00,3.01
49.46,7.01,4.01,7.01,4.01,-4.01,-4.16,-3.75,3.00,3.00,3.00
49.96,7.00,4.01,7.00,4.01,-4.01,-4.16,-3.78,2.99,2.99,2.99
50.46,7.00,4.01,6.99,4.01,-4.01,-4.16,-3.81,2.99,2.98,2.98
50.96,6.99,4.01,6.99,4.02,-4.01,-4.17,-3.84,2.97,2.98,2.98
51.47,6.99,4.02,6.98,4.02,-4.02,-4.17,-3.87,2.97,2.97,2.97
51.99,6.98,4.02,6.98,4.02,-4.02,-4.17,-3.91,2.96,2.96,2.96
52.51,6.97,4.02,6.97,4.02,-4.02,-4.18,-3.94,2.94,2.95,2.95
53.03,6.97,4.03,6.97,4.03,-4.03,-4.18,-3.98,2.94,2.94,2.94
53.56,6.97,4.04,6.97,4.03,-4.03,-4.18,-4.01,2.94,2.93,2.93
54.10,6.97,4.05,6.96,4.04,-4.04,-4.18,-4.05,2.93,2.92,2.92
54.64,6.95,4.04,6.95,4.04,-4.05,-4.19,-4.08,2.90,2.91,2.91
55.18,6.95,4.05,6.95,4.05,-4.05,-4.19,-4.12,2.90,2.90,2.90
55.74,6.95,4.06,6.95,4.06,-4.06,-4.19,-4.15,2.89,2.89,2.89
56.29,6.95,4.07,6.95,4.07,-4.07,-4.19,-4.19,2.88,2.88,2.88
56.86,6.95,4.08,6.95,4.08,-4.07,-4.19,-4.22,2.87,2.87,2.87
57.42,6.94,4.08,6.94,4.08,-4.08,-4.19,-4.25,2.86,2.86,2.86
58.00,6.94,4.08,6.94,4.09,-4.08,-4.19,-4.28,2.86,2.85,2.85
58.58,6.93,4.09,6.93,4.09,-4.09,-4.20,-4.31,2.84,2.84,2.84
59.16,6.92,4.09,6.92,4.09,-4.09,-4.20,-4.34,2.83,2.83,2.83
59.76,6.91,4.09,6.91,4.09,-4.09,-4.20,-4.36,2.81,2.81,2.81
60.35,6.90,4.09,6.90,4.09,-4.10,-4.20,-4.38,2.80,2.80,2.81
60.96,6.89,4.09,6.89,4.09,-4.10,-4.20,-4.40,2.79,2.79,2.79
61.57,6.88,4.10,6.88,4.10,-4.10,-4.20,-4.41,2.78,2.78,2.78
62.18,6.88,4.11,6.88,4.11,-4.11,-4.20,-4.43,2.77,2.77,2.76
62.80,6.87,4.12,6.87,4.11,-4.11,-4.20,-4.43,2.76,2.76,2.75
63.43,6.86,4.12,6.86,4.12,-4.12,-4.20,-4.44,2.74,2.74,2.74
64.07,6.84,4.11,6.85,4.12,-4.12,-4.20,-4.44,2.72,2.72,2.73
64.71,6.84,4.13,6.83,4.12,-4.13,-4.20,-4.44,2.71,2.70,2.71
65.35,6.83,4.14,6.82,4.13,-4.14,-4.20,-4.44,2.69,2.69,2.69
66.01,6.81,4.14,6.82,4.14,-4.14,-4.20,-4.44,2.66,2.67,2.67
66.67,6.81,4.16,6.80,4.15,-4.15,-4.20,-4.43,2.65,2.65,2.65
67.33,6.80,4.17,6.80,4.16,-4.16,-4.20,-4.42,2.63,2.63,2.63
68.01,6.79,4.18,6.79,4.18,-4.17,-4.21,-4.41,2.61,2.61,2.61
68.69,6.78,4.19,6.78,4.19,-4.19,-4.21,-4.39,2.59,2.59,2.59
69.37,6.77,4.20,6.77,4.20,-4.20,-4.21,-4.38,2.57,2.57,2.57
70.07,6.76,4.21,6.76,4.21,-4.21,-4.21,-4.36,2.55,2.55,2.55
70.77,6.75,4.22,6.75,4.22,-4.22,-4.21,-4.35,2.53,2.53,2.53
71.48,6.74,4.23,6.74,4.23,-4.23,-4.22,-4.33,2.50,2.50,2.50
72.19,6.72,4.24,6.72,4.25,-4.25,-4.22,-4.31,2.47,2.48,2.48
72.91,6.72,4.26,6.71,4.26,-4.26,-4.22,-4.30,2.46,2.45,2.46
73.64,6.70,4.28,6.70,4.27,-4.27,-4.23,-4.28,2.43,2.43,2.42
74.38,6.68,4.28,6.68,4.29,-4.28,-4.23,-4.27,2.39,2.40,2.40
75.12,6.67,4.30,6.66,4.30,-4.30,-4.23,-4.25,2.37,2.37,2.37
75.87,6.65,4.32,6.65,4.31,-4.31,-4.24,-4.24,2.34,2.34,2.33
76.63,6.63,4.32,6.63,4.33,-4.33,-4.25,-4.23,2.30,2.30,2.31
77.40,6.61,4.34,6.61,4.34,-4.34,-4.25,-4.22,2.27,2.27,2.27
78.17,6.59,4.36,6.59,4.36,-4.36,-4.26,-4.21,2.23,2.23,2.23
78.95,6.57,4.38,6.57,4.38,-4.38,-4.27,-4.21,2.19,2.19,2.19
79.74,6.55,4.40,6.55,4.40,-4.40,-4.27,-4.20,2.15,2.15,2.15
80.54,6.53,4.42,6.53,4.42,-4.42,-4.28,-4.20,2.11,2.11,2.11
81.35,6.52,4.45,6.51,4.45,-4.45,-4.29,-4.21,2.07,2.07,2.07
82.16,6.50,4.47,6.50,4.47,-4.47,-4.30,-4.21,2.02,2.03,2.03
82.98,6.49,4.50,6.48,4.50,-4.50,-4.31,-4.22,1.99,1.98,1.99
83.81,6.47,4.52,6.47,4.53,-4.53,-4.32,-4.23,1.94,1.94,1.94
84.65,6.45,4.56,6.45,4.56,-4.56,-4.33,-4.24,1.89,1.90,1.89
85.50,6.44,4.59,6.43,4.58,-4.58,-4.35,-4.26,1.86,1.85,1.85
86.35,6.42,4.60,6.42,4.61,-4.60,-4.36,-4.28,1.82,1.82,1.81
87.22,6.39,4.62,6.39,4.62,-4.61,-4.38,-4.30,1.78,1.78,1.77
88.09,6.36,4.63,6.35,4.63,-4.62,-4.39,-4.33,1.74,1.73,1.73
88.97,6.31,4.63,6.31,4.63,-4.62,-4.41,-4.36,1.69,1.69,1.68
89.86,6.26,4.62,6.26,4.62,-4.62,-4.43,-4.39,1.64,1.64,1.63
90.76,6.21,4.61,6.20,4.61,-4.61,-4.44,-4.43,1.60,1.60,1.60
91.66,6.15,4.60,6.15,4.60,-4.60,-4.46,-4.47,1.55,1.55,1.55
92.58,6.10,4.58,6.10,4.59,-4.59,-4.48,-4.51,1.51,1.51,1.51
93.51,6.05,4.58,6.05,4.58,-4.59,-4.50,-4.56,1.46,1.46,1.47
94.44,6.02,4.59,6.01,4.59,-4.59,-4.53,-4.60,1.43,1.42,1.43
95.39,5.98,4.60,5.98,4.59,-4.60,-4.55,-4.66,1.38,1.38,1.38
96.34,5.95,4.60,5.95,4.61,-4.62,-4.58,-4.71,1.33,1.33,1.34
97.30,5.93,4.63,5.93,4.63,-4.64,-4.60,-4.77,1.29,1.29,1.29
98.28,5.93,4.67,5.92,4.67,-4.67,-4.63,-4.83,1.26,1.25,1.26
99.26,5.92,4.71,5.92,4.71,-4.71,-4.66,-4.89,1.21,1.21,1.21
100.25,5.91,4.75,5.91,4.75,-4.74,-4.69,-4.95,1.16,1.16,1.16
101.25,5.90,4.79,5.90,4.79,-4.78,-4.72,-5.02,1.11,1.11,1.11
102.27,5.89,4.83,5.89,4.83,-4.82,-4.75,-5.09,1.06,1.06,1.06
103.29,5.88,4.87,5.88,4.87,-4.86,-4.78,-5.16,1.01,1.02,1.01
104.32,5.87,4.91,5.87,4.91,-4.90,-4.81,-5.23,0.96,0.96,0.96
105.37,5.86,4.95,5.85,4.94,-4.94,-4.85,-5.30,0.92,0.91,0.91
106.42,5.84,4.98,5.84,4.98,-4.98,-4.88,-5.37,0.86,0.86,0.86
107.48,5.83,5.01,5.83,5.02,-5.02,-4.92,-5.44,0.81,0.81,0.81
108.56,5.83,5.06,5.82,5.06,-5.06,-4.96,-5.51,0.76,0.76,0.76
109.64,5.82,5.10,5.82,5.11,-5.11,-5.00,-5.58,0.71,0.71,0.71
110.74,5.82,5.15,5.82,5.15,-5.15,-5.04,-5.65,0.67,0.67,0.67
111.85,5.81,5.19,5.81,5.19,-5.19,-5.08,-5.71,0.61,0.62,0.62
112.97,5.81,5.24,5.80,5.24,-5.24,-5.12,-5.78,0.57,0.57,0.57
114.10,5.80,5.28,5.80,5.28,-5.28,-5.16,-5.84,0.51,0.52,0.52
115.24,5.80,5.33,5.80,5.33,-5.33,-5.21,-5.89,0.47,0.47,0.47
116.39,5.80,5.37,5.79,5.37,-5.37,-5.25,-5.95,0.43,0.42,0.42
117.55,5.79,5.41,5.79,5.42,-5.41,-5.29,-6.00,0.37,0.38,0.38
118.73,5.79,5.46,5.79,5.46,-5.46,-5.34,-6.04,0.33,0.33,0.33
119.92,5.79,5.50,5.78,5.50,-5.50,-5.38,-6.08,0.29,0.29,0.29
121.12,5.78,5.53,5.78,5.53,-5.53,-5.43,-6.11,0.24,0.25,0.24
122.33,5.78,5.57,5.78,5.57,-5.57,-5.47,-6.14,0.21,0.20,0.21
123.55,5.77,5.61,5.77,5.61,-5.61,-5.52,-6.16,0.16,0.16,0.16
124.79,5.77,5.64,5.77,5.64,-5.64,-5.56,-6.18,0.13,0.12,0.13
126.03,5.76,5.68,5.76,5.67,-5.68,-5.61,-6.18,0.08,0.08,0.08
127.29,5.76,5.71,5.76,5.71,-5.71,-5.65,-6.19,0.05,0.05,0.05
128.57,5.75,5.73,5.75,5.74,-5.74,-5.69,-6.18,0.01,0.01,0.01
129.85,5.75,5.78,5.75,5.77,-5.77,-5.74,-6.17,-0.02,-0.03,-0.03
131.15,5.74,5.80,5.74,5.80,-5.80,-5.78,-6.16,-0.06,-0.06,-0.06
132.46,5.74,5.83,5.74,5.83,-5.83,-5.82,-6.14,-0.09,-0.09,-0.10
133.79,5.73,5.86,5.73,5.86,-5.85,-5.86,-6.12,-0.13,-0.13,-0.13
135.12,5.72,5.88,5.72,5.88,-5.88,-5.89,-6.09,-0.16,-0.16,-0.16
136.48,5.71,5.90,5.71,5.90,-5.90,-5.93,-6.05,-0.19,-0.19,-0.19
137.84,5.71,5.92,5.71,5.92,-5.92,-5.96,-6.02,-0.22,-0.22,-0.21
139.22,5.71,5.95,5.70,5.95,-5.94,-5.99,-5.98,-0.24,-0.24,-0.24
140.61,5.70,5.97,5.70,5.97,-5.96,-6.02,-5.94,-0.27,-0.26,-0.27
142.02,5.70,5.99,5.69,5.98,-5.98,-6.05,-5.89,-0.28,-0.29,-0.29
143.44,5.69,5.99,5.69,6.00,-6.00,-6.07,-5.85,-0.31,-0.31,-0.31
144.87,5.68,6.01,5.68,6.01,-6.02,-6.10,-5.80,-0.34,-0.33,-0.33
146.32,5.69,6.04,5.68,6.03,-6.03,-6.11,-5.75,-0.34,-0.35,-0.35
147.78,5.67,6.03,5.67,6.04,-6.04,-6.13,-5.71,-0.37,-0.37,-0.37
149.26,5.67,6.06,5.67,6.06,-6.05,-6.14,-5.66,-0.38,-0.39,-0.39
150.75,5.66,6.06,5.66,6.06,-6.06,-6.16,-5.62,-0.40,-0.40,-0.41
152.26,5.65,6.07,5.65,6.07,-6.07,-6.16,-5.58,-0.42,-0.42,-0.42
153.78,5.64,6.07,5.64,6.07,-6.07,-6.17,-5.53,-0.44,-0.43,-0.44
155.32,5.63,6.08,5.63,6.08,-6.08,-6.17,-5.49,-0.45,-0.45,-0.45
156.88,5.62,6.08,5.62,6.08,-6.08,-6.17,-5.46,-0.46,-0.46,-0.46
158.44,5.61,6.08,5.61,6.08,-6.09,-6.17,-5.42,-0.48,-0.48,-0.47
160.03,5.61,6.09,5.60,6.09,-6.09,-6.16,-5.39,-0.48,-0.49,-0.48
161.63,5.60,6.09,5.60,6.10,-6.10,-6.16,-5.36,-0.50,-0.50,-0.50
163.24,5.60,6.10,5.60,6.10,-6.10,-6.15,-5.34,-0.50,-0.50,-0.51
164.88,5.60,6.11,5.59,6.11,-6.11,-6.14,-5.32,-0.51,-0.51,-0.52
166.53,5.59,6.11,5.59,6.11,-6.11,-6.12,-5.30,-0.53,-0.52,-0.52
168.19,5.59,6.12,5.59,6.12,-6.12,-6.11,-5.28,-0.53,-0.53,-0.53
169.87,5.58,6.12,5.58,6.12,-6.13,-6.09,-5.27,-0.55,-0.55,-0.54
171.57,5.58,6.14,5.57,6.13,-6.13,-6.08,-5.27,-0.55,-0.56,-0.56
173.29,5.57,6.13,5.57,6.14,-6.14,-6.06,-5.26,-0.57,-0.57,-0.57
175.02,5.57,6.14,5.57,6.15,-6.15,-6.04,-5.26,-0.58,-0.58,-0.57
176.77,5.57,6.16,5.57,6.15,-6.15,-6.03,-5.27,-0.59,-0.59,-0.59
178.54,5.57,6.16,5.57,6.16,-6.16,-6.01,-5.28,-0.60,-0.60,-0.59
180.32,5.56,6.17,5.56,6.17,-6.17,-5.99,-5.29,-0.61,-0.61,-0.61
182.13,5.56,6.18,5.56,6.18,-6.18,-5.98,-5.31,-0.62,-0.62,-0.62
183.95,5.55,6.19,5.55,6.19,-6.19,-5.96,-5.33,-0.64,-0.64,-0.64
185.79,5.55,6.20,5.54,6.20,-6.19,-5.95,-5.35,-0.65,-0.65,-0.65
187.65,5.54,6.20,5.54,6.20,-6.20,-5.94,-5.38,-0.66,-0.66,-0.67
189.52,5.52,6.20,5.53,6.20,-6.20,-5.92,-5.42,-0.68,-0.68,-0.68
191.42,5.52,6.21,5.51,6.20,-6.20,-5.92,-5.45,-0.68,-0.69,-0.69
193.33,5.50,6.20,5.50,6.20,-6.20,-5.91,-5.49,-0.70,-0.70,-0.70
195.27,5.48,6.19,5.48,6.20,-6.20,-5.90,-5.53,-0.72,-0.72,-0.71
197.22,5.46,6.19,5.46,6.19,-6.19,-5.90,-5.58,-0.73,-0.73,-0.74
199.19,5.44,6.18,5.44,6.19,-6.19,-5.90,-5.63,-0.75,-0.75,-0.75
201.18,5.42,6.19,5.41,6.18,-6.18,-5.90,-5.68,-0.76,-0.76,-0.77
203.19,5.39,6.17,5.39,6.17,-6.17,-5.91,-5.73,-0.78,-0.78,-0.78
205.23,5.36,6.16,5.36,6.16,-6.16,-5.91,-5.78,-0.80,-0.79,-0.80
207.28,5.34,6.14,5.33,6.14,-6.14,-5.92,-5.84,-0.81,-0.81,-0.81
209.35,5.30,6.12,5.30,6.13,-6.13,-5.93,-5.90,-0.83,-0.83,-0.83
211.44,5.28,6.12,5.28,6.12,-6.12,-5.95,-5.95,-0.84,-0.84,-0.85
213.56,5.25,6.10,5.24,6.10,-6.11,-5.96,-6.01,-0.86,-0.86,-0.85
215.69,5.22,6.09,5.22,6.09,-6.09,-5.98,-6.06,-0.88,-0.88,-0.87
217.85,5.19,6.07,5.19,6.08,-6.08,-5.99,-6.12,-0.89,-0.89,-0.88
220.03,5.18,6.08,5.17,6.07,-6.07,-6.01,-6.17,-0.89,-0.90,-0.90
222.23,5.16,6.06,5.16,6.06,-6.06,-6.03,-6.22,-0.90,-0.90,-0.91
224.45,5.14,6.05,5.14,6.05,-6.04,-6.05,-6.27,-0.91,-0.91,-0.91
226.70,5.11,6.03,5.11,6.03,-6.03,-6.06,-6.31,-0.92,-0.92,-0.92
228.96,5.09,6.01,5.09,6.01,-6.01,-6.08,-6.35,-0.92,-0.93,-0.93
231.25,5.06,5.99,5.06,5.99,-5.99,-6.09,-6.38,-0.93,-0.93,-0.93
233.57,5.04,5.97,5.04,5.97,-5.97,-6.09,-6.41,-0.93,-0.93,-0.93
235.90,5.01,5.94,5.01,5.94,-5.94,-6.10,-6.43,-0.93,-0.93,-0.93
238.26,4.99,5.92,4.98,5.91,-5.91,-6.10,-6.44,-0.92,-0.93,-0.93
240.64,4.95,5.87,4.95,5.88,-5.88,-6.09,-6.45,-0.93,-0.93,-0.93
243.05,4.92,5.85,4.91,5.84,-5.84,-6.07,-6.45,-0.92,-0.93,-0.93
245.48,4.87,5.79,4.87,5.80,-5.80,-6.05,-6.43,-0.93,-0.93,-0.93
247.93,4.84,5.76,4.84,5.76,-5.76,-6.02,-6.41,-0.92,-0.92,-0.92
250.41,4.80,5.71,4.79,5.71,-5.71,-5.99,-6.38,-0.91,-0.92,-0.92
252.92,4.75,5.67,4.75,5.66,-5.66,-5.94,-6.35,-0.91,-0.91,-0.92
255.45,4.69,5.60,4.69,5.61,-5.61,-5.89,-6.30,-0.92,-0.91,-0.92
258.00,4.64,5.55,4.64,5.55,-5.55,-5.83,-6.24,-0.91,-0.92,-0.91
260.58,4.58,5.49,4.58,5.49,-5.49,-5.76,-6.17,-0.92,-0.92,-0.91
263.19,4.52,5.44,4.52,5.43,-5.43,-5.69,-6.10,-0.92,-0.91,-0.92
265.82,4.46,5.37,4.45,5.37,-5.37,-5.60,-6.02,-0.91,-0.91,-0.91
268.48,4.39,5.30,4.39,5.30,-5.30,-5.51,-5.93,-0.92,-0.92,-0.91
271.16,4.32,5.24,4.32,5.24,-5.24,-5.42,-5.83,-0.92,-0.92,-0.92
273.87,4.25,5.17,4.25,5.17,-5.17,-5.32,-5.73,-0.92,-0.92,-0.92
276.61,4.18,5.09,4.18,5.10,-5.09,-5.22,-5.62,-0.92,-0.92,-0.91
279.38,4.11,5.03,4.10,5.02,-5.02,-5.11,-5.50,-0.91,-0.92,-0.92
282.17,4.02,4.94,4.02,4.94,-4.94,-5.00,-5.38,-0.92,-0.92,-0.92
284.99,3.94,4.85,3.94,4.86,-4.86,-4.89,-5.26,-0.92,-0.92,-0.91
287.84,3.86,4.77,3.86,4.78,-4.78,-4.78,-5.14,-0.92,-0.92,-0.92
290.72,3.79,4.70,3.78,4.69,-4.69,-4.67,-5.01,-0.90,-0.91,-0.91
293.63,3.70,4.61,3.70,4.61,-4.61,-4.56,-4.88,-0.91,-0.91,-0.91
296.57,3.61,4.51,3.61,4.52,-4.52,-4.45,-4.74,-0.91,-0.91,-0.90
299.53,3.53,4.43,3.52,4.43,-4.43,-4.35,-4.61,-0.90,-0.91,-0.91
302.53,3.44,4.34,3.44,4.34,-4.34,-4.25,-4.48,-0.90,-0.90,-0.90
305.55,3.36,4.25,3.36,4.25,-4.25,-4.15,-4.34,-0.89,-0.89,-0.89
308.61,3.28,4.16,3.27,4.16,-4.16,-4.05,-4.21,-0.88,-0.88,-0.88
311.69,3.19,4.06,3.19,4.07,-4.07,-3.96,-4.07,-0.88,-0.87,-0.88
314.81,3.11,3.98,3.11,3.97,-3.97,-3.87,-3.94,-0.86,-0.87,-0.87
317.96,3.02,3.88,3.02,3.88,-3.88,-3.79,-3.81,-0.86,-0.86,-0.86
321.14,2.94,3.79,2.94,3.79,-3.79,-3.71,-3.68,-0.85,-0.85,-0.85
324.35,2.85,3.69,2.85,3.69,-3.70,-3.63,-3.54,-0.85,-0.84,-0.84
327.59,2.77,3.60,2.76,3.60,-3.60,-3.55,-3.42,-0.84,-0.84,-0.83
330.87,2.68,3.51,2.68,3.51,-3.51,-3.48,-3.29,-0.83,-0.83,-0.84
334.18,2.59,3.42,2.59,3.42,-3.42,-3.41,-3.16,-0.83,-0.83,-0.83
337.52,2.51,3.34,2.51,3.33,-3.33,-3.34,-3.04,-0.82,-0.83,-0.83
340.90,2.42,3.24,2.42,3.24,-3.24,-3.27,-2.92,-0.82,-0.82,-0.82
344.30,2.33,3.15,2.33,3.15,-3.15,-3.19,-2.79,-0.82,-0.82,-0.82
347.75,2.23,3.05,2.24,3.06,-3.06,-3.11,-2.68,-0.83,-0.82,-0.82
351.23,2.15,2.97,2.14,2.97,-2.96,-3.02,-2.56,-0.82,-0.82,-0.82
354.74,2.05,2.87,2.04,2.87,-2.87,-2.93,-2.44,-0.82,-0.83,-0.83
358.28,1.94,2.77,1.94,2.78,-2.77,-2.83,-2.33,-0.84,-0.83,-0.84
361.87,1.84,2.68,1.84,2.68,-2.68,-2.73,-2.22,-0.84,-0.84,-0.84
365.49,1.74,2.58,1.74,2.58,-2.58,-2.62,-2.11,-0.84,-0.84,-0.84
369.14,1.64,2.48,1.64,2.48,-2.48,-2.51,-2.00,-0.84,-0.84,-0.84
372.83,1.53,2.37,1.53,2.37,-2.37,-2.39,-1.89,-0.85,-0.84,-0.84
376.56,1.44,2.27,1.43,2.27,-2.27,-2.28,-1.79,-0.83,-0.84,-0.83
380.33,1.33,2.16,1.33,2.17,-2.17,-2.16,-1.69,-0.84,-0.83,-0.83
384.13,1.24,2.07,1.23,2.06,-2.06,-2.04,-1.59,-0.83,-0.83,-0.83
387.97,1.13,1.95,1.13,1.96,-1.96,-1.92,-1.49,-0.83,-0.83,-0.82
391.85,1.03,1.85,1.03,1.85,-1.85,-1.81,-1.39,-0.83,-0.82,-0.83
395.77,0.93,1.74,0.93,1.75,-1.75,-1.69,-1.29,-0.82,-0.82,-0.82
399.73,0.84,1.65,0.83,1.64,-1.64,-1.58,-1.20,-0.80,-0.81,-0.81
403.72,0.73,1.54,0.73,1.53,-1.53,-1.47,-1.11,-0.81,-0.80,-0.81
407.76,0.63,1.43,0.63,1.42,-1.42,-1.36,-1.02,-0.80,-0.80,-0.80
411.84,0.52,1.31,0.52,1.31,-1.31,-1.25,-0.93,-0.80,-0.79,-0.79
415.96,0.42,1.20,0.42,1.20,-1.20,-1.15,-0.84,-0.78,-0.78,-0.78
420.12,0.32,1.10,0.31,1.09,-1.09,-1.04,-0.76,-0.77,-0.77,-0.78
424.32,0.21,0.98,0.20,0.98,-0.97,-0.94,-0.68,-0.76,-0.77,-0.77
428.56,0.09,0.85,0.09,0.85,-0.85,-0.83,-0.60,-0.76,-0.76,-0.76
432.85,-0.02,0.73,-0.02,0.73,-0.73,-0.73,-0.52,-0.76,-0.75,-0.75
437.18,-0.13,0.61,-0.13,0.61,-0.61,-0.63,-0.45,-0.75,-0.74,-0.74
441.55,-0.23,0.50,-0.24,0.50,-0.49,-0.53,-0.37,-0.73,-0.73,-0.73
445.96,-0.34,0.38,-0.34,0.38,-0.38,-0.42,-0.30,-0.72,-0.72,-0.72
450.42,-0.45,0.26,-0.45,0.26,-0.26,-0.32,-0.24,-0.71,-0.71,-0.71
454.93,-0.56,0.14,-0.56,0.14,-0.15,-0.22,-0.17,-0.71,-0.71,-0.70
459.48,-0.66,0.03,-0.66,0.03,-0.04,-0.11,-0.11,-0.71,-0.70,-0.70
464.07,-0.75,-0.07,-0.75,-0.07,0.06,-0.01,-0.05,-0.70,-0.70,-0.69
468.71,-0.83,-0.16,-0.83,-0.16,0.15,0.09,0.00,-0.68,-0.68,-0.68
473.40,-0.91,-0.25,-0.91,-0.24,0.24,0.20,0.05,-0.67,-0.67,-0.67
478.13,-0.98,-0.33,-0.98,-0.33,0.33,0.30,0.10,-0.65,-0.65,-0.66
482.91,-1.05,-0.42,-1.05,-0.41,0.42,0.41,0.15,-0.63,-0.63,-0.64
487.74,-1.12,-0.50,-1.12,-0.50,0.50,0.51,0.19,-0.62,-0.62,-0.63
492.62,-1.19,-0.58,-1.19,-0.58,0.59,0.61,0.22,-0.60,-0.60,-0.61
497.55,-1.26,-0.66,-1.26,-0.67,0.68,0.70,0.26,-0.59,-0.59,-0.60
502.52,-1.33,-0.75,-1.33,-0.76,0.76,0.79,0.29,-0.57,-0.57,-0.58
507.55,-1.40,-0.84,-1.40,-0.84,0.84,0.88,0.31,-0.56,-0.56,-0.56
