frequency,raw,error,smoothed,error_smoothed,equalization,parametric_eq,fixed_band_eq,equalized_raw,equalized_smoothed,target
20.00,-0.53,-0.66,-0.53,-0.66,0.67,-1.13,-0.28,0.14,0.13,0.13
20.20,-0.47,-0.64,-0.47,-0.64,0.64,-1.13,-0.29,0.17,0.17,0.17
20.40,-0.41,-0.62,-0.41,-0.61,0.61,-1.13,-0.30,0.20,0.20,0.21
20.61,-0.35,-0.58,-0.35,-0.58,0.58,-1.14,-0.31,0.23,0.23,0.23
20.81,-0.29,-0.56,-0.29,-0.56,0.55,-1.14,-0.31,0.26,0.26,0.27
21.02,-0.23,-0.54,-0.24,-0.53,0.53,-1.14,-0.32,0.30,0.29,0.31
21.23,-0.19,-0.51,-0.19,-0.51,0.50,-1.15,-0.33,0.31,0.31,0.32
21.44,-0.14,-0.48,-0.14,-0.48,0.47,-1.15,-0.34,0.33,0.33,0.34
21.66,-0.10,-0.45,-0.10,-0.44,0.45,-1.15,-0.35,0.35,0.35,0.34
21.87,-0.06,-0.40,-0.06,-0.41,0.42,-1.15,-0.36,0.36,0.36,0.34
22.09,-0.03,-0.38,-0.03,-0.39,0.39,-1.16,-0.37,0.36,0.36,0.35
22.31,-0.01,-0.36,-0.01,-0.37,0.37,-1.16,-0.38,0.36,0.36,0.35
22.54,-0.00,-0.35,0.00,-0.35,0.34,-1.16,-0.38,0.34,0.35,0.35
22.76,0.02,-0.32,0.02,-0.32,0.32,-1.17,-0.39,0.34,0.34,0.34
22.99,0.04,-0.29,0.04,-0.29,0.29,-1.17,-0.40,0.33,0.33,0.33
23.22,0.07,-0.26,0.07,-0.26,0.26,-1.18,-0.42,0.33,0.33,0.33
23.45,0.10,-0.22,0.10,-0.23,0.23,-1.18,-0.43,0.33,0.33,0.32
23.69,0.13,-0.19,0.13,-0.19,0.19,-1.18,-0.44,0.32,0.32,0.32
23.92,0.16,-0.16,0.17,-0.16,0.14,-1.19,-0.45,0.30,0.31,0.32
24.16,0.21,-0.12,0.21,-0.11,0.10,-1.19,-0.46,0.31,0.31,0.33
24.40,0.27,-0.06,0.27,-0.06,0.05,-1.20,-0.47,0.32,0.32,0.33
24.65,0.33,0.01,0.33,0.01,0.01,-1.20,-0.48,0.34,0.34,0.32
24.89,0.39,0.07,0.38,0.06,-0.03,-1.20,-0.49,0.36,0.35,0.32
25.14,0.42,0.10,0.42,0.10,-0.07,-1.21,-0.51,0.35,0.34,0.32
25.39,0.43,0.11,0.43,0.12,-0.12,-1.21,-0.52,0.31,0.32,0.32
25.65,0.45,0.14,0.44,0.14,-0.16,-1.22,-0.53,0.29,0.29,0.31
25.91,0.46,0.16,0.47,0.17,-0.20,-1.22,-0.54,0.26,0.27,0.30
26.16,0.50,0.21,0.51,0.21,-0.23,-1.23,-0.56,0.27,0.27,0.29
26.43,0.56,0.26,0.56,0.26,-0.27,-1.23,-0.57,0.29,0.29,0.29
26.69,0.61,0.32,0.61,0.32,-0.30,-1.24,-0.58,0.31,0.31,0.29
26.96,0.66,0.38,0.65,0.36,-0.33,-1.24,-0.60,0.33,0.32,0.28
27.23,0.67,0.39,0.67,0.39,-0.36,-1.25,-0.61,0.31,0.31,0.28
27.50,0.68,0.40,0.68,0.40,-0.40,-1.25,-0.63,0.28,0.28,0.28
27.77,0.68,0.41,0.68,0.41,-0.43,-1.26,-0.64,0.25,0.25,0.27
28.05,0.69,0.42,0.70,0.44,-0.47,-1.26,-0.65,0.22,0.23,0.27
28.33,0.75,0.49,0.74,0.48,-0.50,-1.27,-0.67,0.25,0.24,0.26
28.62,0.80,0.54,0.80,0.54,-0.54,-1.27,-0.68,0.26,0.26,0.26
28.90,0.86,0.60,0.85,0.60,-0.58,-1.28,-0.70,0.28,0.27,0.26
29.19,0.90,0.64,0.90,0.64,-0.62,-1.29,-0.71,0.28,0.27,0.26
29.48,0.93,0.67,0.94,0.68,-0.66,-1.29,-0.72,0.26,0.27,0.26
29.78,0.97,0.72,0.97,0.71,-0.71,-1.30,-0.74,0.26,0.26,0.25
30.08,1.00,0.74,1.00,0.74,-0.75,-1.30,-0.75,0.25,0.25,0.26
30.38,1.02,0.78,1.02,0.78,-0.78,-1.31,-0.77,0.24,0.24,0.24
30.68,1.05,0.81,1.05,0.81,-0.82,-1.32,-0.78,0.23,0.23,0.24
30.99,1.08,0.85,1.08,0.85,-0.86,-1.32,-0.80,0.22,0.22,0.23
31.30,1.12,0.89,1.12,0.89,-0.90,-1.33,-0.81,0.22,0.22,0.23
31.61,1.16,0.93,1.16,0.94,-0.94,-1.34,-0.82,0.22,0.22,0.22
31.93,1.20,1.00,1.20,0.99,-0.98,-1.35,-0.84,0.22,0.22,0.20
32.24,1.23,1.04,1.23,1.03,-1.01,-1.35,-0.85,0.22,0.21,0.19
32.57,1.25,1.06,1.25,1.07,-1.05,-1.36,-0.87,0.20,0.21,0.19
32.89,1.27,1.09,1.27,1.09,-1.08,-1.37,-0.88,0.19,0.19,0.18
33.22,1.28,1.12,1.27,1.11,-1.12,-1.38,-0.90,0.16,0.16,0.16
33.55,1.28,1.12,1.28,1.13,-1.15,-1.39,-0.91,0.13,0.12,0.15
33.89,1.28,1.15,1.29,1.16,-1.19,-1.39,-0.93,0.08,0.10,0.13
34.23,1.33,1.20,1.33,1.21,-1.24,-1.40,-0.94,0.09,0.10,0.13
34.57,1.39,1.28,1.39,1.28,-1.27,-1.41,-0.96,0.12,0.12,0.11
34.92,1.46,1.36,1.44,1.34,-1.31,-1.42,-0.97,0.15,0.14,0.10
35.27,1.48,1.38,1.47,1.39,-1.34,-1.43,-0.99,0.14,0.13,0.10
35.62,1.48,1.41,1.48,1.41,-1.38,-1.44,-1.01,0.10,0.11,0.07
35.97,1.48,1.42,1.48,1.42,-1.41,-1.45,-1.02,0.07,0.07,0.06
36.33,1.48,1.42,1.47,1.42,-1.45,-1.46,-1.04,0.03,0.02,0.06
36.70,1.48,1.43,1.48,1.43,-1.48,-1.47,-1.06,-0.00,-0.00,0.05
37.06,1.49,1.46,1.51,1.47,-1.51,-1.48,-1.08,-0.02,0.00,0.03
37.43,1.57,1.53,1.57,1.54,-1.54,-1.49,-1.10,0.03,0.03,0.04
37.81,1.64,1.61,1.63,1.60,-1.57,-1.50,-1.12,0.07,0.06,0.03
38.19,1.68,1.66,1.67,1.65,-1.60,-1.51,-1.14,0.08,0.07,0.01
38.57,1.68,1.66,1.68,1.67,-1.63,-1.52,-1.16,0.05,0.05,0.02
38.95,1.68,1.67,1.68,1.67,-1.67,-1.54,-1.19,0.01,0.01,0.01
39.34,1.68,1.67,1.67,1.67,-1.71,-1.55,-1.21,-0.03,-0.03,0.01
39.74,1.68,1.69,1.69,1.69,-1.74,-1.56,-1.24,-0.06,-0.06,-0.01
40.14,1.71,1.72,1.73,1.74,-1.77,-1.57,-1.26,-0.06,-0.04,-0.01
40.54,1.79,1.80,1.79,1.80,-1.80,-1.59,-1.29,-0.02,-0.02,-0.02
40.94,1.87,1.89,1.84,1.87,-1.84,-1.60,-1.32,0.03,0.01,-0.02
41.35,1.88,1.91,1.88,1.91,-1.87,-1.61,-1.35,0.01,0.01,-0.03
41.76,1.88,1.93,1.89,1.93,-1.90,-1.63,-1.37,-0.02,-0.02,-0.05
42.18,1.88,1.93,1.88,1.93,-1.93,-1.64,-1.41,-0.05,-0.05,-0.05
42.60,1.88,1.94,1.88,1.94,-1.95,-1.66,-1.44,-0.07,-0.07,-0.07
43.03,1.88,1.95,1.88,1.96,-1.96,-1.67,-1.47,-0.08,-0.08,-0.07
43.46,1.88,1.97,1.88,1.97,-1.98,-1.69,-1.51,-0.10,-0.10,-0.09
43.90,1.88,2.00,1.87,1.99,-2.01,-1.70,-1.54,-0.13,-0.13,-0.12
44.33,1.88,2.01,1.87,2.01,-2.04,-1.72,-1.58,-0.16,-0.17,-0.13
44.78,1.88,2.04,1.89,2.05,-2.09,-1.73,-1.62,-0.21,-0.19,-0.16
45.23,1.93,2.10,1.95,2.12,-2.13,-1.75,-1.66,-0.20,-0.19,-0.17
45.68,2.02,2.21,2.01,2.20,-2.18,-1.77,-1.70,-0.16,-0.17,-0.19
46.13,2.08,2.29,2.06,2.26,-2.22,-1.79,-1.74,-0.14,-0.16,-0.21
46.60,2.08,2.29,2.09,2.30,-2.26,-1.81,-1.78,-0.18,-0.17,-0.21
47.06,2.08,2.30,2.09,2.30,-2.29,-1.83,-1.82,-0.21,-0.21,-0.22
47.53,2.08,2.30,2.08,2.30,-2.32,-1.85,-1.87,-0.24,-0.24,-0.23
48.01,2.08,2.31,2.08,2.31,-2.33,-1.87,-1.91,-0.25,-0.25,-0.23
48.49,2.08,2.33,2.08,2.33,-2.33,-1.89,-1.96,-0.26,-0.26,-0.25
48.97,2.08,2.35,2.08,2.34,-2.34,-1.91,-2.01,-0.26,-0.26,-0.27
49.46,2.08,2.35,2.08,2.36,-2.35,-1.93,-2.06,-0.27,-0.27,-0.27
49.96,2.08,2.37,2.07,2.36,-2.37,-1.95,-2.10,-0.29,-0.29,-0.29
50.46,2.08,2.36,2.08,2.36,-2.38,-1.97,-2.15,-0.30,-0.31,-0.28
50.96,2.08,2.37,2.10,2.39,-2.40,-2.00,-2.20,-0.32,-0.30,-0.29
51.47,2.13,2.42,2.13,2.42,-2.42,-2.02,-2.25,-0.29,-0.29,-0.30
51.99,2.18,2.48,2.16,2.46,-2.44,-2.05,-2.30,-0.26,-0.28,-0.30
52.51,2.18,2.48,2.18,2.48,-2.46,-2.07,-2.35,-0.28,-0.28,-0.30
53.03,2.18,2.48,2.18,2.49,-2.49,-2.10,-2.40,-0.31,-0.31,-0.30
53.56,2.18,2.49,2.18,2.49,-2.52,-2.13,-2.45,-0.34,-0.34,-0.31
54.10,2.19,2.51,2.20,2.52,-2.54,-2.15,-2.50,-0.35,-0.34,-0.32
54.64,2.24,2.56,2.24,2.56,-2.57,-2.18,-2.55,-0.33,-0.33,-0.32
55.18,2.28,2.61,2.26,2.60,-2.59,-2.21,-2.60,-0.31,-0.33,-0.33
55.74,2.28,2.62,2.28,2.62,-2.61,-2.24,-2.64,-0.33,-0.33,-0.34
56.29,2.28,2.63,2.28,2.64,-2.62,-2.27,-2.69,-0.34,-0.34,-0.35
56.86,2.28,2.65,2.28,2.65,-2.63,-2.31,-2.73,-0.35,-0.35,-0.37
57.42,2.28,2.66,2.28,2.66,-2.64,-2.34,-2.77,-0.36,-0.36,-0.38
58.00,2.27,2.66,2.25,2.65,-2.64,-2.37,-2.81,-0.37,-0.38,-0.39
58.58,2.22,2.63,2.22,2.63,-2.63,-2.40,-2.84,-0.41,-0.41,-0.41
59.16,2.18,2.60,2.19,2.62,-2.64,-2.44,-2.88,-0.46,-0.44,-0.42
59.76,2.18,2.62,2.18,2.62,-2.65,-2.47,-2.91,-0.47,-0.47,-0.44
60.35,2.18,2.65,2.18,2.64,-2.66,-2.51,-2.94,-0.48,-0.49,-0.47
60.96,2.18,2.67,2.18,2.68,-2.69,-2.55,-2.96,-0.51,-0.51,-0.49
61.57,2.18,2.72,2.18,2.71,-2.71,-2.58,-2.98,-0.53,-0.53,-0.54
62.18,2.18,2.75,2.18,2.75,-2.74,-2.62,-3.00,-0.56,-0.56,-0.57
62.80,2.18,2.79,2.18,2.79,-2.77,-2.66,-3.01,-0.59,-0.59,-0.61
63.43,2.18,2.82,2.17,2.82,-2.80,-2.70,-3.03,-0.62,-0.63,-0.65
64.07,2.16,2.84,2.15,2.83,-2.83,-2.74,-3.03,-0.67,-0.68,-0.68
64.71,2.11,2.83,2.12,2.84,-2.85,-2.78,-3.04,-0.74,-0.73,-0.72
65.35,2.08,2.83,2.09,2.85,-2.86,-2.82,-3.04,-0.78,-0.76,-0.75
66.01,2.08,2.87,2.07,2.86,-2.85,-2.86,-3.04,-0.77,-0.78,-0.79
66.67,2.05,2.87,2.05,2.87,-2.84,-2.90,-3.04,-0.79,-0.79,-0.83
67.33,2.00,2.85,2.00,2.86,-2.82,-2.94,-3.03,-0.82,-0.81,-0.85
68.01,1.94,2.83,1.93,2.82,-2.79,-2.98,-3.03,-0.85,-0.86,-0.89
68.69,1.84,2.78,1.84,2.77,-2.77,-3.02,-3.02,-0.93,-0.94,-0.94
69.37,1.75,2.73,1.76,2.73,-2.76,-3.06,-3.01,-1.02,-1.01,-0.98
70.07,1.68,2.70,1.70,2.71,-2.77,-3.10,-2.99,-1.09,-1.07,-1.02
70.77,1.68,2.73,1.67,2.72,-2.78,-3.13,-2.98,-1.10,-1.11,-1.05
71.48,1.68,2.77,1.68,2.77,-2.80,-3.17,-2.96,-1.12,-1.12,-1.09
72.19,1.69,2.83,1.71,2.85,-2.83,-3.20,-2.95,-1.14,-1.13,-1.14
72.91,1.74,2.93,1.74,2.92,-2.88,-3.24,-2.93,-1.14,-1.14,-1.19
73.64,1.77,3.01,1.75,2.99,-2.93,-3.27,-2.92,-1.16,-1.18,-1.24
74.38,1.75,3.03,1.74,3.02,-3.00,-3.30,-2.90,-1.25,-1.26,-1.28
75.12,1.70,3.03,1.71,3.03,-3.06,-3.32,-2.89,-1.36,-1.35,-1.33
75.87,1.68,3.04,1.70,3.07,-3.12,-3.35,-2.87,-1.44,-1.41,-1.36
76.63,1.74,3.14,1.75,3.15,-3.17,-3.37,-2.86,-1.43,-1.43,-1.40
77.40,1.82,3.26,1.81,3.25,-3.23,-3.38,-2.84,-1.41,-1.42,-1.44
78.17,1.88,3.35,1.86,3.33,-3.30,-3.40,-2.83,-1.42,-1.44,-1.48
78.95,1.88,3.38,1.88,3.38,-3.37,-3.41,-2.82,-1.49,-1.49,-1.50
79.74,1.88,3.41,1.88,3.41,-3.45,-3.42,-2.81,-1.57,-1.57,-1.53
80.54,1.89,3.45,1.92,3.48,-3.52,-3.42,-2.80,-1.63,-1.61,-1.56
81.35,1.96,3.55,1.98,3.57,-3.58,-3.42,-2.79,-1.62,-1.60,-1.59
82.16,2.08,3.70,2.04,3.66,-3.62,-3.41,-2.79,-1.55,-1.59,-1.62
82.98,2.08,3.72,2.06,3.71,-3.65,-3.40,-2.79,-1.57,-1.60,-1.64
83.81,2.00,3.69,2.03,3.72,-3.67,-3.38,-2.78,-1.67,-1.64,-1.69
84.65,1.97,3.69,1.97,3.68,-3.68,-3.36,-2.78,-1.71,-1.71,-1.72
85.50,1.92,3.66,1.90,3.65,-3.68,-3.33,-2.79,-1.76,-1.77,-1.74
86.35,1.84,3.61,1.84,3.62,-3.66,-3.30,-2.79,-1.82,-1.81,-1.77
87.22,1.77,3.58,1.78,3.59,-3.62,-3.26,-2.80,-1.86,-1.84,-1.81
88.09,1.72,3.56,1.72,3.56,-3.58,-3.22,-2.81,-1.86,-1.86,-1.84
88.97,1.67,3.54,1.66,3.53,-3.53,-3.16,-2.82,-1.86,-1.87,-1.87
89.86,1.58,3.48,1.57,3.48,-3.46,-3.09,-2.83,-1.88,-1.89,-1.90
90.76,1.46,3.40,1.46,3.39,-3.37,-3.02,-2.85,-1.91,-1.92,-1.94
91.66,1.30,3.26,1.31,3.28,-3.25,-2.93,-2.86,-1.96,-1.94,-1.96
92.58,1.14,3.14,1.15,3.14,-3.10,-2.83,-2.88,-1.96,-1.95,-2.00
93.51,0.96,2.98,0.93,2.96,-2.92,-2.72,-2.90,-1.96,-1.98,-2.02
94.44,0.69,2.74,0.68,2.74,-2.70,-2.58,-2.93,-2.01,-2.02,-2.05
95.39,0.37,2.45,0.40,2.48,-2.46,-2.44,-2.95,-2.09,-2.07,-2.08
96.34,0.10,2.21,0.08,2.19,-2.21,-2.27,-2.98,-2.11,-2.13,-2.12
97.30,-0.21,1.93,-0.22,1.93,-1.95,-2.09,-3.01,-2.16,-2.16,-2.14
98.28,-0.52,1.65,-0.48,1.69,-1.68,-1.88,-3.04,-2.20,-2.16,-2.17
99.26,-0.72,1.47,-0.74,1.45,-1.43,-1.67,-3.07,-2.15,-2.17,-2.19
100.25,-0.95,1.27,-0.98,1.23,-1.21,-1.46,-3.11,-2.16,-2.20,-2.22
101.25,-1.22,1.02,-1.20,1.04,-1.04,-1.24,-3.14,-2.26,-2.24,-2.24
102.27,-1.41,0.86,-1.40,0.88,-0.92,-1.08,-3.18,-2.33,-2.32,-2.27
103.29,-1.51,0.81,-1.52,0.79,-0.87,-0.94,-3.22,-2.38,-2.39,-2.32
104.32,-1.57,0.77,-1.56,0.79,-0.88,-0.90,-3.26,-2.45,-2.43,-2.34
105.37,-1.52,0.86,-1.51,0.87,-0.95,-0.89,-3.29,-2.47,-2.46,-2.38
106.42,-1.38,1.03,-1.38,1.03,-1.07,-1.01,-3.33,-2.45,-2.45,-2.41
107.48,-1.19,1.25,-1.18,1.27,-1.24,-1.15,-3.37,-2.43,-2.42,-2.44
108.56,-0.95,1.53,-0.98,1.50,-1.44,-1.36,-3.41,-2.40,-2.42,-2.48
109.64,-0.77,1.75,-0.78,1.73,-1.67,-1.59,-3.45,-2.44,-2.45,-2.52
110.74,-0.63,1.92,-0.60,1.95,-1.90,-1.82,-3.49,-2.53,-2.50,-2.55
111.85,-0.43,2.15,-0.44,2.14,-2.13,-2.06,-3.53,-2.56,-2.57,-2.58
112.97,-0.26,2.36,-0.27,2.34,-2.35,-2.28,-3.57,-2.61,-2.62,-2.62
114.10,-0.11,2.53,-0.11,2.54,-2.56,-2.49,-3.60,-2.67,-2.66,-2.64
115.24,0.05,2.73,0.05,2.73,-2.75,-2.68,-3.64,-2.70,-2.70,-2.68
116.39,0.22,2.93,0.23,2.93,-2.94,-2.85,-3.67,-2.72,-2.72,-2.71
117.55,0.40,3.13,0.40,3.13,-3.13,-3.00,-3.70,-2.73,-2.73,-2.73
118.73,0.57,3.33,0.56,3.31,-3.30,-3.15,-3.73,-2.73,-2.74,-2.76
119.92,0.70,3.46,0.70,3.48,-3.47,-3.27,-3.75,-2.77,-2.76,-2.77
121.12,0.84,3.63,0.83,3.62,-3.61,-3.39,-3.78,-2.77,-2.78,-2.79
122.33,0.94,3.75,0.95,3.76,-3.74,-3.50,-3.80,-2.81,-2.79,-2.81
123.55,1.06,3.87,1.05,3.87,-3.86,-3.60,-3.82,-2.80,-2.81,-2.81
124.79,1.14,3.98,1.12,3.95,-3.95,-3.69,-3.83,-2.81,-2.83,-2.84
126.03,1.15,4.00,1.18,4.03,-4.03,-3.77,-3.85,-2.88,-2.85,-2.85
127.29,1.22,4.08,1.22,4.09,-4.09,-3.85,-3.85,-2.87,-2.87,-2.86
128.57,1.27,4.16,1.25,4.14,-4.13,-3.93,-3.86,-2.86,-2.88,-2.89
129.85,1.27,4.17,1.28,4.18,-4.17,-4.00,-3.87,-2.90,-2.89,-2.90
131.15,1.28,4.19,1.28,4.19,-4.19,-4.07,-3.87,-2.91,-2.91,-2.91
132.46,1.28,4.20,1.28,4.20,-4.21,-4.14,-3.87,-2.93,-2.93,-2.92
133.79,1.29,4.22,1.29,4.22,-4.23,-4.20,-3.87,-2.94,-2.94,-2.93
135.12,1.29,4.25,1.29,4.24,-4.24,-4.26,-3.86,-2.95,-2.95,-2.96
136.48,1.30,4.26,1.30,4.26,-4.26,-4.32,-3.86,-2.96,-2.97,-2.96
137.84,1.30,4.28,1.29,4.28,-4.29,-4.38,-3.85,-2.99,-3.00,-2.98
139.22,1.30,4.31,1.31,4.31,-4.32,-4.44,-3.84,-3.02,-3.01,-3.01
140.61,1.31,4.33,1.33,4.34,-4.36,-4.49,-3.83,-3.05,-3.03,-3.02
142.02,1.39,4.41,1.37,4.40,-4.41,-4.55,-3.82,-3.02,-3.04,-3.02
143.44,1.40,4.44,1.41,4.46,-4.46,-4.60,-3.81,-3.06,-3.04,-3.04
144.87,1.46,4.53,1.46,4.52,-4.51,-4.65,-3.80,-3.05,-3.05,-3.07
146.32,1.49,4.58,1.48,4.57,-4.57,-4.71,-3.80,-3.08,-3.09,-3.09
147.78,1.50,4.62,1.50,4.62,-4.63,-4.76,-3.79,-3.13,-3.13,-3.12
149.26,1.50,4.65,1.50,4.66,-4.68,-4.80,-3.78,-3.18,-3.18,-3.16
150.75,1.50,4.71,1.51,4.71,-4.72,-4.85,-3.77,-3.22,-3.22,-3.21
152.26,1.50,4.75,1.50,4.76,-4.75,-4.90,-3.77,-3.25,-3.25,-3.25
153.78,1.49,4.80,1.48,4.79,-4.76,-4.94,-3.76,-3.27,-3.28,-3.31
155.32,1.43,4.80,1.44,4.80,-4.75,-4.99,-3.76,-3.32,-3.31,-3.37
156.88,1.36,4.78,1.35,4.78,-4.72,-5.03,-3.76,-3.36,-3.37,-3.42
158.44,1.26,4.75,1.24,4.73,-4.69,-5.07,-3.76,-3.43,-3.45,-3.50
160.03,1.10,4.66,1.11,4.67,-4.67,-5.11,-3.76,-3.57,-3.55,-3.56
161.63,0.99,4.60,0.99,4.61,-4.66,-5.15,-3.77,-3.67,-3.66,-3.61
163.24,0.92,4.59,0.91,4.57,-4.67,-5.19,-3.78,-3.75,-3.76,-3.67
164.88,0.89,4.59,0.90,4.60,-4.70,-5.22,-3.79,-3.81,-3.80,-3.70
166.53,0.94,4.68,0.97,4.70,-4.76,-5.25,-3.80,-3.82,-3.80,-3.74
168.19,1.07,4.83,1.07,4.84,-4.84,-5.28,-3.82,-3.77,-3.77,-3.77
169.87,1.23,5.02,1.19,4.98,-4.92,-5.31,-3.84,-3.69,-3.74,-3.79
171.57,1.26,5.07,1.28,5.09,-5.01,-5.34,-3.86,-3.75,-3.73,-3.81
173.29,1.33,5.15,1.33,5.15,-5.09,-5.37,-3.89,-3.76,-3.76,-3.82
175.02,1.36,5.18,1.35,5.18,-5.15,-5.39,-3.92,-3.79,-3.80,-3.82
176.77,1.36,5.19,1.36,5.19,-5.19,-5.41,-3.95,-3.83,-3.83,-3.83
178.54,1.36,5.20,1.36,5.19,-5.21,-5.43,-3.98,-3.85,-3.84,-3.84
180.32,1.36,5.18,1.37,5.19,-5.21,-5.44,-4.02,-3.85,-3.84,-3.82
182.13,1.37,5.19,1.37,5.19,-5.19,-5.46,-4.06,-3.83,-3.82,-3.82
183.95,1.38,5.20,1.36,5.18,-5.18,-5.47,-4.10,-3.80,-3.83,-3.82
185.79,1.33,5.15,1.34,5.17,-5.17,-5.48,-4.15,-3.84,-3.83,-3.83
187.65,1.30,5.14,1.32,5.16,-5.16,-5.48,-4.20,-3.86,-3.84,-3.84
189.52,1.32,5.16,1.31,5.15,-5.15,-5.49,-4.25,-3.83,-3.85,-3.84
191.42,1.31,5.16,1.29,5.15,-5.15,-5.49,-4.31,-3.84,-3.85,-3.85
193.33,1.27,5.14,1.28,5.15,-5.15,-5.48,-4.36,-3.88,-3.87,-3.87
195.27,1.26,5.14,1.27,5.15,-5.16,-5.48,-4.42,-3.90,-3.89,-3.88
197.22,1.27,5.17,1.27,5.17,-5.18,-5.47,-4.49,-3.91,-3.91,-3.90
199.19,1.29,5.21,1.28,5.19,-5.21,-5.46,-4.55,-3.92,-3.93,-3.92
201.18,1.29,5.22,1.29,5.23,-5.24,-5.45,-4.61,-3.95,-3.95,-3.93
203.19,1.30,5.24,1.32,5.27,-5.27,-5.44,-4.68,-3.97,-3.95,-3.94
205.23,1.36,5.33,1.35,5.32,-5.31,-5.42,-4.75,-3.95,-3.95,-3.97
207.28,1.40,5.37,1.39,5.37,-5.34,-5.40,-4.82,-3.94,-3.96,-3.97
209.35,1.40,5.40,1.40,5.40,-5.38,-5.38,-4.88,-3.98,-3.98,-4.00
211.44,1.40,5.42,1.39,5.41,-5.41,-5.35,-4.95,-4.02,-4.02,-4.02
213.56,1.39,5.42,1.39,5.42,-5.45,-5.32,-5.02,-4.06,-4.05,-4.03
215.69,1.39,5.43,1.41,5.45,-5.48,-5.29,-5.09,-4.09,-4.07,-4.04
217.85,1.45,5.50,1.44,5.49,-5.50,-5.26,-5.15,-4.05,-4.06,-4.05
220.03,1.47,5.53,1.46,5.53,-5.51,-5.23,-5.22,-4.04,-4.05,-4.07
222.23,1.48,5.55,1.48,5.55,-5.52,-5.19,-5.28,-4.04,-4.04,-4.07
224.45,1.48,5.54,1.49,5.55,-5.52,-5.16,-5.34,-4.04,-4.04,-4.06
226.70,1.48,5.54,1.48,5.53,-5.52,-5.12,-5.39,-4.04,-4.05,-4.06
228.96,1.48,5.53,1.46,5.51,-5.51,-5.07,-5.44,-4.03,-4.05,-4.05
231.25,1.41,5.45,1.44,5.48,-5.49,-5.03,-5.49,-4.09,-4.06,-4.04
233.57,1.43,5.46,1.42,5.45,-5.47,-4.99,-5.53,-4.04,-4.05,-4.03
235.90,1.41,5.42,1.42,5.43,-5.44,-4.94,-5.56,-4.03,-4.02,-4.01
238.26,1.43,5.42,1.43,5.42,-5.40,-4.89,-5.59,-3.97,-3.97,-3.99
240.64,1.45,5.42,1.42,5.39,-5.37,-4.85,-5.61,-3.92,-3.95,-3.97
243.05,1.41,5.34,1.41,5.35,-5.35,-4.80,-5.62,-3.94,-3.94,-3.93
245.48,1.38,5.29,1.40,5.31,-5.33,-4.75,-5.62,-3.95,-3.93,-3.91
247.93,1.40,5.28,1.40,5.28,-5.32,-4.69,-5.62,-3.92,-3.92,-3.88
250.41,1.42,5.29,1.42,5.27,-5.30,-4.64,-5.61,-3.88,-3.89,-3.87
252.92,1.44,5.27,1.43,5.27,-5.28,-4.59,-5.60,-3.84,-3.85,-3.83
255.45,1.45,5.26,1.46,5.27,-5.26,-4.53,-5.57,-3.81,-3.80,-3.81
258.00,1.46,5.25,1.48,5.27,-5.23,-4.48,-5.54,-3.77,-3.75,-3.79
260.58,1.49,5.27,1.45,5.22,-5.19,-4.42,-5.49,-3.70,-3.74,-3.78
263.19,1.42,5.17,1.40,5.15,-5.13,-4.37,-5.45,-3.72,-3.74,-3.75
265.82,1.27,5.00,1.32,5.06,-5.06,-4.31,-5.39,-3.79,-3.73,-3.73
268.48,1.25,4.96,1.25,4.96,-4.97,-4.26,-5.33,-3.72,-3.71,-3.71
271.16,1.20,4.88,1.18,4.87,-4.86,-4.20,-5.26,-3.66,-3.68,-3.68
273.87,1.12,4.78,1.08,4.74,-4.74,-4.14,-5.19,-3.62,-3.66,-3.67
276.61,0.94,4.58,0.96,4.59,-4.61,-4.09,-5.11,-3.67,-3.65,-3.64
279.38,0.79,4.40,0.84,4.45,-4.47,-4.03,-5.03,-3.68,-3.63,-3.61
282.17,0.75,4.35,0.73,4.32,-4.32,-3.98,-4.94,-3.57,-3.58,-3.60
284.99,0.66,4.22,0.64,4.20,-4.16,-3.92,-4.85,-3.50,-3.52,-3.56
287.84,0.53,4.06,0.51,4.05,-4.01,-3.86,-4.76,-3.48,-3.50,-3.53
290.72,0.35,3.84,0.36,3.86,-3.87,-3.81,-4.66,-3.52,-3.51,-3.49
293.63,0.21,3.68,0.22,3.69,-3.74,-3.75,-4.57,-3.53,-3.51,-3.47
296.57,0.12,3.55,0.12,3.55,-3.61,-3.70,-4.47,-3.50,-3.50,-3.43
299.53,0.05,3.46,0.05,3.46,-3.50,-3.64,-4.37,-3.45,-3.45,-3.41
302.53,-0.00,3.39,0.01,3.39,-3.38,-3.59,-4.27,-3.38,-3.38,-3.39
305.55,-0.04,3.31,-0.04,3.32,-3.27,-3.53,-4.17,-3.31,-3.32,-3.35
308.61,-0.09,3.24,-0.12,3.21,-3.17,-3.48,-4.07,-3.26,-3.29,-3.33
311.69,-0.21,3.10,-0.21,3.09,-3.07,-3.43,-3.97,-3.28,-3.28,-3.31
314.81,-0.34,2.93,-0.31,2.97,-2.96,-3.37,-3.88,-3.30,-3.27,-3.27
317.96,-0.42,2.85,-0.42,2.84,-2.84,-3.32,-3.78,-3.26,-3.27,-3.27
321.14,-0.50,2.75,-0.52,2.72,-2.73,-3.27,-3.69,-3.23,-3.26,-3.25
324.35,-0.63,2.61,-0.63,2.61,-2.62,-3.22,-3.59,-3.25,-3.25,-3.24
327.59,-0.74,2.48,-0.73,2.49,-2.53,-3.17,-3.50,-3.27,-3.26,-3.22
330.87,-0.81,2.40,-0.81,2.41,-2.44,-3.12,-3.41,-3.25,-3.25,-3.21
334.18,-0.87,2.34,-0.86,2.35,-2.37,-3.07,-3.32,-3.24,-3.22,-3.21
337.52,-0.87,2.33,-0.89,2.30,-2.30,-3.03,-3.23,-3.17,-3.19,-3.20
340.90,-0.93,2.25,-0.93,2.26,-2.24,-2.98,-3.15,-3.17,-3.16,-3.18
344.30,-0.97,2.20,-0.97,2.20,-2.17,-2.93,-3.07,-3.14,-3.14,-3.17
347.75,-1.02,2.14,-1.02,2.14,-2.11,-2.89,-2.99,-3.13,-3.13,-3.16
351.23,-1.08,2.07,-1.09,2.07,-2.05,-2.84,-2.91,-3.13,-3.14,-3.15
354.74,-1.16,2.00,-1.16,1.99,-1.99,-2.80,-2.83,-3.15,-3.15,-3.16
358.28,-1.24,1.91,-1.23,1.92,-1.93,-2.75,-2.76,-3.17,-3.16,-3.15
361.87,-1.29,1.86,-1.30,1.85,-1.88,-2.71,-2.69,-3.17,-3.18,-3.15
365.49,-1.33,1.81,-1.32,1.82,-1.85,-2.67,-2.62,-3.18,-3.17,-3.14
369.14,-1.34,1.80,-1.33,1.82,-1.83,-2.63,-2.55,-3.17,-3.16,-3.14
372.83,-1.30,1.84,-1.33,1.81,-1.83,-2.59,-2.48,-3.13,-3.16,-3.14
376.56,-1.31,1.83,-1.31,1.83,-1.84,-2.55,-2.42,-3.15,-3.14,-3.14
380.33,-1.31,1.81,-1.28,1.86,-1.85,-2.51,-2.36,-3.16,-3.13,-3.12
384.13,-1.22,1.91,-1.24,1.89,-1.88,-2.47,-2.30,-3.10,-3.12,-3.14
387.97,-1.20,1.94,-1.21,1.92,-1.90,-2.43,-2.24,-3.10,-3.11,-3.14
391.85,-1.20,1.94,-1.19,1.94,-1.91,-2.40,-2.18,-3.12,-3.11,-3.14
395.77,-1.20,1.93,-1.20,1.93,-1.93,-2.36,-2.13,-3.13,-3.13,-3.13
399.73,-1.20,1.93,-1.20,1.93,-1.94,-2.33,-2.08,-3.14,-3.14,-3.13
403.72,-1.20,1.94,-1.20,1.93,-1.95,-2.29,-2.03,-3.15,-3.15,-3.14
407.76,-1.20,1.94,-1.20,1.94,-1.96,-2.26,-1.98,-3.16,-3.16,-3.14
411.84,-1.20,1.93,-1.20,1.94,-1.96,-2.23,-1.93,-3.16,-3.16,-3.13
415.96,-1.21,1.93,-1.20,1.94,-1.94,-2.19,-1.89,-3.15,-3.14,-3.14
420.12,-1.20,1.94,-1.20,1.94,-1.91,-2.16,-1.85,-3.11,-3.11,-3.14
424.32,-1.20,1.93,-1.21,1.93,-1.88,-2.13,-1.81,-3.08,-3.08,-3.13
428.56,-1.23,1.90,-1.25,1.88,-1.83,-2.10,-1.77,-3.06,-3.08,-3.13
432.85,-1.31,1.80,-1.32,1.79,-1.78,-2.08,-1.73,-3.09,-3.10,-3.12
437.18,-1.42,1.68,-1.40,1.69,-1.73,-2.05,-1.69,-3.15,-3.13,-3.10
441.55,-1.47,1.59,-1.46,1.61,-1.67,-2.02,-1.66,-3.14,-3.12,-3.06
445.96,-1.47,1.56,-1.46,1.57,-1.60,-1.99,-1.63,-3.08,-3.07,-3.03
450.42,-1.42,1.58,-1.43,1.56,-1.55,-1.97,-1.60,-2.97,-2.98,-3.00
454.93,-1.40,1.54,-1.41,1.54,-1.50,-1.94,-1.57,-2.90,-2.91,-2.94
459.48,-1.39,1.51,-1.40,1.49,-1.47,-1.92,-1.54,-2.86,-2.87,-2.90
464.07,-1.41,1.43,-1.39,1.45,-1.46,-1.90,-1.51,-2.87,-2.85,-2.84
468.71,-1.38,1.41,-1.37,1.42,-1.45,-1.88,-1.49,-2.83,-2.82,-2.79
