frequency,raw,error,smoothed,error_smoothed,equalization,parametric_eq,fixed_band_eq,equalized_raw,equalized_smoothed,target
20.00,-0.94,-5.93,-0.94,-5.93,5.93,5.42,1.16,4.99,4.99,4.99
20.20,-0.85,-5.81,-0.85,-5.82,5.82,5.52,1.19,4.97,4.97,4.96
20.40,-0.76,-5.70,-0.76,-5.70,5.70,5.61,1.23,4.94,4.94,4.94
20.61,-0.67,-5.59,-0.67,-5.59,5.59,5.67,1.27,4.92,4.92,4.92
20.81,-0.58,-5.48,-0.58,-5.48,5.48,5.72,1.30,4.90,4.90,4.90
21.02,-0.49,-5.37,-0.49,-5.37,5.37,5.76,1.34,4.88,4.88,4.88
21.23,-0.40,-5.26,-0.40,-5.26,5.26,5.77,1.38,4.86,4.86,4.86
21.44,-0.32,-5.16,-0.32,-5.16,5.16,5.76,1.43,4.84,4.84,4.84
21.66,-0.23,-5.05,-0.23,-5.05,5.05,5.73,1.47,4.82,4.83,4.82
21.87,-0.14,-4.95,-0.14,-4.95,4.95,5.69,1.51,4.81,4.81,4.81
22.09,-0.05,-4.84,-0.05,-4.85,4.85,5.62,1.56,4.80,4.80,4.79
22.31,0.03,-4.75,0.03,-4.75,4.75,5.54,1.61,4.78,4.78,4.78
22.54,0.12,-4.65,0.12,-4.65,4.65,5.45,1.65,4.77,4.77,4.77
22.76,0.21,-4.55,0.21,-4.55,4.55,5.34,1.70,4.76,4.76,4.76
22.99,0.30,-4.45,0.30,-4.46,4.45,5.22,1.75,4.75,4.75,4.75
23.22,0.38,-4.36,0.38,-4.36,4.36,5.09,1.81,4.74,4.74,4.74
23.45,0.47,-4.26,0.47,-4.26,4.26,4.95,1.86,4.73,4.73,4.73
23.69,0.56,-4.16,0.56,-4.16,4.17,4.81,1.91,4.72,4.73,4.72
23.92,0.65,-4.07,0.65,-4.07,4.07,4.66,1.97,4.72,4.72,4.72
24.16,0.74,-3.97,0.74,-3.98,3.98,4.51,2.02,4.72,4.72,4.71
24.40,0.82,-3.89,0.82,-3.89,3.89,4.36,2.08,4.71,4.71,4.71
24.65,0.91,-3.79,0.91,-3.80,3.79,4.20,2.14,4.70,4.70,4.70
24.89,0.99,-3.71,0.99,-3.71,3.70,4.05,2.19,4.70,4.70,4.70
25.14,1.08,-3.61,1.08,-3.61,3.61,3.90,2.25,4.70,4.69,4.69
25.39,1.16,-3.53,1.16,-3.53,3.53,3.76,2.31,4.69,4.69,4.69
25.65,1.25,-3.43,1.25,-3.44,3.44,3.61,2.37,4.69,4.69,4.68
25.91,1.33,-3.35,1.33,-3.35,3.35,3.47,2.42,4.68,4.68,4.68
26.16,1.41,-3.26,1.41,-3.26,3.27,3.34,2.48,4.68,4.68,4.67
26.43,1.49,-3.18,1.49,-3.18,3.18,3.20,2.54,4.67,4.67,4.67
26.69,1.57,-3.09,1.57,-3.10,3.09,3.07,2.59,4.66,4.66,4.66
26.96,1.65,-3.01,1.65,-3.01,3.01,2.95,2.65,4.66,4.66,4.66
27.23,1.73,-2.93,1.73,-2.93,2.93,2.83,2.70,4.66,4.66,4.66
27.50,1.81,-2.84,1.81,-2.85,2.84,2.71,2.75,4.65,4.65,4.65
27.77,1.89,-2.76,1.89,-2.76,2.76,2.60,2.80,4.65,4.65,4.65
28.05,1.96,-2.68,1.96,-2.68,2.68,2.50,2.84,4.64,4.64,4.64
28.33,2.04,-2.60,2.04,-2.60,2.60,2.39,2.88,4.64,4.64,4.64
28.62,2.12,-2.52,2.12,-2.52,2.52,2.29,2.92,4.64,4.64,4.64
28.90,2.19,-2.44,2.19,-2.44,2.44,2.20,2.95,4.63,4.64,4.63
29.19,2.27,-2.36,2.27,-2.36,2.37,2.11,2.98,4.64,4.64,4.63
29.48,2.34,-2.29,2.34,-2.29,2.30,2.02,3.01,4.64,4.64,4.63
29.78,2.41,-2.22,2.41,-2.22,2.23,1.94,3.03,4.64,4.64,4.63
30.08,2.47,-2.16,2.47,-2.16,2.16,1.86,3.05,4.63,4.63,4.63
30.38,2.53,-2.10,2.53,-2.10,2.10,1.78,3.06,4.63,4.63,4.63
30.68,2.58,-2.04,2.58,-2.04,2.04,1.71,3.06,4.62,4.62,4.62
30.99,2.64,-1.98,2.64,-1.98,1.98,1.64,3.06,4.62,4.62,4.62
31.30,2.70,-1.92,2.70,-1.92,1.92,1.57,3.05,4.62,4.62,4.62
31.61,2.76,-1.86,2.76,-1.86,1.86,1.50,3.04,4.62,4.62,4.62
31.93,2.82,-1.79,2.82,-1.80,1.80,1.44,3.02,4.62,4.62,4.61
32.24,2.87,-1.74,2.87,-1.74,1.75,1.38,3.00,4.62,4.62,4.61
32.57,2.92,-1.68,2.92,-1.69,1.69,1.32,2.97,4.61,4.61,4.60
32.89,2.96,-1.64,2.96,-1.64,1.64,1.27,2.93,4.60,4.60,4.60
33.22,3.01,-1.59,3.01,-1.59,1.59,1.21,2.89,4.60,4.60,4.60
33.55,3.06,-1.54,3.06,-1.54,1.53,1.16,2.85,4.59,4.59,4.60
33.89,3.11,-1.48,3.11,-1.48,1.48,1.11,2.80,4.59,4.59,4.59
34.23,3.16,-1.43,3.16,-1.43,1.42,1.07,2.74,4.58,4.59,4.59
34.57,3.22,-1.36,3.22,-1.37,1.37,1.02,2.68,4.59,4.59,4.58
34.92,3.27,-1.31,3.27,-1.31,1.32,0.97,2.62,4.59,4.58,4.58
35.27,3.32,-1.26,3.32,-1.26,1.26,0.93,2.56,4.58,4.58,4.58
35.62,3.37,-1.21,3.37,-1.21,1.21,0.89,2.49,4.58,4.58,4.58
35.97,3.42,-1.15,3.42,-1.16,1.16,0.85,2.42,4.58,4.58,4.57
36.33,3.46,-1.11,3.46,-1.11,1.12,0.81,2.35,4.58,4.58,4.57
36.70,3.50,-1.07,3.50,-1.07,1.07,0.78,2.27,4.57,4.57,4.57
37.06,3.54,-1.03,3.54,-1.03,1.03,0.74,2.20,4.57,4.57,4.57
37.43,3.58,-0.99,3.58,-0.99,0.98,0.70,2.12,4.57,4.57,4.57
37.81,3.62,-0.94,3.62,-0.94,0.94,0.67,2.04,4.56,4.56,4.56
38.19,3.66,-0.90,3.66,-0.90,0.90,0.64,1.96,4.56,4.56,4.56
38.57,3.70,-0.85,3.70,-0.85,0.85,0.60,1.89,4.55,4.55,4.55
38.95,3.74,-0.81,3.74,-0.81,0.81,0.57,1.81,4.55,4.55,4.55
39.34,3.78,-0.76,3.78,-0.76,0.76,0.54,1.73,4.54,4.54,4.54
39.74,3.83,-0.71,3.83,-0.71,0.72,0.51,1.65,4.55,4.54,4.54
40.14,3.87,-0.67,3.87,-0.67,0.67,0.49,1.57,4.54,4.54,4.54
40.54,3.91,-0.62,3.91,-0.63,0.63,0.46,1.49,4.54,4.54,4.53
40.94,3.94,-0.59,3.94,-0.59,0.59,0.43,1.41,4.53,4.54,4.53
41.35,3.98,-0.55,3.98,-0.55,0.56,0.40,1.33,4.54,4.53,4.53
41.76,4.01,-0.52,4.01,-0.52,0.52,0.38,1.25,4.53,4.53,4.53
42.18,4.05,-0.49,4.05,-0.49,0.49,0.35,1.17,4.54,4.53,4.54
42.60,4.08,-0.46,4.08,-0.46,0.45,0.33,1.10,4.54,4.54,4.54
43.03,4.12,-0.42,4.12,-0.42,0.42,0.30,1.02,4.54,4.54,4.54
43.46,4.16,-0.38,4.16,-0.39,0.39,0.28,0.94,4.55,4.54,4.54
43.90,4.19,-0.35,4.19,-0.35,0.35,0.25,0.87,4.54,4.54,4.54
44.33,4.23,-0.32,4.23,-0.32,0.31,0.23,0.79,4.55,4.55,4.55
44.78,4.27,-0.28,4.27,-0.28,0.28,0.21,0.72,4.55,4.55,4.55
45.23,4.31,-0.24,4.31,-0.24,0.24,0.18,0.65,4.55,4.55,4.55
45.68,4.35,-0.20,4.35,-0.20,0.21,0.16,0.57,4.56,4.56,4.55
46.13,4.39,-0.16,4.38,-0.17,0.17,0.14,0.50,4.56,4.55,4.55
46.60,4.41,-0.13,4.41,-0.13,0.14,0.12,0.43,4.55,4.55,4.54
47.06,4.43,-0.11,4.44,-0.11,0.10,0.10,0.36,4.53,4.54,4.54
47.53,4.47,-0.07,4.47,-0.08,0.07,0.07,0.29,4.54,4.53,4.54
48.01,4.50,-0.04,4.50,-0.04,0.03,0.05,0.22,4.53,4.53,4.54
48.49,4.53,-0.00,4.53,-0.00,0.00,0.03,0.16,4.53,4.53,4.53
48.97,4.57,0.04,4.57,0.03,-0.03,0.01,0.09,4.54,4.53,4.53
49.46,4.60,0.07,4.60,0.07,-0.07,-0.01,0.02,4.53,4.53,4.53
49.96,4.64,0.11,4.64,0.11,-0.10,-0.03,-0.04,4.53,4.54,4.53
50.46,4.68,0.14,4.68,0.14,-0.14,-0.05,-0.11,4.54,4.54,4.54
50.96,4.72,0.18,4.72,0.18,-0.17,-0.07,-0.17,4.55,4.54,4.54
51.47,4.75,0.21,4.75,0.21,-0.21,-0.09,-0.23,4.54,4.55,4.54
51.99,4.79,0.25,4.79,0.24,-0.24,-0.11,-0.29,4.55,4.54,4.54
52.51,4.82,0.27,4.82,0.27,-0.27,-0.13,-0.35,4.55,4.54,4.55
53.03,4.84,0.29,4.85,0.30,-0.31,-0.15,-0.41,4.53,4.54,4.55
53.56,4.89,0.34,4.89,0.34,-0.34,-0.17,-0.47,4.55,4.55,4.55
54.10,4.93,0.38,4.92,0.37,-0.37,-0.19,-0.53,4.56,4.56,4.55
54.64,4.96,0.41,4.96,0.41,-0.40,-0.21,-0.58,4.56,4.56,4.55
55.18,4.99,0.43,4.99,0.43,-0.43,-0.23,-0.63,4.56,4.57,4.56
55.74,5.02,0.46,5.02,0.45,-0.45,-0.25,-0.68,4.57,4.56,4.56
56.29,5.04,0.48,5.04,0.47,-0.48,-0.27,-0.73,4.56,4.56,4.56
56.86,5.06,0.49,5.06,0.50,-0.50,-0.29,-0.77,4.56,4.56,4.57
57.42,5.09,0.52,5.09,0.52,-0.52,-0.30,-0.82,4.57,4.57,4.57
58.00,5.12,0.55,5.12,0.54,-0.54,-0.32,-0.86,4.58,4.57,4.57
58.58,5.14,0.57,5.14,0.57,-0.56,-0.34,-0.89,4.58,4.58,4.57
59.16,5.16,0.58,5.16,0.58,-0.58,-0.36,-0.93,4.58,4.58,4.58
59.76,5.18,0.60,5.18,0.60,-0.59,-0.38,-0.96,4.59,4.59,4.58
60.35,5.19,0.61,5.19,0.61,-0.60,-0.40,-0.99,4.59,4.59,4.58
60.96,5.20,0.61,5.20,0.61,-0.61,-0.42,-1.01,4.59,4.59,4.59
61.57,5.21,0.62,5.21,0.62,-0.62,-0.43,-1.04,4.59,4.59,4.59
62.18,5.21,0.62,5.22,0.62,-0.63,-0.45,-1.06,4.58,4.59,4.59
62.80,5.23,0.64,5.22,0.63,-0.64,-0.47,-1.07,4.59,4.59,4.59
63.43,5.23,0.64,5.23,0.64,-0.64,-0.49,-1.08,4.59,4.59,4.59
64.07,5.24,0.65,5.24,0.65,-0.64,-0.51,-1.09,4.60,4.60,4.59
64.71,5.24,0.65,5.24,0.65,-0.64,-0.52,-1.10,4.60,4.60,4.59
65.35,5.24,0.65,5.24,0.65,-0.64,-0.54,-1.10,4.60,4.60,4.59
66.01,5.23,0.64,5.23,0.64,-0.64,-0.56,-1.10,4.59,4.59,4.59
66.67,5.22,0.63,5.22,0.63,-0.63,-0.57,-1.10,4.59,4.59,4.59
67.33,5.21,0.62,5.21,0.62,-0.63,-0.59,-1.10,4.58,4.58,4.59
68.01,5.21,0.62,5.21,0.62,-0.62,-0.60,-1.09,4.59,4.59,4.59
68.69,5.21,0.62,5.21,0.62,-0.62,-0.62,-1.08,4.59,4.59,4.59
69.37,5.21,0.62,5.21,0.62,-0.62,-0.63,-1.07,4.59,4.59,4.59
70.07,5.21,0.62,5.21,0.62,-0.62,-0.65,-1.06,4.59,4.59,4.59
70.77,5.21,0.62,5.21,0.62,-0.61,-0.66,-1.04,4.60,4.60,4.59
71.48,5.21,0.62,5.21,0.61,-0.61,-0.67,-1.02,4.60,4.60,4.59
72.19,5.21,0.61,5.21,0.61,-0.61,-0.68,-1.01,4.60,4.60,4.60
72.91,5.21,0.61,5.21,0.61,-0.61,-0.69,-0.99,4.60,4.60,4.60
73.64,5.21,0.61,5.21,0.60,-0.61,-0.70,-0.97,4.60,4.60,4.60
74.38,5.21,0.60,5.21,0.60,-0.60,-0.71,-0.95,4.61,4.61,4.61
75.12,5.21,0.60,5.21,0.60,-0.60,-0.72,-0.92,4.61,4.61,4.61
75.87,5.21,0.60,5.21,0.59,-0.59,-0.73,-0.90,4.62,4.62,4.61
76.63,5.21,0.59,5.21,0.59,-0.59,-0.74,-0.88,4.62,4.62,4.62
77.40,5.21,0.59,5.21,0.59,-0.59,-0.75,-0.86,4.62,4.62,4.62
78.17,5.21,0.58,5.21,0.58,-0.58,-0.75,-0.83,4.63,4.63,4.63
78.95,5.21,0.58,5.21,0.58,-0.57,-0.76,-0.81,4.64,4.64,4.63
79.74,5.21,0.58,5.21,0.57,-0.57,-0.76,-0.79,4.64,4.64,4.63
80.54,5.20,0.56,5.20,0.56,-0.56,-0.76,-0.76,4.64,4.64,4.64
81.35,5.20,0.56,5.20,0.56,-0.56,-0.76,-0.74,4.64,4.64,4.64
82.16,5.19,0.55,5.19,0.55,-0.55,-0.77,-0.72,4.64,4.64,4.64
82.98,5.19,0.55,5.19,0.55,-0.55,-0.77,-0.70,4.64,4.64,4.64
83.81,5.19,0.55,5.19,0.55,-0.55,-0.77,-0.67,4.64,4.64,4.64
84.65,5.20,0.56,5.20,0.55,-0.56,-0.76,-0.65,4.64,4.64,4.64
85.50,5.21,0.56,5.21,0.56,-0.57,-0.76,-0.63,4.64,4.65,4.65
86.35,5.23,0.58,5.23,0.58,-0.58,-0.76,-0.61,4.65,4.65,4.65
87.22,5.25,0.60,5.25,0.60,-0.60,-0.75,-0.59,4.65,4.65,4.65
88.09,5.27,0.62,5.28,0.63,-0.63,-0.75,-0.57,4.64,4.65,4.65
88.97,5.31,0.66,5.30,0.65,-0.65,-0.74,-0.55,4.66,4.65,4.65
89.86,5.34,0.69,5.34,0.68,-0.68,-0.74,-0.53,4.66,4.65,4.65
90.76,5.36,0.71,5.37,0.72,-0.71,-0.73,-0.51,4.65,4.65,4.65
91.66,5.40,0.75,5.40,0.75,-0.75,-0.72,-0.50,4.65,4.65,4.65
92.58,5.43,0.78,5.43,0.78,-0.78,-0.71,-0.48,4.65,4.65,4.65
93.51,5.46,0.81,5.46,0.81,-0.81,-0.70,-0.46,4.65,4.65,4.65
94.44,5.48,0.83,5.49,0.84,-0.84,-0.69,-0.45,4.64,4.65,4.65
95.39,5.52,0.87,5.52,0.87,-0.87,-0.68,-0.43,4.65,4.65,4.65
96.34,5.55,0.90,5.55,0.89,-0.89,-0.67,-0.42,4.66,4.66,4.65
97.30,5.57,0.91,5.57,0.91,-0.90,-0.66,-0.40,4.67,4.67,4.66
98.28,5.58,0.92,5.58,0.92,-0.90,-0.65,-0.39,4.68,4.68,4.66
99.26,5.57,0.91,5.57,0.91,-0.90,-0.63,-0.37,4.67,4.67,4.66
100.25,5.55,0.89,5.55,0.89,-0.89,-0.62,-0.36,4.66,4.66,4.66
101.25,5.52,0.86,5.52,0.86,-0.87,-0.61,-0.35,4.65,4.65,4.66
102.27,5.49,0.83,5.49,0.83,-0.84,-0.59,-0.34,4.65,4.65,4.66
103.29,5.47,0.81,5.47,0.81,-0.81,-0.58,-0.32,4.66,4.66,4.66
104.32,5.45,0.78,5.45,0.78,-0.78,-0.56,-0.31,4.67,4.67,4.67
105.37,5.42,0.75,5.42,0.75,-0.74,-0.55,-0.30,4.68,4.68,4.67
106.42,5.38,0.71,5.38,0.71,-0.70,-0.54,-0.29,4.68,4.68,4.67
107.48,5.35,0.67,5.35,0.67,-0.66,-0.52,-0.28,4.69,4.68,4.68
108.56,5.31,0.63,5.31,0.63,-0.63,-0.50,-0.27,4.68,4.68,4.68
109.64,5.27,0.59,5.27,0.59,-0.59,-0.49,-0.26,4.68,4.68,4.68
110.74,5.25,0.57,5.24,0.56,-0.56,-0.47,-0.25,4.69,4.68,4.68
111.85,5.21,0.52,5.21,0.53,-0.54,-0.46,-0.24,4.67,4.67,4.69
112.97,5.20,0.51,5.20,0.51,-0.53,-0.44,-0.23,4.67,4.67,4.69
114.10,5.19,0.50,5.20,0.50,-0.52,-0.43,-0.22,4.67,4.68,4.69
115.24,5.21,0.52,5.21,0.51,-0.52,-0.41,-0.21,4.69,4.69,4.69
116.39,5.22,0.53,5.22,0.52,-0.51,-0.40,-0.20,4.71,4.71,4.69
117.55,5.23,0.53,5.23,0.53,-0.51,-0.38,-0.20,4.72,4.72,4.70
118.73,5.23,0.53,5.22,0.52,-0.51,-0.37,-0.19,4.72,4.72,4.70
119.92,5.21,0.51,5.21,0.51,-0.50,-0.35,-0.18,4.71,4.71,4.70
121.12,5.19,0.48,5.19,0.48,-0.49,-0.33,-0.17,4.70,4.70,4.71
122.33,5.17,0.46,5.17,0.46,-0.47,-0.32,-0.17,4.70,4.71,4.71
123.55,5.15,0.43,5.15,0.43,-0.44,-0.30,-0.16,4.71,4.71,4.72
124.79,5.13,0.41,5.13,0.40,-0.40,-0.29,-0.15,4.73,4.73,4.72
126.03,5.09,0.37,5.10,0.37,-0.36,-0.27,-0.15,4.73,4.74,4.72
127.29,5.06,0.33,5.06,0.33,-0.31,-0.26,-0.14,4.75,4.74,4.73
128.57,5.01,0.28,5.00,0.27,-0.27,-0.24,-0.13,4.74,4.74,4.73
129.85,4.95,0.21,4.95,0.21,-0.22,-0.23,-0.13,4.73,4.73,4.74
131.15,4.88,0.14,4.90,0.15,-0.17,-0.21,-0.12,4.71,4.73,4.74
132.46,4.85,0.11,4.85,0.10,-0.11,-0.20,-0.11,4.74,4.73,4.74
133.79,4.81,0.07,4.80,0.06,-0.06,-0.18,-0.11,4.75,4.74,4.74
135.12,4.75,0.01,4.76,0.01,-0.01,-0.17,-0.10,4.74,4.74,4.74
136.48,4.71,-0.03,4.71,-0.04,0.04,-0.16,-0.10,4.75,4.74,4.74
137.84,4.66,-0.09,4.67,-0.08,0.09,-0.14,-0.09,4.75,4.75,4.75
139.22,4.63,-0.12,4.63,-0.13,0.14,-0.13,-0.08,4.77,4.76,4.75
140.61,4.59,-0.16,4.58,-0.18,0.18,-0.11,-0.08,4.77,4.76,4.75
142.02,4.51,-0.24,4.52,-0.23,0.23,-0.10,-0.07,4.74,4.76,4.75
143.44,4.47,-0.28,4.47,-0.29,0.28,-0.09,-0.07,4.75,4.75,4.75
144.87,4.42,-0.34,4.42,-0.34,0.32,-0.07,-0.06,4.74,4.74,4.76
146.32,4.38,-0.38,4.38,-0.38,0.37,-0.06,-0.06,4.75,4.75,4.76
147.78,4.35,-0.41,4.35,-0.41,0.41,-0.04,-0.05,4.76,4.76,4.76
149.26,4.33,-0.44,4.33,-0.44,0.45,-0.03,-0.05,4.78,4.78,4.77
150.75,4.30,-0.47,4.30,-0.48,0.49,-0.02,-0.04,4.79,4.79,4.77
152.26,4.26,-0.51,4.26,-0.52,0.53,-0.00,-0.04,4.79,4.79,4.77
153.78,4.22,-0.56,4.22,-0.56,0.56,0.01,-0.03,4.78,4.78,4.78
155.32,4.19,-0.59,4.19,-0.59,0.58,0.02,-0.03,4.77,4.77,4.78
156.88,4.16,-0.62,4.16,-0.62,0.60,0.04,-0.02,4.76,4.77,4.78
158.44,4.15,-0.64,4.15,-0.63,0.62,0.05,-0.02,4.77,4.78,4.79
160.03,4.15,-0.64,4.15,-0.64,0.64,0.06,-0.02,4.79,4.79,4.79
161.63,4.17,-0.62,4.16,-0.63,0.65,0.08,-0.01,4.82,4.81,4.79
163.24,4.16,-0.63,4.16,-0.63,0.65,0.09,-0.01,4.81,4.81,4.79
164.88,4.15,-0.64,4.16,-0.64,0.65,0.10,-0.00,4.80,4.81,4.79
166.53,4.15,-0.65,4.15,-0.65,0.65,0.12,0.00,4.80,4.80,4.80
168.19,4.16,-0.64,4.16,-0.65,0.63,0.13,0.00,4.79,4.79,4.80
169.87,4.17,-0.63,4.17,-0.64,0.62,0.14,0.01,4.79,4.79,4.80
171.57,4.19,-0.62,4.20,-0.61,0.60,0.15,0.01,4.79,4.79,4.81
173.29,4.23,-0.58,4.23,-0.58,0.57,0.17,0.02,4.80,4.80,4.81
175.02,4.28,-0.53,4.28,-0.54,0.54,0.18,0.02,4.82,4.82,4.81
176.77,4.32,-0.49,4.32,-0.49,0.51,0.19,0.02,4.83,4.83,4.81
178.54,4.37,-0.45,4.37,-0.45,0.47,0.21,0.03,4.84,4.84,4.82
180.32,4.40,-0.42,4.40,-0.43,0.44,0.22,0.03,4.84,4.83,4.82
182.13,4.42,-0.40,4.42,-0.40,0.40,0.23,0.03,4.82,4.82,4.82
183.95,4.44,-0.38,4.44,-0.38,0.37,0.25,0.04,4.81,4.81,4.82
185.79,4.47,-0.34,4.47,-0.35,0.33,0.26,0.04,4.80,4.80,4.81
187.65,4.50,-0.31,4.51,-0.31,0.30,0.27,0.05,4.80,4.80,4.81
189.52,4.55,-0.26,4.55,-0.27,0.26,0.29,0.05,4.81,4.81,4.81
191.42,4.59,-0.22,4.59,-0.23,0.23,0.30,0.05,4.82,4.82,4.81
193.33,4.63,-0.19,4.63,-0.19,0.20,0.31,0.06,4.83,4.83,4.82
195.27,4.67,-0.15,4.67,-0.15,0.16,0.33,0.06,4.83,4.83,4.82
197.22,4.70,-0.12,4.70,-0.13,0.13,0.34,0.06,4.83,4.83,4.82
199.19,4.72,-0.10,4.72,-0.11,0.10,0.35,0.07,4.82,4.82,4.82
201.18,4.74,-0.09,4.74,-0.08,0.07,0.37,0.07,4.81,4.82,4.83
203.19,4.77,-0.06,4.77,-0.06,0.05,0.38,0.08,4.82,4.82,4.83
205.23,4.81,-0.02,4.81,-0.03,0.02,0.39,0.08,4.83,4.83,4.83
207.28,4.84,-0.00,4.84,-0.00,0.00,0.41,0.08,4.84,4.84,4.84
209.35,4.86,0.02,4.86,0.02,-0.02,0.42,0.09,4.84,4.85,4.84
211.44,4.88,0.04,4.89,0.04,-0.03,0.44,0.09,4.85,4.85,4.84
213.56,4.91,0.06,4.90,0.05,-0.04,0.45,0.10,4.87,4.86,4.85
215.69,4.91,0.06,4.91,0.06,-0.05,0.46,0.11,4.86,4.86,4.85
217.85,4.91,0.06,4.91,0.06,-0.05,0.48,0.11,4.86,4.86,4.85
220.03,4.90,0.05,4.90,0.04,-0.05,0.49,0.12,4.85,4.85,4.85
222.23,4.89,0.03,4.89,0.04,-0.04,0.51,0.12,4.85,4.85,4.86
224.45,4.89,0.03,4.89,0.03,-0.04,0.52,0.13,4.85,4.85,4.86
226.70,4.89,0.03,4.89,0.03,-0.03,0.54,0.14,4.86,4.86,4.86
228.96,4.89,0.03,4.89,0.03,-0.02,0.55,0.15,4.87,4.87,4.86
231.25,4.89,0.02,4.89,0.02,-0.02,0.57,0.16,4.87,4.87,4.87
233.57,4.89,0.02,4.89,0.02,-0.02,0.58,0.17,4.87,4.87,4.87
235.90,4.89,0.01,4.89,0.01,-0.02,0.60,0.18,4.87,4.87,4.88
238.26,4.90,0.02,4.90,0.01,-0.02,0.61,0.19,4.88,4.88,4.88
240.64,4.91,0.02,4.91,0.02,-0.01,0.63,0.20,4.90,4.90,4.89
243.05,4.91,0.01,4.91,0.01,-0.00,0.65,0.21,4.91,4.91,4.90
245.48,4.91,0.01,4.91,-0.00,0.01,0.66,0.23,4.92,4.92,4.90
247.93,4.89,-0.02,4.89,-0.02,0.03,0.68,0.24,4.92,4.92,4.91
250.41,4.87,-0.05,4.87,-0.05,0.05,0.70,0.25,4.92,4.92,4.92
252.92,4.85,-0.08,4.85,-0.08,0.08,0.71,0.27,4.93,4.93,4.93
255.45,4.83,-0.10,4.83,-0.11,0.11,0.73,0.29,4.94,4.93,4.93
258.00,4.80,-0.14,4.80,-0.14,0.14,0.75,0.30,4.94,4.94,4.94
260.58,4.76,-0.18,4.77,-0.18,0.17,0.76,0.32,4.93,4.94,4.94
263.19,4.74,-0.21,4.74,-0.21,0.21,0.78,0.34,4.95,4.95,4.95
265.82,4.71,-0.24,4.71,-0.24,0.24,0.80,0.36,4.95,4.96,4.95
268.48,4.69,-0.27,4.68,-0.28,0.28,0.82,0.38,4.97,4.96,4.96
271.16,4.65,-0.31,4.65,-0.31,0.32,0.83,0.40,4.97,4.97,4.96
273.87,4.60,-0.36,4.61,-0.36,0.36,0.85,0.43,4.96,4.97,4.96
276.61,4.57,-0.40,4.57,-0.40,0.40,0.87,0.45,4.97,4.97,4.97
279.38,4.53,-0.44,4.53,-0.44,0.44,0.89,0.48,4.97,4.97,4.97
282.17,4.49,-0.48,4.49,-0.49,0.48,0.91,0.50,4.97,4.97,4.97
284.99,4.45,-0.53,4.45,-0.53,0.52,0.93,0.53,4.97,4.97,4.98
287.84,4.42,-0.56,4.42,-0.56,0.55,0.95,0.55,4.97,4.97,4.98
290.72,4.40,-0.58,4.40,-0.59,0.58,0.97,0.58,4.98,4.98,4.98
293.63,4.37,-0.61,4.37,-0.61,0.61,0.99,0.61,4.98,4.98,4.98
296.57,4.35,-0.63,4.35,-0.63,0.64,1.01,0.64,4.99,4.99,4.98
299.53,4.33,-0.65,4.33,-0.66,0.67,1.03,0.67,5.00,4.99,4.98
302.53,4.30,-0.69,4.30,-0.69,0.70,1.05,0.70,5.00,5.00,4.99
305.55,4.27,-0.72,4.27,-0.72,0.73,1.07,0.73,5.00,5.00,4.99
308.61,4.24,-0.76,4.24,-0.76,0.76,1.09,0.76,5.00,4.99,5.00
311.69,4.20,-0.80,4.21,-0.80,0.79,1.11,0.80,4.99,4.99,5.00
314.81,4.18,-0.83,4.18,-0.83,0.82,1.13,0.83,5.00,5.00,5.01
317.96,4.16,-0.85,4.16,-0.86,0.85,1.16,0.87,5.01,5.01,5.01
321.14,4.14,-0.88,4.14,-0.88,0.88,1.18,0.90,5.02,5.02,5.02
324.35,4.12,-0.90,4.12,-0.90,0.92,1.20,0.94,5.04,5.03,5.02
327.59,4.09,-0.93,4.09,-0.94,0.95,1.22,0.97,5.04,5.04,5.02
330.87,4.05,-0.98,4.05,-0.98,1.00,1.25,1.01,5.05,5.04,5.03
334.18,4.00,-1.03,4.00,-1.03,1.04,1.27,1.05,5.04,5.04,5.03
337.52,3.95,-1.09,3.95,-1.09,1.09,1.30,1.09,5.04,5.04,5.04
340.90,3.90,-1.15,3.90,-1.15,1.14,1.32,1.13,5.04,5.03,5.05
344.30,3.85,-1.20,3.85,-1.20,1.18,1.34,1.17,5.03,5.04,5.05
347.75,3.81,-1.24,3.81,-1.24,1.23,1.37,1.22,5.04,5.04,5.05
351.23,3.78,-1.27,3.77,-1.28,1.28,1.39,1.26,5.06,5.05,5.05
354.74,3.74,-1.32,3.74,-1.32,1.32,1.42,1.31,5.06,5.06,5.06
358.28,3.70,-1.36,3.70,-1.36,1.37,1.44,1.35,5.07,5.07,5.06
361.87,3.67,-1.39,3.66,-1.40,1.41,1.47,1.40,5.08,5.07,5.06
365.49,3.62,-1.44,3.62,-1.44,1.45,1.50,1.44,5.07,5.07,5.06
369.14,3.57,-1.49,3.57,-1.49,1.49,1.52,1.49,5.06,5.06,5.06
372.83,3.52,-1.54,3.52,-1.54,1.53,1.55,1.54,5.05,5.05,5.06
376.56,3.48,-1.59,3.48,-1.59,1.57,1.58,1.59,5.05,5.06,5.07
380.33,3.45,-1.62,3.45,-1.62,1.61,1.61,1.64,5.06,5.06,5.07
384.13,3.42,-1.65,3.42,-1.65,1.66,1.63,1.69,5.08,5.07,5.07
387.97,3.39,-1.68,3.39,-1.69,1.70,1.66,1.75,5.09,5.08,5.07
391.85,3.35,-1.73,3.35,-1.73,1.74,1.69,1.80,5.09,5.09,5.08
395.77,3.31,-1.77,3.31,-1.77,1.78,1.72,1.85,5.09,5.09,5.08
399.73,3.27,-1.82,3.27,-1.82,1.83,1.75,1.91,5.10,5.09,5.09
403.72,3.22,-1.87,3.22,-1.87,1.87,1.78,1.96,5.09,5.09,5.09
407.76,3.17,-1.93,3.18,-1.92,1.91,1.81,2.02,5.08,5.09,5.10
411.84,3.14,-1.96,3.14,-1.97,1.95,1.84,2.07,5.09,5.09,5.10
415.96,3.11,-2.00,3.11,-2.00,1.99,1.87,2.13,5.10,5.10,5.11
420.12,3.08,-2.03,3.08,-2.03,2.04,1.90,2.19,5.12,5.12,5.11
424.32,3.06,-2.05,3.05,-2.06,2.08,1.93,2.24,5.14,5.13,5.11
428.56,3.02,-2.10,3.02,-2.10,2.11,1.96,2.30,5.13,5.13,5.12
432.85,2.97,-2.15,2.97,-2.15,2.15,1.99,2.35,5.12,5.12,5.12
437.18,2.92,-2.20,2.92,-2.20,2.19,2.03,2.41,5.11,5.11,5.12
441.55,2.88,-2.24,2.88,-2.24,2.23,2.06,2.46,5.11,5.11,5.12
445.96,2.85,-2.27,2.85,-2.28,2.27,2.09,2.52,5.12,5.11,5.12
450.42,2.81,-2.31,2.81,-2.31,2.31,2.13,2.57,5.12,5.12,5.12
454.93,2.78,-2.34,2.78,-2.34,2.35,2.16,2.62,5.13,5.13,5.12
459.48,2.74,-2.38,2.74,-2.38,2.39,2.19,2.67,5.13,5.13,5.12
464.07,2.70,-2.42,2.70,-2.42,2.43,2.23,2.72,5.13,5.13,5.12
468.71,2.65,-2.47,2.65,-2.47,2.48,2.26,2.76,5.13,5.13,5.12
473.40,2.60,-2.52,2.60,-2.52,2.52,2.30,2.81,5.12,5.13,5.12
478.13,2.56,-2.57,2.56,-2.57,2.57,2.33,2.85,5.13,5.13,5.13
482.91,2.51,-2.62,2.51,-2.62,2.62,2.37,2.89,5.13,5.13,5.13
487.74,2.46,-2.67,2.46,-2.67,2.67,2.40,2.92,5.13,5.13,5.13
492.62,2.41,-2.72,2.41,-2.72,2.72,2.44,2.96,5.13,5.13,5.13
497.55,2.37,-2.77,2.37,-2.77,2.77,2.48,2.99,5.14,5.14,5.14
502.52,2.33,-2.81,2.33,-2.81,2.81,2.52,3.02,5.14,5.14,5.14
507.55,2.28,-2.86,2.28,-2.86,2.86,2.55,3.05,5.14,5.15,5.14
512.62,2.24,-2.90,2.24,-2.91,2.91,2.59,3.08,5.15,5.15,5.14
517.75,2.19,-2.96,2.19,-2.96,2.96,2.63,3.10,5.15,5.15,5.15
522.93,2.15,-3.00,2.15,-3.00,3.01,2.67,3.12,5.16,5.15,5.15
528.16,2.10,-3.05,2.10,-3.05,3.05,2.71,3.14,5.15,5.15,5.15
533.44,2.05,-3.10,2.05,-3.10,3.10,2.74,3.16,5.15,5.15,5.15
538.77,2.01,-3.15,2.01,-3.15,3.15,2.78,3.18,5.16,5.15,5.16
544.16,1.96,-3.20,1.96,-3.20,3.20,2.82,3.20,5.16,5.16,5.16
549.60,1.92,-3.24,1.92,-3.24,3.24,2.86,3.21,5.16,5.16,5.16
555.10,1.88,-3.28,1.88,-3.29,3.29,2.90,3.22,5.17,5.16,5.16
560.65,1.83,-3.33,1.83,-3.33,3.34,2.94,3.24,5.17,5.17,5.16
566.25,1.78,-3.38,1.78,-3.38,3.38,2.98,3.25,5.16,5.17,5.16
