frequency,raw,error,smoothed,error_smoothed,equalization,parametric_eq,fixed_band_eq,equalized_raw,equalized_smoothed,target
20.00,0.28,-5.93,0.29,-5.92,5.96,5.00,1.89,6.24,6.25,6.20
20.20,0.32,-5.88,0.31,-5.88,5.90,4.98,1.94,6.22,6.21,6.19
20.40,0.36,-5.83,0.35,-5.84,5.83,4.95,2.00,6.19,6.18,6.19
20.61,0.40,-5.79,0.39,-5.79,5.77,4.93,2.06,6.16,6.16,6.18
20.81,0.43,-5.74,0.43,-5.74,5.70,4.90,2.12,6.13,6.13,6.17
21.02,0.48,-5.68,0.49,-5.68,5.63,4.87,2.19,6.11,6.12,6.16
21.23,0.57,-5.59,0.56,-5.60,5.57,4.84,2.25,6.14,6.13,6.16
21.44,0.66,-5.51,0.66,-5.51,5.50,4.82,2.32,6.16,6.16,6.17
21.66,0.75,-5.41,0.75,-5.41,5.42,4.79,2.39,6.17,6.18,6.16
21.87,0.84,-5.32,0.83,-5.32,5.35,4.76,2.46,6.19,6.18,6.16
22.09,0.91,-5.24,0.90,-5.25,5.28,4.73,2.53,6.19,6.18,6.15
22.31,0.95,-5.20,0.95,-5.19,5.21,4.71,2.61,6.16,6.16,6.15
22.54,0.99,-5.15,0.99,-5.15,5.15,4.68,2.68,6.14,6.15,6.14
22.76,1.03,-5.12,1.03,-5.12,5.10,4.65,2.76,6.13,6.13,6.15
22.99,1.07,-5.08,1.07,-5.07,5.06,4.62,2.84,6.13,6.13,6.15
23.22,1.11,-5.03,1.11,-5.03,5.02,4.59,2.92,6.13,6.13,6.14
23.45,1.16,-4.98,1.16,-4.98,4.98,4.56,3.01,6.14,6.14,6.14
23.69,1.20,-4.94,1.20,-4.93,4.94,4.53,3.09,6.14,6.15,6.13
23.92,1.25,-4.88,1.24,-4.89,4.91,4.50,3.18,6.16,6.15,6.13
24.16,1.28,-4.86,1.28,-4.86,4.87,4.47,3.27,6.15,6.15,6.14
24.40,1.31,-4.84,1.31,-4.84,4.84,4.44,3.36,6.15,6.15,6.15
24.65,1.34,-4.81,1.34,-4.81,4.80,4.41,3.45,6.14,6.14,6.15
24.89,1.37,-4.78,1.37,-4.78,4.76,4.38,3.54,6.13,6.14,6.15
25.14,1.41,-4.73,1.41,-4.73,4.72,4.35,3.64,6.13,6.14,6.14
25.39,1.46,-4.68,1.46,-4.68,4.68,4.32,3.73,6.14,6.14,6.14
25.65,1.51,-4.63,1.51,-4.63,4.63,4.29,3.83,6.14,6.13,6.14
25.91,1.56,-4.58,1.56,-4.58,4.57,4.26,3.92,6.13,6.13,6.14
26.16,1.61,-4.53,1.61,-4.52,4.52,4.23,4.01,6.13,6.13,6.13
26.43,1.67,-4.46,1.67,-4.46,4.46,4.19,4.11,6.13,6.13,6.12
26.69,1.72,-4.40,1.72,-4.40,4.41,4.16,4.20,6.13,6.13,6.12
26.96,1.77,-4.34,1.76,-4.35,4.36,4.13,4.29,6.13,6.13,6.11
27.23,1.80,-4.30,1.80,-4.31,4.32,4.10,4.37,6.12,6.12,6.10
27.50,1.83,-4.27,1.83,-4.27,4.28,4.07,4.46,6.11,6.11,6.10
27.77,1.85,-4.25,1.85,-4.25,4.24,4.03,4.54,6.09,6.10,6.10
28.05,1.88,-4.22,1.88,-4.22,4.21,4.00,4.62,6.09,6.09,6.10
28.33,1.91,-4.19,1.91,-4.18,4.18,3.97,4.69,6.08,6.08,6.09
28.62,1.94,-4.15,1.94,-4.15,4.14,3.94,4.76,6.08,6.08,6.08
28.90,1.97,-4.12,1.97,-4.12,4.11,3.90,4.82,6.07,6.08,6.09
29.19,2.01,-4.08,2.02,-4.08,4.07,3.87,4.88,6.08,6.09,6.09
29.48,2.07,-4.03,2.07,-4.03,4.04,3.84,4.93,6.11,6.11,6.10
29.78,2.12,-3.98,2.12,-3.98,4.01,3.80,4.97,6.12,6.12,6.10
30.08,2.16,-3.95,2.15,-3.95,3.97,3.77,5.00,6.13,6.12,6.10
30.38,2.17,-3.92,2.16,-3.93,3.93,3.74,5.03,6.10,6.09,6.09
30.68,2.17,-3.92,2.17,-3.92,3.89,3.70,5.05,6.06,6.06,6.09
30.99,2.18,-3.90,2.19,-3.89,3.85,3.67,5.06,6.03,6.05,6.08
31.30,2.24,-3.84,2.24,-3.84,3.82,3.63,5.06,6.06,6.06,6.08
31.61,2.30,-3.78,2.30,-3.77,3.78,3.60,5.06,6.08,6.08,6.07
31.93,2.37,-3.69,2.35,-3.71,3.75,3.57,5.04,6.11,6.10,6.06
32.24,2.38,-3.68,2.37,-3.68,3.71,3.53,5.02,6.09,6.08,6.06
32.57,2.38,-3.67,2.38,-3.66,3.67,3.50,4.98,6.05,6.05,6.05
32.89,2.38,-3.66,2.39,-3.65,3.63,3.46,4.95,6.01,6.02,6.03
33.22,2.41,-3.62,2.41,-3.62,3.60,3.43,4.90,6.01,6.01,6.03
33.55,2.45,-3.58,2.45,-3.58,3.57,3.39,4.84,6.02,6.02,6.03
33.89,2.50,-3.53,2.49,-3.53,3.54,3.36,4.78,6.04,6.03,6.03
34.23,2.53,-3.48,2.52,-3.49,3.50,3.32,4.72,6.03,6.03,6.01
34.57,2.55,-3.46,2.55,-3.46,3.47,3.28,4.64,6.01,6.02,6.01
34.92,2.57,-3.43,2.57,-3.43,3.42,3.25,4.57,5.99,6.00,6.00
35.27,2.61,-3.39,2.60,-3.39,3.38,3.21,4.49,5.99,5.99,6.00
35.62,2.64,-3.34,2.64,-3.34,3.33,3.18,4.40,5.97,5.97,5.98
35.97,2.68,-3.29,2.68,-3.29,3.29,3.14,4.31,5.97,5.96,5.97
36.33,2.71,-3.24,2.71,-3.24,3.24,3.10,4.22,5.95,5.95,5.95
36.70,2.75,-3.19,2.75,-3.19,3.18,3.07,4.13,5.93,5.93,5.94
37.06,2.79,-3.13,2.79,-3.13,3.13,3.03,4.04,5.92,5.92,5.92
37.43,2.83,-3.08,2.83,-3.08,3.08,2.99,3.94,5.91,5.92,5.91
37.81,2.87,-3.02,2.86,-3.02,3.04,2.96,3.84,5.91,5.91,5.89
38.19,2.89,-2.97,2.88,-2.98,3.00,2.92,3.75,5.89,5.89,5.86
38.57,2.89,-2.95,2.89,-2.94,2.96,2.88,3.65,5.85,5.85,5.84
38.95,2.89,-2.92,2.89,-2.92,2.92,2.84,3.55,5.81,5.81,5.81
39.34,2.89,-2.90,2.88,-2.90,2.87,2.81,3.46,5.76,5.75,5.79
39.74,2.89,-2.87,2.89,-2.87,2.82,2.77,3.36,5.71,5.71,5.76
40.14,2.92,-2.82,2.94,-2.80,2.77,2.73,3.27,5.69,5.71,5.74
40.54,3.00,-2.71,3.00,-2.71,2.72,2.69,3.18,5.72,5.72,5.71
40.94,3.08,-2.61,3.05,-2.63,2.67,2.65,3.09,5.75,5.72,5.68
41.35,3.09,-2.58,3.09,-2.58,2.62,2.61,3.00,5.71,5.71,5.67
41.76,3.09,-2.55,3.10,-2.55,2.58,2.57,2.91,5.67,5.68,5.64
42.18,3.09,-2.54,3.09,-2.53,2.54,2.53,2.82,5.63,5.62,5.63
42.60,3.09,-2.51,3.09,-2.51,2.50,2.49,2.74,5.58,5.58,5.60
43.03,3.09,-2.48,3.09,-2.48,2.45,2.45,2.66,5.54,5.55,5.57
43.46,3.11,-2.45,3.10,-2.45,2.41,2.41,2.58,5.52,5.51,5.55
43.90,3.13,-2.40,3.14,-2.39,2.36,2.37,2.50,5.49,5.50,5.53
44.33,3.18,-2.32,3.19,-2.31,2.31,2.33,2.42,5.49,5.50,5.50
44.78,3.25,-2.22,3.24,-2.24,2.26,2.28,2.35,5.51,5.49,5.47
45.23,3.29,-2.16,3.28,-2.17,2.20,2.24,2.27,5.49,5.48,5.45
45.68,3.29,-2.13,3.29,-2.12,2.15,2.20,2.20,5.44,5.45,5.41
46.13,3.29,-2.09,3.29,-2.09,2.10,2.16,2.13,5.39,5.40,5.38
46.60,3.29,-2.06,3.29,-2.06,2.05,2.11,2.07,5.34,5.34,5.35
47.06,3.29,-2.03,3.28,-2.03,2.00,2.07,2.00,5.29,5.29,5.32
47.53,3.29,-2.00,3.29,-1.99,1.96,2.02,1.94,5.24,5.24,5.29
48.01,3.29,-1.94,3.31,-1.93,1.91,1.98,1.87,5.20,5.22,5.23
48.49,3.34,-1.86,3.34,-1.86,1.86,1.93,1.81,5.20,5.20,5.20
48.97,3.39,-1.77,3.37,-1.78,1.81,1.89,1.76,5.20,5.18,5.15
49.46,3.39,-1.72,3.39,-1.72,1.75,1.84,1.70,5.14,5.14,5.11
49.96,3.39,-1.67,3.39,-1.68,1.69,1.79,1.64,5.08,5.08,5.06
50.46,3.39,-1.65,3.39,-1.65,1.63,1.74,1.59,5.02,5.02,5.04
50.96,3.39,-1.62,3.40,-1.60,1.58,1.69,1.54,4.97,4.98,5.01
51.47,3.43,-1.54,3.43,-1.54,1.53,1.64,1.48,4.96,4.96,4.97
51.99,3.48,-1.45,3.46,-1.47,1.48,1.59,1.43,4.96,4.94,4.93
52.51,3.49,-1.41,3.49,-1.41,1.43,1.54,1.38,4.91,4.91,4.90
53.03,3.49,-1.37,3.49,-1.37,1.37,1.49,1.34,4.85,4.85,4.86
53.56,3.49,-1.33,3.49,-1.33,1.30,1.44,1.29,4.79,4.80,4.82
54.10,3.50,-1.27,3.51,-1.26,1.24,1.38,1.24,4.74,4.76,4.77
54.64,3.55,-1.19,3.54,-1.19,1.19,1.33,1.20,4.74,4.73,4.74
55.18,3.59,-1.10,3.57,-1.12,1.13,1.27,1.15,4.72,4.71,4.69
55.74,3.59,-1.06,3.59,-1.07,1.09,1.22,1.11,4.67,4.68,4.65
56.29,3.59,-1.04,3.59,-1.03,1.04,1.16,1.07,4.63,4.63,4.62
56.86,3.59,-1.01,3.59,-1.00,1.00,1.10,1.02,4.59,4.59,4.60
57.42,3.59,-0.95,3.59,-0.96,0.96,1.05,0.98,4.55,4.55,4.54
58.00,3.59,-0.93,3.59,-0.93,0.93,0.99,0.94,4.52,4.52,4.52
58.58,3.59,-0.91,3.59,-0.90,0.91,0.93,0.90,4.50,4.50,4.50
59.16,3.59,-0.88,3.59,-0.88,0.88,0.87,0.86,4.47,4.47,4.47
59.76,3.59,-0.85,3.59,-0.84,0.84,0.81,0.82,4.43,4.43,4.44
60.35,3.59,-0.80,3.59,-0.81,0.80,0.75,0.78,4.38,4.38,4.38
60.96,3.59,-0.76,3.58,-0.76,0.74,0.69,0.74,4.33,4.33,4.35
61.57,3.59,-0.71,3.60,-0.70,0.68,0.63,0.70,4.27,4.28,4.30
62.18,3.61,-0.64,3.62,-0.62,0.62,0.57,0.66,4.22,4.24,4.25
62.80,3.67,-0.52,3.65,-0.54,0.54,0.52,0.62,4.21,4.19,4.19
63.43,3.69,-0.46,3.68,-0.46,0.47,0.46,0.58,4.16,4.15,4.15
64.07,3.70,-0.40,3.72,-0.38,0.39,0.40,0.54,4.09,4.11,4.10
64.71,3.76,-0.31,3.75,-0.31,0.32,0.34,0.50,4.08,4.07,4.06
65.35,3.79,-0.23,3.78,-0.24,0.26,0.29,0.45,4.04,4.03,4.02
66.01,3.79,-0.19,3.79,-0.18,0.20,0.24,0.41,3.98,3.99,3.98
66.67,3.79,-0.15,3.79,-0.14,0.14,0.18,0.37,3.93,3.93,3.94
67.33,3.79,-0.09,3.79,-0.10,0.09,0.13,0.33,3.88,3.88,3.88
68.01,3.79,-0.05,3.79,-0.05,0.05,0.08,0.29,3.84,3.84,3.84
68.69,3.79,-0.01,3.79,-0.01,0.00,0.03,0.25,3.79,3.79,3.80
69.37,3.79,0.03,3.79,0.04,-0.04,-0.02,0.20,3.75,3.75,3.76
70.07,3.79,0.09,3.79,0.08,-0.09,-0.06,0.16,3.70,3.70,3.70
70.77,3.79,0.13,3.79,0.13,-0.13,-0.11,0.12,3.66,3.66,3.66
71.48,3.79,0.17,3.79,0.18,-0.18,-0.15,0.08,3.61,3.61,3.61
72.19,3.79,0.22,3.79,0.22,-0.22,-0.19,0.03,3.56,3.56,3.57
72.91,3.79,0.28,3.79,0.27,-0.27,-0.23,-0.01,3.52,3.52,3.51
73.64,3.79,0.32,3.79,0.32,-0.31,-0.27,-0.06,3.47,3.47,3.47
74.38,3.79,0.36,3.79,0.36,-0.36,-0.31,-0.10,3.43,3.43,3.43
75.12,3.79,0.40,3.79,0.40,-0.40,-0.35,-0.15,3.39,3.39,3.39
75.87,3.79,0.43,3.79,0.43,-0.44,-0.39,-0.19,3.35,3.35,3.36
76.63,3.79,0.48,3.79,0.47,-0.47,-0.43,-0.24,3.31,3.31,3.31
77.40,3.79,0.51,3.79,0.51,-0.51,-0.47,-0.29,3.28,3.28,3.28
78.17,3.79,0.55,3.79,0.55,-0.54,-0.51,-0.33,3.25,3.25,3.24
78.95,3.79,0.57,3.79,0.58,-0.57,-0.54,-0.38,3.21,3.21,3.22
79.74,3.79,0.61,3.79,0.61,-0.61,-0.58,-0.43,3.18,3.18,3.18
80.54,3.79,0.64,3.79,0.64,-0.64,-0.62,-0.48,3.15,3.15,3.15
81.35,3.79,0.68,3.79,0.67,-0.68,-0.66,-0.53,3.11,3.11,3.11
82.16,3.79,0.70,3.79,0.71,-0.71,-0.70,-0.58,3.08,3.08,3.09
82.98,3.79,0.75,3.79,0.74,-0.75,-0.74,-0.63,3.04,3.04,3.04
83.81,3.79,0.78,3.79,0.78,-0.78,-0.78,-0.68,3.01,3.01,3.00
84.65,3.79,0.82,3.79,0.82,-0.82,-0.83,-0.73,2.97,2.97,2.97
85.50,3.79,0.86,3.79,0.86,-0.85,-0.87,-0.78,2.94,2.94,2.93
86.35,3.79,0.90,3.79,0.90,-0.89,-0.91,-0.84,2.89,2.89,2.89
87.22,3.79,0.94,3.79,0.94,-0.94,-0.96,-0.89,2.85,2.85,2.85
88.09,3.79,0.98,3.78,0.97,-0.99,-1.00,-0.94,2.80,2.79,2.81
88.97,3.79,1.02,3.79,1.02,-1.05,-1.04,-1.00,2.74,2.74,2.77
89.86,3.79,1.06,3.82,1.09,-1.11,-1.09,-1.06,2.68,2.71,2.73
90.76,3.87,1.18,3.85,1.17,-1.17,-1.14,-1.11,2.70,2.68,2.68
91.66,3.90,1.27,3.88,1.25,-1.23,-1.18,-1.17,2.67,2.66,2.63
92.58,3.90,1.31,3.90,1.32,-1.29,-1.23,-1.23,2.61,2.62,2.59
93.51,3.90,1.35,3.90,1.36,-1.35,-1.28,-1.29,2.55,2.55,2.54
94.44,3.90,1.40,3.90,1.40,-1.41,-1.32,-1.35,2.49,2.49,2.50
95.39,3.90,1.45,3.90,1.45,-1.46,-1.37,-1.41,2.44,2.44,2.45
96.34,3.89,1.50,3.89,1.50,-1.51,-1.42,-1.47,2.38,2.38,2.39
97.30,3.89,1.55,3.89,1.55,-1.55,-1.47,-1.53,2.34,2.33,2.34
98.28,3.88,1.60,3.88,1.60,-1.60,-1.51,-1.60,2.28,2.28,2.28
99.26,3.86,1.64,3.86,1.64,-1.64,-1.56,-1.66,2.22,2.22,2.21
100.25,3.85,1.69,3.85,1.68,-1.68,-1.61,-1.72,2.17,2.16,2.16
101.25,3.83,1.72,3.83,1.72,-1.73,-1.66,-1.79,2.10,2.10,2.11
102.27,3.82,1.76,3.82,1.76,-1.77,-1.70,-1.85,2.05,2.05,2.06
103.29,3.80,1.80,3.80,1.79,-1.80,-1.75,-1.92,2.00,2.00,2.00
104.32,3.78,1.82,3.78,1.83,-1.83,-1.80,-1.98,1.95,1.95,1.95
105.37,3.76,1.87,3.76,1.87,-1.86,-1.84,-2.04,1.90,1.91,1.89
106.42,3.74,1.90,3.74,1.90,-1.88,-1.89,-2.10,1.86,1.86,1.84
107.48,3.71,1.93,3.69,1.91,-1.89,-1.93,-2.17,1.81,1.80,1.78
108.56,3.64,1.91,3.64,1.91,-1.91,-1.98,-2.23,1.73,1.73,1.73
109.64,3.57,1.90,3.59,1.91,-1.93,-2.02,-2.29,1.64,1.66,1.67
110.74,3.55,1.93,3.55,1.92,-1.95,-2.06,-2.35,1.60,1.60,1.62
111.85,3.53,1.96,3.53,1.95,-1.97,-2.10,-2.40,1.56,1.55,1.57
112.97,3.52,1.99,3.52,1.99,-2.00,-2.14,-2.46,1.52,1.51,1.53
114.10,3.51,2.03,3.51,2.04,-2.04,-2.18,-2.51,1.47,1.47,1.48
115.24,3.51,2.09,3.51,2.09,-2.08,-2.22,-2.56,1.42,1.42,1.42
116.39,3.51,2.14,3.51,2.14,-2.13,-2.26,-2.61,1.38,1.38,1.37
117.55,3.52,2.19,3.51,2.19,-2.18,-2.29,-2.66,1.34,1.33,1.33
118.73,3.52,2.24,3.52,2.24,-2.23,-2.33,-2.70,1.29,1.29,1.28
119.92,3.53,2.29,3.53,2.28,-2.28,-2.36,-2.74,1.25,1.25,1.24
121.12,3.54,2.32,3.53,2.32,-2.32,-2.40,-2.78,1.22,1.21,1.22
122.33,3.54,2.36,3.54,2.36,-2.37,-2.43,-2.82,1.17,1.17,1.18
123.55,3.55,2.41,3.55,2.40,-2.42,-2.46,-2.85,1.13,1.13,1.14
124.79,3.56,2.45,3.56,2.45,-2.46,-2.49,-2.88,1.10,1.10,1.11
126.03,3.57,2.50,3.57,2.49,-2.50,-2.52,-2.90,1.07,1.07,1.07
127.29,3.57,2.54,3.57,2.54,-2.53,-2.54,-2.92,1.03,1.04,1.03
128.57,3.58,2.59,3.58,2.59,-2.57,-2.57,-2.94,1.01,1.02,0.99
129.85,3.59,2.62,3.58,2.62,-2.60,-2.60,-2.96,0.99,0.98,0.96
131.15,3.58,2.65,3.56,2.64,-2.63,-2.62,-2.97,0.95,0.93,0.93
132.46,3.52,2.63,3.53,2.65,-2.66,-2.65,-2.98,0.86,0.88,0.89
133.79,3.50,2.66,3.51,2.66,-2.68,-2.68,-2.99,0.82,0.82,0.84
135.12,3.50,2.69,3.50,2.69,-2.71,-2.70,-2.99,0.79,0.79,0.81
136.48,3.51,2.74,3.50,2.74,-2.74,-2.72,-3.00,0.77,0.76,0.77
137.84,3.51,2.77,3.51,2.78,-2.77,-2.75,-3.00,0.74,0.74,0.74
139.22,3.51,2.83,3.51,2.82,-2.81,-2.78,-3.00,0.70,0.70,0.68
140.61,3.51,2.85,3.51,2.85,-2.85,-2.80,-3.00,0.66,0.66,0.66
142.02,3.51,2.89,3.51,2.89,-2.89,-2.83,-3.00,0.62,0.62,0.62
143.44,3.51,2.93,3.51,2.93,-2.93,-2.86,-2.99,0.57,0.57,0.58
144.87,3.51,2.96,3.51,2.97,-2.97,-2.88,-2.99,0.54,0.54,0.55
146.32,3.51,3.00,3.51,3.00,-3.01,-2.91,-2.99,0.50,0.50,0.51
147.78,3.51,3.04,3.51,3.04,-3.04,-2.94,-2.98,0.47,0.47,0.47
149.26,3.51,3.08,3.51,3.09,-3.07,-2.97,-2.98,0.44,0.44,0.43
150.75,3.51,3.13,3.50,3.11,-3.09,-3.01,-2.98,0.41,0.41,0.38
152.26,3.49,3.13,3.47,3.12,-3.11,-3.04,-2.98,0.38,0.36,0.36
153.78,3.43,3.12,3.45,3.13,-3.13,-3.07,-2.98,0.30,0.32,0.31
155.32,3.41,3.12,3.42,3.14,-3.14,-3.11,-2.98,0.27,0.28,0.29
156.88,3.41,3.17,3.39,3.15,-3.15,-3.15,-2.98,0.26,0.24,0.24
158.44,3.37,3.17,3.36,3.16,-3.17,-3.18,-2.98,0.20,0.19,0.20
160.03,3.31,3.15,3.33,3.17,-3.19,-3.22,-2.99,0.12,0.14,0.16
161.63,3.31,3.19,3.31,3.20,-3.21,-3.26,-3.00,0.10,0.10,0.12
163.24,3.31,3.24,3.30,3.23,-3.24,-3.29,-3.00,0.07,0.06,0.06
164.88,3.31,3.28,3.31,3.28,-3.28,-3.33,-3.02,0.03,0.03,0.02
166.53,3.30,3.32,3.30,3.32,-3.31,-3.37,-3.03,-0.02,-0.01,-0.02
168.19,3.30,3.36,3.30,3.36,-3.36,-3.41,-3.04,-0.06,-0.06,-0.06
169.87,3.29,3.40,3.29,3.40,-3.40,-3.44,-3.06,-0.11,-0.11,-0.11
171.57,3.28,3.44,3.28,3.43,-3.44,-3.48,-3.08,-0.16,-0.16,-0.16
173.29,3.28,3.47,3.27,3.47,-3.48,-3.51,-3.10,-0.20,-0.20,-0.19
175.02,3.27,3.51,3.27,3.51,-3.51,-3.55,-3.13,-0.24,-0.24,-0.24
176.77,3.27,3.55,3.27,3.55,-3.54,-3.58,-3.16,-0.27,-0.27,-0.28
178.54,3.27,3.59,3.26,3.58,-3.56,-3.61,-3.19,-0.29,-0.30,-0.32
180.32,3.24,3.60,3.24,3.60,-3.58,-3.64,-3.22,-0.34,-0.34,-0.36
182.13,3.20,3.60,3.21,3.61,-3.60,-3.67,-3.26,-0.40,-0.39,-0.40
183.95,3.18,3.61,3.17,3.61,-3.61,-3.70,-3.29,-0.44,-0.45,-0.44
185.79,3.14,3.62,3.14,3.62,-3.63,-3.73,-3.33,-0.49,-0.49,-0.48
187.65,3.12,3.63,3.13,3.64,-3.66,-3.75,-3.38,-0.54,-0.53,-0.51
189.52,3.13,3.68,3.12,3.67,-3.68,-3.77,-3.42,-0.55,-0.56,-0.55
191.42,3.14,3.71,3.14,3.71,-3.72,-3.80,-3.47,-0.58,-0.58,-0.57
193.33,3.15,3.75,3.15,3.76,-3.76,-3.82,-3.52,-0.61,-0.61,-0.61
195.27,3.17,3.81,3.17,3.81,-3.81,-3.84,-3.57,-0.64,-0.65,-0.64
197.22,3.18,3.86,3.18,3.86,-3.86,-3.86,-3.62,-0.68,-0.68,-0.68
199.19,3.19,3.90,3.19,3.90,-3.90,-3.87,-3.67,-0.71,-0.71,-0.71
201.18,3.20,3.94,3.20,3.95,-3.93,-3.89,-3.73,-0.73,-0.73,-0.75
203.19,3.21,3.98,3.21,3.98,-3.95,-3.90,-3.79,-0.74,-0.74,-0.77
205.23,3.21,4.01,3.20,4.00,-3.96,-3.92,-3.84,-0.75,-0.76,-0.80
207.28,3.16,3.98,3.15,3.98,-3.96,-3.93,-3.90,-0.80,-0.81,-0.82
209.35,3.10,3.97,3.09,3.95,-3.96,-3.94,-3.96,-0.87,-0.87,-0.87
211.44,3.02,3.91,3.04,3.93,-3.97,-3.95,-4.02,-0.95,-0.93,-0.89
213.56,3.00,3.92,3.00,3.92,-3.97,-3.95,-4.08,-0.97,-0.97,-0.92
215.69,3.00,3.95,2.99,3.94,-3.97,-3.96,-4.13,-0.97,-0.98,-0.95
217.85,2.99,3.96,2.99,3.97,-3.97,-3.96,-4.19,-0.98,-0.98,-0.97
220.03,2.99,4.00,2.99,4.00,-3.97,-3.97,-4.25,-0.98,-0.98,-1.01
222.23,2.99,4.02,2.98,4.02,-3.97,-3.97,-4.30,-0.98,-0.99,-1.03
224.45,2.97,4.02,2.95,4.01,-3.97,-3.97,-4.35,-1.00,-1.02,-1.06
226.70,2.90,3.98,2.90,3.98,-3.97,-3.98,-4.39,-1.07,-1.07,-1.08
228.96,2.84,3.93,2.85,3.94,-3.97,-3.98,-4.44,-1.13,-1.12,-1.09
231.25,2.81,3.92,2.81,3.92,-3.96,-3.97,-4.48,-1.15,-1.15,-1.11
233.57,2.81,3.93,2.81,3.93,-3.96,-3.97,-4.51,-1.15,-1.15,-1.12
235.90,2.82,3.96,2.82,3.95,-3.96,-3.97,-4.54,-1.14,-1.14,-1.14
238.26,2.83,3.98,2.83,3.97,-3.97,-3.97,-4.57,-1.14,-1.14,-1.15
240.64,2.85,3.99,2.85,3.99,-3.97,-3.96,-4.59,-1.13,-1.12,-1.14
243.05,2.86,4.00,2.86,4.01,-3.99,-3.96,-4.61,-1.13,-1.12,-1.15
245.48,2.88,4.02,2.86,4.01,-4.00,-3.95,-4.62,-1.12,-1.14,-1.14
247.93,2.85,4.00,2.85,4.00,-4.00,-3.94,-4.62,-1.15,-1.15,-1.15
250.41,2.83,3.97,2.85,3.99,-4.00,-3.93,-4.62,-1.17,-1.15,-1.14
252.92,2.85,3.99,2.84,3.99,-3.99,-3.93,-4.61,-1.14,-1.15,-1.14
255.45,2.85,4.00,2.83,3.98,-3.98,-3.92,-4.59,-1.13,-1.15,-1.15
258.00,2.80,3.96,2.81,3.97,-3.96,-3.91,-4.58,-1.17,-1.15,-1.16
260.58,2.77,3.94,2.79,3.95,-3.95,-3.90,-4.55,-1.18,-1.16,-1.17
263.19,2.77,3.94,2.75,3.93,-3.93,-3.88,-4.52,-1.16,-1.18,-1.18
265.82,2.74,3.92,2.72,3.91,-3.91,-3.87,-4.48,-1.17,-1.19,-1.18
268.48,2.68,3.88,2.70,3.90,-3.89,-3.86,-4.44,-1.22,-1.20,-1.20
271.16,2.66,3.87,2.67,3.87,-3.88,-3.85,-4.39,-1.22,-1.21,-1.21
273.87,2.66,3.88,2.63,3.86,-3.86,-3.83,-4.34,-1.20,-1.23,-1.22
276.61,2.60,3.83,2.61,3.84,-3.84,-3.82,-4.29,-1.24,-1.24,-1.23
279.38,2.57,3.82,2.58,3.82,-3.83,-3.80,-4.23,-1.26,-1.25,-1.25
282.17,2.56,3.80,2.57,3.82,-3.82,-3.79,-4.17,-1.26,-1.25,-1.24
284.99,2.57,3.82,2.56,3.81,-3.81,-3.77,-4.11,-1.24,-1.24,-1.25
287.84,2.58,3.82,2.55,3.80,-3.80,-3.75,-4.04,-1.22,-1.25,-1.24
290.72,2.50,3.76,2.53,3.78,-3.79,-3.74,-3.97,-1.29,-1.27,-1.26
293.63,2.50,3.76,2.51,3.77,-3.78,-3.72,-3.91,-1.28,-1.27,-1.26
296.57,2.51,3.77,2.51,3.76,-3.76,-3.70,-3.84,-1.25,-1.25,-1.26
299.53,2.52,3.77,2.51,3.77,-3.74,-3.68,-3.77,-1.23,-1.23,-1.25
302.53,2.51,3.76,2.49,3.75,-3.73,-3.66,-3.70,-1.22,-1.23,-1.26
305.55,2.45,3.71,2.45,3.71,-3.71,-3.64,-3.63,-1.26,-1.26,-1.26
308.61,2.40,3.65,2.40,3.66,-3.69,-3.62,-3.56,-1.29,-1.28,-1.25
311.69,2.36,3.62,2.37,3.63,-3.66,-3.60,-3.49,-1.30,-1.29,-1.26
314.81,2.36,3.62,2.37,3.63,-3.62,-3.58,-3.43,-1.26,-1.25,-1.26
317.96,2.37,3.63,2.36,3.62,-3.59,-3.55,-3.36,-1.22,-1.23,-1.26
321.14,2.36,3.63,2.32,3.59,-3.55,-3.53,-3.30,-1.20,-1.23,-1.27
324.35,2.25,3.52,2.26,3.52,-3.53,-3.51,-3.24,-1.28,-1.27,-1.27
327.59,2.17,3.43,2.20,3.46,-3.50,-3.48,-3.18,-1.33,-1.31,-1.26
330.87,2.16,3.42,2.16,3.42,-3.48,-3.46,-3.12,-1.32,-1.32,-1.27
334.18,2.16,3.44,2.15,3.42,-3.44,-3.43,-3.06,-1.28,-1.29,-1.28
337.52,2.16,3.43,2.17,3.44,-3.40,-3.41,-3.01,-1.24,-1.23,-1.27
340.90,2.16,3.42,2.15,3.42,-3.37,-3.38,-2.95,-1.21,-1.21,-1.26
344.30,2.14,3.39,2.10,3.36,-3.33,-3.35,-2.90,-1.20,-1.23,-1.26
347.75,2.02,3.28,2.04,3.30,-3.31,-3.33,-2.85,-1.29,-1.27,-1.26
351.23,1.96,3.22,1.98,3.24,-3.28,-3.30,-2.81,-1.32,-1.29,-1.26
354.74,1.96,3.20,1.96,3.21,-3.24,-3.27,-2.76,-1.28,-1.28,-1.24
358.28,1.96,3.20,1.95,3.19,-3.20,-3.24,-2.72,-1.24,-1.25,-1.24
361.87,1.96,3.20,1.94,3.18,-3.16,-3.21,-2.68,-1.20,-1.22,-1.24
365.49,1.90,3.13,1.91,3.14,-3.12,-3.18,-2.65,-1.22,-1.20,-1.23
369.14,1.88,3.10,1.88,3.10,-3.09,-3.15,-2.61,-1.21,-1.20,-1.22
372.83,1.85,3.06,1.84,3.06,-3.06,-3.11,-2.58,-1.21,-1.22,-1.21
376.56,1.81,3.03,1.80,3.01,-3.03,-3.08,-2.54,-1.22,-1.23,-1.22
380.33,1.74,2.95,1.75,2.97,-2.99,-3.05,-2.52,-1.26,-1.24,-1.22
384.13,1.71,2.93,1.73,2.94,-2.96,-3.01,-2.49,-1.25,-1.23,-1.22
387.97,1.72,2.93,1.71,2.92,-2.92,-2.98,-2.46,-1.20,-1.21,-1.21
391.85,1.72,2.93,1.70,2.92,-2.89,-2.94,-2.44,-1.17,-1.19,-1.21
395.77,1.67,2.89,1.67,2.89,-2.86,-2.91,-2.42,-1.20,-1.20,-1.22
399.73,1.61,2.84,1.61,2.83,-2.84,-2.87,-2.40,-1.23,-1.23,-1.23
403.72,1.54,2.76,1.55,2.79,-2.81,-2.83,-2.38,-1.27,-1.25,-1.22
407.76,1.51,2.74,1.52,2.76,-2.77,-2.80,-2.36,-1.27,-1.25,-1.24
411.84,1.51,2.76,1.50,2.74,-2.73,-2.76,-2.34,-1.23,-1.24,-1.25
415.96,1.48,2.73,1.46,2.72,-2.69,-2.72,-2.33,-1.21,-1.23,-1.25
420.12,1.42,2.68,1.42,2.67,-2.65,-2.68,-2.31,-1.23,-1.23,-1.26
424.32,1.35,2.60,1.37,2.62,-2.61,-2.64,-2.30,-1.26,-1.24,-1.25
428.56,1.33,2.56,1.33,2.56,-2.58,-2.60,-2.28,-1.25,-1.25,-1.23
432.85,1.32,2.53,1.30,2.52,-2.55,-2.56,-2.27,-1.23,-1.25,-1.21
437.18,1.28,2.47,1.29,2.49,-2.52,-2.52,-2.26,-1.24,-1.23,-1.19
441.55,1.30,2.46,1.31,2.47,-2.49,-2.48,-2.24,-1.19,-1.18,-1.16
445.96,1.34,2.46,1.35,2.47,-2.45,-2.44,-2.23,-1.12,-1.11,-1.13
450.42,1.40,2.48,1.38,2.46,-2.42,-2.40,-2.21,-1.02,-1.04,-1.08
454.93,1.42,2.45,1.39,2.42,-2.38,-2.36,-2.20,-0.96,-0.99,-1.03
459.48,1.36,2.34,1.38,2.36,-2.34,-2.31,-2.18,-0.98,-0.96,-0.98
464.07,1.37,2.28,1.37,2.29,-2.29,-2.27,-2.17,-0.92,-0.92,-0.91
468.71,1.37,2.22,1.37,2.22,-2.25,-2.23,-2.15,-0.88,-0.88,-0.85
473.40,1.39,2.19,1.37,2.17,-2.20,-2.18,-2.13,-0.81,-0.82,-0.80
478.13,1.37,2.11,1.38,2.13,-2.15,-2.14,-2.11,-0.78,-0.76,-0.74
482.91,1.39,2.08,1.40,2.09,-2.10,-2.10,-2.09,-0.71,-0.70,-0.69
487.74,1.43,2.07,1.40,2.05,-2.05,-2.05,-2.06,-0.62,-0.65,-0.64
492.62,1.41,2.01,1.42,2.03,-2.00,-2.01,-2.04,-0.59,-0.58,-0.60
497.55,1.40,1.97,1.42,1.99,-1.96,-1.96,-2.01,-0.56,-0.53,-0.57
502.52,1.44,1.98,1.39,1.93,-1.92,-1.92,-1.98,-0.48,-0.53,-0.54
507.55,1.34,1.85,1.34,1.86,-1.88,-1.87,-1.94,-0.54,-0.54,-0.52
512.62,1.25,1.75,1.29,1.80,-1.84,-1.83,-1.91,-0.59,-0.55,-0.51
517.75,1.26,1.75,1.26,1.76,-1.80,-1.78,-1.87,-0.54,-0.54,-0.50
522.93,1.26,1.77,1.25,1.75,-1.75,-1.73,-1.84,-0.49,-0.50,-0.51
528.16,1.24,1.76,1.22,1.74,-1.70,-1.69,-1.80,-0.46,-0.47,-0.52
