frequency,raw,error,smoothed,error_smoothed,equalization,parametric_eq,fixed_band_eq,equalized_raw,equalized_smoothed,target
20.00,0.45,-0.02,0.45,-0.02,0.02,-1.83,-0.79,0.47,0.47,0.47
20.20,0.50,-0.01,0.49,-0.01,0.01,-1.83,-0.82,0.51,0.50,0.51
20.40,0.54,0.00,0.54,0.00,-0.00,-1.84,-0.84,0.53,0.54,0.54
20.61,0.59,0.02,0.59,0.02,-0.02,-1.84,-0.86,0.57,0.57,0.56
20.81,0.64,0.04,0.64,0.04,-0.04,-1.85,-0.89,0.59,0.59,0.60
21.02,0.69,0.06,0.69,0.06,-0.07,-1.85,-0.91,0.62,0.62,0.62
21.23,0.74,0.09,0.74,0.10,-0.10,-1.86,-0.94,0.64,0.64,0.64
21.44,0.79,0.13,0.79,0.14,-0.14,-1.87,-0.96,0.65,0.65,0.65
21.66,0.85,0.18,0.84,0.18,-0.18,-1.87,-0.99,0.67,0.67,0.66
21.87,0.90,0.23,0.90,0.22,-0.22,-1.88,-1.02,0.67,0.67,0.67
22.09,0.95,0.27,0.95,0.27,-0.27,-1.88,-1.05,0.67,0.68,0.68
22.31,1.01,0.32,1.01,0.32,-0.33,-1.89,-1.08,0.68,0.68,0.69
22.54,1.07,0.37,1.07,0.38,-0.38,-1.90,-1.11,0.69,0.69,0.69
22.76,1.13,0.44,1.13,0.44,-0.43,-1.90,-1.14,0.70,0.70,0.69
22.99,1.19,0.50,1.18,0.49,-0.47,-1.91,-1.17,0.72,0.71,0.69
23.22,1.23,0.53,1.23,0.53,-0.52,-1.92,-1.20,0.71,0.71,0.70
23.45,1.27,0.57,1.27,0.57,-0.57,-1.92,-1.24,0.70,0.70,0.70
23.69,1.31,0.60,1.31,0.60,-0.61,-1.93,-1.27,0.69,0.70,0.71
23.92,1.36,0.65,1.36,0.64,-0.66,-1.94,-1.30,0.70,0.70,0.71
24.16,1.41,0.69,1.41,0.69,-0.70,-1.95,-1.34,0.70,0.70,0.72
24.40,1.46,0.74,1.46,0.75,-0.75,-1.95,-1.37,0.71,0.71,0.72
24.65,1.51,0.80,1.51,0.80,-0.79,-1.96,-1.41,0.72,0.72,0.71
24.89,1.57,0.86,1.56,0.85,-0.83,-1.97,-1.45,0.74,0.73,0.71
25.14,1.60,0.89,1.60,0.90,-0.87,-1.98,-1.48,0.72,0.73,0.71
25.39,1.63,0.93,1.62,0.92,-0.92,-1.99,-1.52,0.71,0.70,0.70
25.65,1.65,0.95,1.64,0.95,-0.98,-1.99,-1.56,0.67,0.67,0.69
25.91,1.67,0.98,1.68,0.99,-1.03,-2.00,-1.60,0.63,0.65,0.68
26.16,1.73,1.06,1.73,1.06,-1.09,-2.01,-1.63,0.64,0.64,0.67
26.43,1.81,1.13,1.81,1.14,-1.15,-2.02,-1.67,0.66,0.67,0.67
26.69,1.90,1.24,1.89,1.23,-1.20,-2.03,-1.71,0.70,0.69,0.66
26.96,1.98,1.32,1.96,1.30,-1.26,-2.04,-1.75,0.72,0.70,0.66
27.23,2.00,1.35,2.00,1.35,-1.31,-2.05,-1.78,0.68,0.69,0.65
27.50,2.02,1.37,2.02,1.37,-1.37,-2.06,-1.82,0.65,0.65,0.65
27.77,2.04,1.41,2.04,1.40,-1.43,-2.07,-1.86,0.61,0.61,0.63
28.05,2.06,1.43,2.07,1.45,-1.48,-2.08,-1.89,0.58,0.59,0.63
28.33,2.13,1.51,2.12,1.51,-1.53,-2.10,-1.92,0.59,0.59,0.62
28.62,2.19,1.58,2.19,1.58,-1.59,-2.11,-1.96,0.60,0.60,0.61
28.90,2.26,1.65,2.26,1.65,-1.65,-2.12,-1.99,0.61,0.61,0.60
29.19,2.32,1.72,2.32,1.72,-1.71,-2.13,-2.02,0.61,0.61,0.59
29.48,2.38,1.78,2.38,1.79,-1.76,-2.14,-2.04,0.61,0.62,0.60
29.78,2.44,1.85,2.43,1.84,-1.82,-2.16,-2.07,0.62,0.62,0.59
30.08,2.48,1.90,2.47,1.89,-1.87,-2.17,-2.10,0.61,0.60,0.58
30.38,2.49,1.92,2.49,1.91,-1.91,-2.18,-2.12,0.57,0.57,0.57
30.68,2.50,1.93,2.50,1.93,-1.96,-2.20,-2.14,0.54,0.54,0.57
30.99,2.51,1.95,2.52,1.96,-2.00,-2.21,-2.16,0.51,0.52,0.56
31.30,2.58,2.02,2.58,2.02,-2.04,-2.23,-2.18,0.54,0.54,0.55
31.61,2.64,2.08,2.64,2.09,-2.08,-2.24,-2.19,0.56,0.56,0.55
31.93,2.71,2.16,2.69,2.16,-2.12,-2.26,-2.20,0.59,0.58,0.54
32.24,2.73,2.21,2.72,2.19,-2.16,-2.28,-2.22,0.56,0.55,0.52
32.57,2.73,2.21,2.73,2.21,-2.21,-2.29,-2.23,0.52,0.52,0.52
32.89,2.73,2.20,2.74,2.22,-2.26,-2.31,-2.23,0.47,0.49,0.53
33.22,2.78,2.26,2.79,2.27,-2.30,-2.33,-2.24,0.48,0.49,0.52
33.55,2.86,2.34,2.85,2.34,-2.34,-2.34,-2.24,0.52,0.52,0.51
33.89,2.93,2.43,2.92,2.41,-2.38,-2.36,-2.25,0.55,0.54,0.50
34.23,2.96,2.46,2.95,2.45,-2.42,-2.38,-2.25,0.53,0.52,0.50
34.57,2.96,2.47,2.96,2.47,-2.48,-2.40,-2.25,0.48,0.48,0.49
34.92,2.96,2.47,2.98,2.49,-2.53,-2.42,-2.25,0.43,0.45,0.49
35.27,3.02,2.53,3.03,2.55,-2.57,-2.44,-2.25,0.44,0.45,0.48
35.62,3.10,2.63,3.09,2.62,-2.61,-2.47,-2.25,0.49,0.48,0.47
35.97,3.17,2.70,3.15,2.68,-2.65,-2.49,-2.25,0.52,0.50,0.47
36.33,3.18,2.71,3.18,2.72,-2.68,-2.51,-2.25,0.50,0.50,0.47
36.70,3.19,2.73,3.19,2.73,-2.72,-2.53,-2.25,0.47,0.47,0.45
37.06,3.19,2.75,3.19,2.75,-2.76,-2.56,-2.25,0.43,0.43,0.44
37.43,3.21,2.77,3.20,2.77,-2.81,-2.58,-2.25,0.40,0.40,0.44
37.81,3.23,2.80,3.23,2.80,-2.85,-2.61,-2.25,0.38,0.38,0.43
38.19,3.27,2.85,3.28,2.86,-2.88,-2.64,-2.25,0.38,0.40,0.41
38.57,3.34,2.93,3.34,2.93,-2.92,-2.66,-2.26,0.42,0.42,0.41
38.95,3.41,3.01,3.39,2.99,-2.95,-2.69,-2.26,0.46,0.44,0.40
39.34,3.42,3.03,3.42,3.03,-2.98,-2.72,-2.26,0.43,0.43,0.38
39.74,3.42,3.05,3.42,3.05,-3.02,-2.75,-2.27,0.40,0.40,0.37
40.14,3.42,3.04,3.41,3.04,-3.06,-2.78,-2.27,0.36,0.35,0.38
40.54,3.42,3.05,3.41,3.05,-3.10,-2.82,-2.28,0.32,0.31,0.36
40.94,3.42,3.06,3.44,3.09,-3.13,-2.85,-2.29,0.28,0.31,0.36
41.35,3.50,3.15,3.50,3.16,-3.17,-2.88,-2.30,0.33,0.34,0.35
41.76,3.59,3.25,3.57,3.23,-3.20,-2.92,-2.31,0.39,0.37,0.34
42.18,3.64,3.31,3.62,3.30,-3.24,-2.95,-2.33,0.40,0.38,0.33
42.60,3.64,3.32,3.64,3.33,-3.29,-2.99,-2.34,0.34,0.35,0.31
43.03,3.64,3.34,3.63,3.34,-3.36,-3.03,-2.36,0.28,0.28,0.30
43.46,3.64,3.36,3.63,3.36,-3.42,-3.07,-2.38,0.22,0.21,0.27
43.90,3.64,3.40,3.66,3.42,-3.48,-3.11,-2.40,0.16,0.19,0.24
44.33,3.72,3.50,3.73,3.51,-3.53,-3.15,-2.42,0.18,0.19,0.21
44.78,3.82,3.63,3.80,3.61,-3.59,-3.19,-2.45,0.23,0.21,0.19
45.23,3.87,3.70,3.85,3.69,-3.64,-3.23,-2.47,0.23,0.21,0.16
45.68,3.87,3.73,3.87,3.73,-3.69,-3.27,-2.50,0.18,0.18,0.14
46.13,3.87,3.75,3.87,3.75,-3.73,-3.32,-2.53,0.14,0.14,0.12
46.60,3.87,3.75,3.87,3.76,-3.76,-3.36,-2.56,0.10,0.10,0.12
47.06,3.87,3.77,3.87,3.77,-3.78,-3.41,-2.60,0.09,0.09,0.10
47.53,3.87,3.78,3.87,3.78,-3.78,-3.45,-2.63,0.08,0.08,0.08
48.01,3.87,3.78,3.87,3.79,-3.78,-3.50,-2.67,0.08,0.08,0.09
48.49,3.87,3.79,3.87,3.79,-3.79,-3.54,-2.71,0.08,0.08,0.08
48.97,3.87,3.80,3.87,3.80,-3.80,-3.59,-2.75,0.07,0.07,0.06
49.46,3.87,3.81,3.87,3.81,-3.82,-3.63,-2.79,0.04,0.04,0.06
49.96,3.87,3.81,3.87,3.81,-3.85,-3.68,-2.83,0.02,0.02,0.06
50.46,3.89,3.82,3.89,3.82,-3.87,-3.72,-2.87,0.02,0.02,0.07
50.96,3.92,3.85,3.95,3.88,-3.88,-3.77,-2.92,0.04,0.08,0.07
51.47,4.01,3.94,4.01,3.95,-3.89,-3.81,-2.96,0.12,0.13,0.06
51.99,4.10,4.04,4.02,3.96,-3.89,-3.85,-3.01,0.21,0.13,0.05
52.51,3.98,3.92,3.99,3.94,-3.90,-3.89,-3.06,0.08,0.09,0.06
53.03,3.87,3.83,3.92,3.88,-3.90,-3.93,-3.11,-0.04,0.01,0.04
53.56,3.87,3.85,3.86,3.84,-3.91,-3.97,-3.15,-0.05,-0.05,0.02
54.10,3.87,3.87,3.86,3.86,-3.92,-4.00,-3.20,-0.05,-0.06,-0.00
54.64,3.87,3.90,3.87,3.90,-3.92,-4.03,-3.25,-0.06,-0.06,-0.03
55.18,3.87,3.93,3.87,3.93,-3.92,-4.06,-3.30,-0.06,-0.06,-0.06
55.74,3.87,3.96,3.88,3.97,-3.93,-4.09,-3.34,-0.06,-0.05,-0.10
56.29,3.87,3.99,3.88,4.00,-3.93,-4.11,-3.39,-0.06,-0.06,-0.12
56.86,3.87,4.02,3.83,3.98,-3.94,-4.13,-3.44,-0.07,-0.11,-0.15
57.42,3.77,3.96,3.76,3.95,-3.94,-4.14,-3.48,-0.17,-0.18,-0.19
58.00,3.64,3.86,3.69,3.91,-3.94,-4.15,-3.52,-0.30,-0.25,-0.22
58.58,3.64,3.89,3.63,3.89,-3.94,-4.16,-3.56,-0.30,-0.30,-0.26
59.16,3.64,3.92,3.63,3.91,-3.95,-4.16,-3.60,-0.31,-0.32,-0.28
59.76,3.64,3.95,3.64,3.95,-3.96,-4.16,-3.64,-0.32,-0.32,-0.31
60.35,3.64,4.00,3.64,3.99,-3.99,-4.16,-3.68,-0.35,-0.35,-0.36
60.96,3.64,4.03,3.64,4.04,-4.02,-4.15,-3.71,-0.39,-0.39,-0.39
61.57,3.64,4.09,3.64,4.08,-4.07,-4.14,-3.74,-0.43,-0.43,-0.45
62.18,3.64,4.12,3.64,4.12,-4.12,-4.12,-3.77,-0.49,-0.49,-0.48
62.80,3.64,4.16,3.64,4.16,-4.18,-4.10,-3.80,-0.54,-0.54,-0.52
63.43,3.64,4.20,3.64,4.20,-4.22,-4.08,-3.83,-0.58,-0.58,-0.57
64.07,3.64,4.23,3.64,4.23,-4.25,-4.05,-3.85,-0.61,-0.61,-0.59
64.71,3.64,4.27,3.65,4.28,-4.26,-4.01,-3.87,-0.63,-0.61,-0.63
65.35,3.64,4.30,3.64,4.30,-4.27,-3.98,-3.89,-0.63,-0.63,-0.66
66.01,3.64,4.34,3.59,4.28,-4.26,-3.93,-3.91,-0.62,-0.67,-0.70
66.67,3.49,4.20,3.51,4.23,-4.23,-3.88,-3.92,-0.74,-0.72,-0.72
67.33,3.39,4.13,3.41,4.16,-4.18,-3.82,-3.94,-0.79,-0.77,-0.75
68.01,3.32,4.08,3.30,4.07,-4.10,-3.76,-3.95,-0.78,-0.80,-0.77
68.69,3.21,4.00,3.21,4.00,-4.00,-3.68,-3.96,-0.79,-0.79,-0.79
69.37,3.08,3.89,3.09,3.89,-3.86,-3.60,-3.97,-0.79,-0.78,-0.81
70.07,2.94,3.77,2.92,3.74,-3.71,-3.50,-3.98,-0.77,-0.79,-0.83
70.77,2.71,3.55,2.71,3.55,-3.53,-3.39,-3.99,-0.82,-0.82,-0.84
71.48,2.46,3.31,2.46,3.32,-3.33,-3.26,-4.01,-0.87,-0.86,-0.86
72.19,2.20,3.08,2.20,3.08,-3.09,-3.12,-4.02,-0.89,-0.89,-0.88
72.91,1.94,2.84,1.94,2.84,-2.82,-2.95,-4.03,-0.89,-0.88,-0.90
73.64,1.68,2.60,1.67,2.59,-2.54,-2.77,-4.04,-0.86,-0.87,-0.93
74.38,1.38,2.32,1.36,2.31,-2.26,-2.57,-4.06,-0.88,-0.89,-0.94
75.12,1.05,2.01,1.03,1.99,-1.97,-2.35,-4.07,-0.92,-0.94,-0.97
75.87,0.68,1.67,0.70,1.69,-1.70,-2.13,-4.09,-1.02,-1.00,-0.99
76.63,0.40,1.41,0.43,1.44,-1.47,-1.91,-4.11,-1.07,-1.04,-1.01
77.40,0.23,1.26,0.22,1.25,-1.29,-1.74,-4.13,-1.06,-1.07,-1.03
78.17,0.13,1.17,0.10,1.14,-1.18,-1.59,-4.16,-1.06,-1.08,-1.05
78.95,0.01,1.05,0.03,1.08,-1.15,-1.55,-4.18,-1.14,-1.12,-1.04
79.74,-0.00,1.05,-0.01,1.04,-1.19,-1.56,-4.21,-1.19,-1.21,-1.05
80.54,-0.00,1.06,-0.02,1.04,-1.31,-1.68,-4.24,-1.31,-1.33,-1.06
81.35,0.05,1.11,0.06,1.13,-1.48,-1.85,-4.28,-1.44,-1.42,-1.06
82.16,0.20,1.26,0.25,1.31,-1.70,-2.09,-4.31,-1.51,-1.46,-1.06
82.98,0.55,1.60,0.52,1.58,-1.96,-2.35,-4.35,-1.41,-1.43,-1.06
83.81,0.89,1.95,0.86,1.91,-2.23,-2.61,-4.40,-1.34,-1.37,-1.06
84.65,1.20,2.25,1.22,2.26,-2.51,-2.88,-4.44,-1.32,-1.30,-1.05
85.50,1.55,2.58,1.55,2.59,-2.79,-3.12,-4.49,-1.25,-1.24,-1.03
86.35,1.91,2.93,1.90,2.92,-3.06,-3.35,-4.55,-1.15,-1.16,-1.03
87.22,2.23,3.24,2.24,3.25,-3.32,-3.56,-4.60,-1.09,-1.07,-1.01
88.09,2.58,3.58,2.55,3.55,-3.58,-3.75,-4.66,-1.00,-1.02,-1.00
88.97,2.84,3.83,2.84,3.83,-3.84,-3.92,-4.73,-1.00,-0.99,-0.99
89.86,3.10,4.07,3.11,4.09,-4.09,-4.08,-4.80,-1.00,-0.99,-0.97
90.76,3.37,4.34,3.35,4.32,-4.35,-4.22,-4.87,-0.98,-0.99,-0.98
91.66,3.60,4.56,3.61,4.58,-4.59,-4.35,-4.94,-0.99,-0.98,-0.96
92.58,3.84,4.81,3.87,4.83,-4.81,-4.48,-5.02,-0.97,-0.95,-0.97
93.51,4.13,5.08,4.09,5.05,-5.02,-4.59,-5.10,-0.90,-0.93,-0.96
94.44,4.31,5.26,4.29,5.25,-5.22,-4.70,-5.19,-0.91,-0.92,-0.95
95.39,4.43,5.39,4.45,5.41,-5.39,-4.80,-5.27,-0.97,-0.94,-0.96
96.34,4.59,5.55,4.57,5.54,-5.55,-4.90,-5.37,-0.96,-0.98,-0.97
97.30,4.70,5.66,4.71,5.68,-5.69,-5.00,-5.46,-0.99,-0.98,-0.96
98.28,4.83,5.80,4.84,5.81,-5.81,-5.09,-5.56,-0.98,-0.97,-0.97
99.26,4.98,5.96,4.93,5.91,-5.92,-5.18,-5.66,-0.94,-0.98,-0.98
100.25,5.02,6.01,5.04,6.03,-6.02,-5.26,-5.76,-1.00,-0.98,-0.99
101.25,5.09,6.08,5.12,6.12,-6.11,-5.35,-5.86,-1.03,-0.99,-1.00
102.27,5.24,6.24,5.18,6.19,-6.21,-5.43,-5.97,-0.98,-1.03,-1.00
103.29,5.24,6.27,5.25,6.28,-6.31,-5.52,-6.07,-1.07,-1.05,-1.03
104.32,5.29,6.34,5.33,6.38,-6.40,-5.60,-6.18,-1.11,-1.07,-1.05
105.37,5.41,6.49,5.39,6.46,-6.49,-5.68,-6.29,-1.08,-1.10,-1.08
106.42,5.47,6.57,5.45,6.56,-6.57,-5.76,-6.39,-1.10,-1.12,-1.11
107.48,5.47,6.62,5.48,6.63,-6.63,-5.84,-6.50,-1.16,-1.15,-1.16
108.56,5.47,6.67,5.49,6.69,-6.67,-5.92,-6.60,-1.20,-1.18,-1.20
109.64,5.47,6.71,5.46,6.70,-6.67,-6.00,-6.70,-1.21,-1.21,-1.24
110.74,5.46,6.75,5.42,6.71,-6.65,-6.07,-6.80,-1.19,-1.23,-1.29
111.85,5.27,6.60,5.32,6.66,-6.59,-6.15,-6.90,-1.33,-1.27,-1.33
112.97,5.22,6.61,5.16,6.55,-6.51,-6.23,-6.99,-1.30,-1.35,-1.40
114.10,4.97,6.40,4.97,6.40,-6.41,-6.30,-7.07,-1.44,-1.45,-1.43
115.24,4.75,6.24,4.80,6.29,-6.30,-6.38,-7.15,-1.55,-1.50,-1.49
116.39,4.63,6.17,4.62,6.16,-6.19,-6.45,-7.23,-1.57,-1.57,-1.54
117.55,4.54,6.12,4.50,6.08,-6.10,-6.53,-7.29,-1.57,-1.61,-1.58
118.73,4.38,6.00,4.41,6.03,-6.04,-6.60,-7.35,-1.66,-1.63,-1.62
119.92,4.33,5.97,4.33,5.99,-6.02,-6.67,-7.39,-1.69,-1.68,-1.65
121.12,4.33,6.01,4.31,5.99,-6.04,-6.74,-7.43,-1.71,-1.73,-1.68
122.33,4.33,6.04,4.35,6.05,-6.10,-6.81,-7.45,-1.77,-1.75,-1.71
123.55,4.43,6.15,4.43,6.16,-6.19,-6.87,-7.47,-1.76,-1.76,-1.72
124.79,4.55,6.29,4.55,6.30,-6.30,-6.94,-7.48,-1.75,-1.75,-1.75
126.03,4.71,6.48,4.70,6.47,-6.42,-7.00,-7.47,-1.72,-1.72,-1.77
127.29,4.83,6.61,4.83,6.62,-6.57,-7.05,-7.45,-1.74,-1.73,-1.79
128.57,4.96,6.78,4.93,6.75,-6.72,-7.11,-7.43,-1.76,-1.79,-1.82
129.85,5.01,6.85,5.00,6.84,-6.87,-7.16,-7.39,-1.86,-1.86,-1.84
131.15,5.06,6.92,5.09,6.96,-7.00,-7.21,-7.35,-1.94,-1.91,-1.86
132.46,5.19,7.07,5.21,7.10,-7.12,-7.26,-7.29,-1.93,-1.91,-1.89
133.79,5.38,7.27,5.34,7.25,-7.22,-7.30,-7.23,-1.84,-1.88,-1.90
135.12,5.47,7.40,5.44,7.36,-7.31,-7.34,-7.15,-1.84,-1.86,-1.93
136.48,5.47,7.41,5.48,7.43,-7.38,-7.37,-7.07,-1.91,-1.89,-1.94
137.84,5.47,7.44,5.48,7.45,-7.43,-7.40,-6.98,-1.97,-1.96,-1.97
139.22,5.47,7.48,5.47,7.47,-7.48,-7.42,-6.89,-2.01,-2.01,-2.01
140.61,5.47,7.49,5.47,7.49,-7.51,-7.44,-6.79,-2.04,-2.04,-2.03
142.02,5.47,7.50,5.47,7.51,-7.53,-7.46,-6.69,-2.06,-2.06,-2.03
143.44,5.47,7.53,5.47,7.53,-7.55,-7.46,-6.59,-2.08,-2.08,-2.06
144.87,5.47,7.56,5.47,7.56,-7.58,-7.47,-6.48,-2.11,-2.11,-2.09
146.32,5.47,7.59,5.47,7.59,-7.62,-7.46,-6.37,-2.15,-2.15,-2.13
147.78,5.47,7.62,5.47,7.62,-7.67,-7.46,-6.26,-2.20,-2.20,-2.15
149.26,5.47,7.65,5.48,7.67,-7.70,-7.44,-6.15,-2.23,-2.22,-2.19
150.75,5.47,7.71,5.46,7.70,-7.71,-7.43,-6.04,-2.24,-2.24,-2.24
152.26,5.45,7.74,5.42,7.72,-7.68,-7.40,-5.93,-2.24,-2.26,-2.30
153.78,5.31,7.67,5.35,7.70,-7.62,-7.38,-5.82,-2.31,-2.28,-2.36
155.32,5.20,7.62,5.19,7.61,-7.51,-7.34,-5.71,-2.32,-2.32,-2.42
156.88,5.00,7.47,4.95,7.43,-7.36,-7.30,-5.60,-2.36,-2.40,-2.47
158.44,4.62,7.15,4.63,7.17,-7.13,-7.26,-5.50,-2.51,-2.50,-2.54
160.03,4.23,6.83,4.22,6.81,-6.86,-7.21,-5.39,-2.63,-2.64,-2.60
161.63,3.78,6.42,3.77,6.41,-6.60,-7.15,-5.30,-2.82,-2.83,-2.64
163.24,3.35,6.04,3.34,6.03,-6.36,-7.10,-5.20,-3.02,-3.02,-2.69
164.88,3.02,5.74,3.02,5.74,-6.19,-7.03,-5.10,-3.18,-3.17,-2.72
166.53,2.83,5.58,2.90,5.65,-6.10,-6.97,-5.01,-3.28,-3.20,-2.75
168.19,2.97,5.74,2.97,5.75,-6.09,-6.89,-4.93,-3.13,-3.12,-2.78
169.87,3.23,6.02,3.19,5.98,-6.15,-6.82,-4.84,-2.93,-2.96,-2.79
171.57,3.49,6.29,3.49,6.29,-6.26,-6.74,-4.76,-2.77,-2.77,-2.80
173.29,3.75,6.55,3.76,6.56,-6.41,-6.66,-4.68,-2.66,-2.64,-2.80
175.02,4.01,6.80,3.96,6.76,-6.57,-6.58,-4.61,-2.57,-2.61,-2.80
176.77,4.09,6.89,4.08,6.88,-6.74,-6.49,-4.53,-2.65,-2.66,-2.80
178.54,4.10,6.90,4.12,6.91,-6.87,-6.40,-4.47,-2.77,-2.76,-2.80
180.32,4.10,6.89,4.10,6.90,-6.94,-6.31,-4.40,-2.84,-2.84,-2.79
182.13,4.10,6.89,4.11,6.90,-6.93,-6.22,-4.34,-2.84,-2.82,-2.79
183.95,4.10,6.89,4.11,6.90,-6.88,-6.12,-4.28,-2.78,-2.77,-2.79
185.79,4.10,6.88,4.04,6.84,-6.80,-6.03,-4.23,-2.70,-2.75,-2.79
187.65,3.94,6.75,3.92,6.72,-6.69,-5.93,-4.18,-2.75,-2.77,-2.81
189.52,3.70,6.52,3.76,6.58,-6.58,-5.83,-4.13,-2.88,-2.82,-2.82
191.42,3.59,6.42,3.58,6.42,-6.45,-5.73,-4.09,-2.87,-2.87,-2.84
193.33,3.47,6.32,3.45,6.29,-6.33,-5.63,-4.05,-2.86,-2.88,-2.85
195.27,3.31,6.17,3.32,6.19,-6.20,-5.53,-4.00,-2.89,-2.88,-2.86
197.22,3.21,6.08,3.18,6.06,-6.08,-5.43,-3.97,-2.88,-2.90,-2.87
199.19,3.05,5.95,3.07,5.97,-5.99,-5.33,-3.93,-2.94,-2.92,-2.90
201.18,2.96,5.87,2.97,5.89,-5.91,-5.23,-3.90,-2.95,-2.94,-2.91
203.19,2.92,5.84,2.87,5.80,-5.84,-5.13,-3.87,-2.92,-2.97,-2.92
205.23,2.79,5.73,2.82,5.76,-5.77,-5.02,-3.85,-2.98,-2.95,-2.94
207.28,2.73,5.68,2.77,5.73,-5.70,-4.92,-3.82,-2.97,-2.93,-2.95
209.35,2.73,5.70,2.67,5.65,-5.61,-4.82,-3.80,-2.88,-2.94,-2.97
211.44,2.61,5.61,2.57,5.57,-5.52,-4.72,-3.77,-2.91,-2.95,-3.00
213.56,2.36,5.37,2.42,5.43,-5.41,-4.62,-3.75,-3.05,-2.99,-3.01
215.69,2.28,5.29,2.25,5.27,-5.28,-4.51,-3.73,-3.00,-3.03,-3.01
217.85,2.07,5.10,2.10,5.13,-5.13,-4.41,-3.72,-3.07,-3.04,-3.03
220.03,1.96,5.00,1.93,4.98,-4.97,-4.31,-3.70,-3.01,-3.03,-3.05
222.23,1.77,4.83,1.74,4.80,-4.79,-4.21,-3.68,-3.02,-3.05,-3.06
224.45,1.51,4.57,1.56,4.63,-4.62,-4.11,-3.66,-3.11,-3.05,-3.06
226.70,1.38,4.45,1.36,4.42,-4.44,-4.01,-3.64,-3.06,-3.08,-3.07
228.96,1.21,4.27,1.18,4.25,-4.27,-3.91,-3.62,-3.07,-3.09,-3.07
231.25,0.98,4.04,1.02,4.09,-4.11,-3.81,-3.60,-3.13,-3.09,-3.06
233.57,0.88,3.95,0.85,3.92,-3.94,-3.70,-3.58,-3.07,-3.10,-3.07
235.90,0.69,3.76,0.71,3.78,-3.78,-3.60,-3.56,-3.09,-3.07,-3.08
238.26,0.57,3.64,0.59,3.66,-3.62,-3.50,-3.54,-3.05,-3.03,-3.07
240.64,0.47,3.53,0.42,3.49,-3.46,-3.40,-3.52,-2.99,-3.04,-3.07
243.05,0.29,3.34,0.28,3.33,-3.31,-3.30,-3.49,-3.02,-3.03,-3.05
245.48,0.06,3.10,0.11,3.15,-3.16,-3.19,-3.46,-3.10,-3.04,-3.04
247.93,-0.00,3.02,-0.04,2.99,-3.01,-3.09,-3.44,-3.01,-3.05,-3.02
250.41,-0.19,2.83,-0.18,2.83,-2.87,-2.99,-3.40,-3.06,-3.05,-3.02
252.92,-0.28,2.71,-0.29,2.71,-2.72,-2.88,-3.37,-3.01,-3.01,-2.99
255.45,-0.43,2.54,-0.40,2.57,-2.58,-2.78,-3.34,-3.01,-2.99,-2.97
258.00,-0.46,2.49,-0.49,2.47,-2.45,-2.67,-3.30,-2.91,-2.93,-2.95
260.58,-0.60,2.34,-0.60,2.34,-2.31,-2.56,-3.26,-2.91,-2.91,-2.95
263.19,-0.69,2.23,-0.72,2.21,-2.18,-2.45,-3.22,-2.87,-2.90,-2.92
265.82,-0.89,2.01,-0.86,2.05,-2.04,-2.35,-3.18,-2.93,-2.90,-2.91
268.48,-0.97,1.92,-0.98,1.90,-1.90,-2.24,-3.14,-2.88,-2.88,-2.89
271.16,-1.10,1.76,-1.12,1.75,-1.76,-2.12,-3.09,-2.87,-2.88,-2.86
273.87,-1.22,1.62,-1.21,1.63,-1.63,-2.01,-3.05,-2.85,-2.84,-2.85
276.61,-1.35,1.47,-1.32,1.50,-1.51,-1.90,-3.00,-2.86,-2.83,-2.82
279.38,-1.37,1.43,-1.43,1.37,-1.39,-1.79,-2.95,-2.76,-2.82,-2.80
282.17,-1.54,1.23,-1.52,1.26,-1.28,-1.68,-2.90,-2.83,-2.80,-2.78
284.99,-1.60,1.15,-1.57,1.18,-1.18,-1.57,-2.85,-2.79,-2.75,-2.75
287.84,-1.60,1.12,-1.61,1.11,-1.09,-1.46,-2.80,-2.70,-2.71,-2.72
290.72,-1.60,1.09,-1.65,1.05,-1.02,-1.36,-2.75,-2.62,-2.66,-2.70
293.63,-1.71,0.97,-1.71,0.96,-0.94,-1.26,-2.70,-2.66,-2.65,-2.68
296.57,-1.81,0.83,-1.78,0.87,-0.88,-1.16,-2.65,-2.70,-2.66,-2.64
299.53,-1.83,0.79,-1.83,0.80,-0.83,-1.07,-2.61,-2.66,-2.66,-2.62
302.53,-1.83,0.78,-1.84,0.77,-0.79,-0.99,-2.56,-2.62,-2.63,-2.62
305.55,-1.83,0.75,-1.83,0.75,-0.75,-0.92,-2.51,-2.58,-2.59,-2.58
308.61,-1.83,0.74,-1.83,0.73,-0.72,-0.85,-2.46,-2.56,-2.56,-2.57
311.69,-1.83,0.71,-1.83,0.71,-0.70,-0.80,-2.41,-2.53,-2.53,-2.54
314.81,-1.83,0.69,-1.83,0.70,-0.69,-0.75,-2.37,-2.52,-2.52,-2.53
317.96,-1.83,0.69,-1.83,0.69,-0.68,-0.72,-2.32,-2.51,-2.51,-2.52
321.14,-1.83,0.69,-1.83,0.69,-0.67,-0.69,-2.28,-2.51,-2.51,-2.52
324.35,-1.83,0.69,-1.83,0.68,-0.68,-0.68,-2.23,-2.51,-2.51,-2.52
327.59,-1.83,0.67,-1.84,0.66,-0.69,-0.67,-2.19,-2.53,-2.54,-2.50
330.87,-1.83,0.66,-1.83,0.67,-0.71,-0.68,-2.15,-2.55,-2.55,-2.50
334.18,-1.83,0.67,-1.79,0.70,-0.74,-0.69,-2.11,-2.57,-2.52,-2.50
337.52,-1.70,0.78,-1.72,0.76,-0.75,-0.71,-2.07,-2.46,-2.47,-2.48
340.90,-1.62,0.84,-1.65,0.81,-0.77,-0.73,-2.03,-2.39,-2.41,-2.46
344.30,-1.60,0.84,-1.60,0.84,-0.78,-0.76,-2.00,-2.38,-2.38,-2.44
347.75,-1.60,0.82,-1.60,0.83,-0.79,-0.79,-1.96,-2.39,-2.38,-2.42
351.23,-1.60,0.80,-1.60,0.80,-0.81,-0.82,-1.93,-2.41,-2.41,-2.41
354.74,-1.60,0.78,-1.62,0.77,-0.82,-0.86,-1.90,-2.42,-2.44,-2.39
358.28,-1.60,0.76,-1.60,0.76,-0.83,-0.89,-1.87,-2.43,-2.43,-2.36
361.87,-1.60,0.74,-1.54,0.79,-0.83,-0.92,-1.84,-2.44,-2.38,-2.34
365.49,-1.43,0.88,-1.47,0.84,-0.84,-0.96,-1.81,-2.27,-2.31,-2.31
369.14,-1.38,0.92,-1.40,0.90,-0.84,-0.99,-1.79,-2.22,-2.24,-2.30
372.83,-1.37,0.91,-1.36,0.92,-0.85,-1.02,-1.76,-2.22,-2.21,-2.28
376.56,-1.37,0.89,-1.37,0.89,-0.86,-1.06,-1.74,-2.23,-2.23,-2.26
380.33,-1.37,0.86,-1.37,0.87,-0.88,-1.09,-1.72,-2.25,-2.25,-2.24
384.13,-1.37,0.84,-1.39,0.84,-0.90,-1.11,-1.70,-2.27,-2.28,-2.22
387.97,-1.37,0.85,-1.37,0.85,-0.91,-1.14,-1.68,-2.28,-2.28,-2.22
391.85,-1.36,0.85,-1.31,0.89,-0.92,-1.17,-1.66,-2.28,-2.23,-2.21
395.77,-1.20,0.99,-1.24,0.96,-0.93,-1.19,-1.64,-2.13,-2.17,-2.19
399.73,-1.14,1.04,-1.17,1.01,-0.95,-1.21,-1.62,-2.10,-2.12,-2.18
403.72,-1.14,1.03,-1.13,1.04,-0.99,-1.24,-1.61,-2.13,-2.12,-2.17
407.76,-1.14,1.02,-1.15,1.01,-1.03,-1.26,-1.60,-2.17,-2.18,-2.16
411.84,-1.14,1.01,-1.14,1.01,-1.06,-1.28,-1.58,-2.20,-2.20,-2.15
415.96,-1.14,1.00,-1.08,1.06,-1.10,-1.30,-1.57,-2.24,-2.18,-2.14
420.12,-0.96,1.17,-1.01,1.13,-1.13,-1.31,-1.56,-2.10,-2.14,-2.13
424.32,-0.91,1.22,-0.95,1.19,-1.17,-1.33,-1.55,-2.08,-2.12,-2.14
428.56,-0.91,1.21,-0.90,1.23,-1.21,-1.35,-1.54,-2.12,-2.11,-2.13
432.85,-0.91,1.21,-0.87,1.25,-1.25,-1.37,-1.53,-2.17,-2.13,-2.13
437.18,-0.81,1.30,-0.81,1.30,-1.30,-1.38,-1.52,-2.11,-2.11,-2.12
441.55,-0.72,1.39,-0.75,1.36,-1.34,-1.40,-1.51,-2.06,-2.09,-2.11
445.96,-0.69,1.41,-0.70,1.40,-1.38,-1.41,-1.51,-2.07,-2.08,-2.10
450.42,-0.69,1.41,-0.70,1.40,-1.41,-1.43,-1.50,-2.10,-2.11,-2.10
454.93,-0.69,1.39,-0.67,1.42,-1.44,-1.44,-1.49,-2.14,-2.11,-2.08
459.48,-0.64,1.44,-0.61,1.47,-1.48,-1.46,-1.49,-2.12,-2.09,-2.08
464.07,-0.49,1.57,-0.53,1.53,-1.52,-1.47,-1.48,-2.01,-2.05,-2.06
468.71,-0.46,1.58,-0.49,1.56,-1.55,-1.49,-1.48,-2.02,-2.05,-2.04
473.40,-0.46,1.58,-0.45,1.59,-1.59,-1.50,-1.47,-2.05,-2.03,-2.04
478.13,-0.46,1.56,-0.40,1.63,-1.63,-1.52,-1.46,-2.09,-2.03,-2.02
