frequency,raw,error,smoothed,error_smoothed,equalization,parametric_eq,fixed_band_eq,equalized_raw,equalized_smoothed,target
20.00,-0.72,0.65,-0.73,0.64,-0.68,-1.13,-1.29,-1.40,-1.41,-1.37
20.20,-0.61,0.72,-0.61,0.72,-0.73,-1.16,-1.33,-1.34,-1.34,-1.33
20.40,-0.51,0.78,-0.50,0.79,-0.79,-1.18,-1.36,-1.30,-1.29,-1.29
20.61,-0.40,0.86,-0.40,0.86,-0.84,-1.21,-1.40,-1.24,-1.24,-1.27
20.81,-0.30,0.93,-0.30,0.93,-0.89,-1.24,-1.44,-1.19,-1.19,-1.23
21.02,-0.20,0.99,-0.22,0.98,-0.94,-1.26,-1.48,-1.14,-1.16,-1.19
21.23,-0.16,1.02,-0.16,1.01,-0.98,-1.29,-1.52,-1.15,-1.15,-1.18
21.44,-0.13,1.03,-0.13,1.03,-1.03,-1.32,-1.56,-1.16,-1.16,-1.16
21.66,-0.10,1.05,-0.10,1.05,-1.06,-1.35,-1.60,-1.16,-1.16,-1.15
21.87,-0.07,1.08,-0.07,1.08,-1.08,-1.38,-1.65,-1.16,-1.15,-1.15
22.09,-0.03,1.11,-0.03,1.11,-1.12,-1.41,-1.69,-1.15,-1.15,-1.14
22.31,0.02,1.16,0.02,1.16,-1.16,-1.44,-1.74,-1.14,-1.14,-1.14
22.54,0.07,1.21,0.06,1.20,-1.22,-1.47,-1.79,-1.15,-1.16,-1.14
22.76,0.12,1.27,0.11,1.26,-1.29,-1.50,-1.83,-1.17,-1.18,-1.15
22.99,0.17,1.33,0.18,1.34,-1.38,-1.53,-1.88,-1.21,-1.19,-1.16
23.22,0.28,1.44,0.28,1.44,-1.47,-1.57,-1.93,-1.19,-1.19,-1.16
23.45,0.40,1.57,0.40,1.57,-1.57,-1.60,-1.99,-1.17,-1.17,-1.17
23.69,0.52,1.69,0.52,1.69,-1.66,-1.64,-2.04,-1.14,-1.14,-1.17
23.92,0.63,1.80,0.61,1.78,-1.75,-1.67,-2.09,-1.12,-1.13,-1.17
24.16,0.69,1.85,0.69,1.85,-1.82,-1.71,-2.15,-1.13,-1.14,-1.16
24.40,0.73,1.89,0.73,1.90,-1.88,-1.74,-2.20,-1.16,-1.15,-1.16
24.65,0.77,1.94,0.77,1.94,-1.93,-1.78,-2.26,-1.16,-1.16,-1.17
24.89,0.80,1.97,0.80,1.97,-1.97,-1.82,-2.31,-1.17,-1.17,-1.17
25.14,0.83,2.00,0.82,2.00,-1.99,-1.86,-2.37,-1.17,-1.17,-1.17
25.39,0.84,2.01,0.83,2.01,-2.03,-1.90,-2.43,-1.19,-1.19,-1.18
25.65,0.85,2.03,0.85,2.03,-2.07,-1.94,-2.49,-1.22,-1.22,-1.19
25.91,0.87,2.06,0.88,2.07,-2.11,-1.98,-2.54,-1.25,-1.24,-1.20
26.16,0.93,2.13,0.93,2.13,-2.16,-2.02,-2.60,-1.23,-1.23,-1.20
26.43,1.01,2.20,1.01,2.21,-2.21,-2.06,-2.66,-1.21,-1.20,-1.20
26.69,1.10,2.30,1.10,2.30,-2.26,-2.11,-2.71,-1.17,-1.16,-1.20
26.96,1.19,2.40,1.16,2.37,-2.31,-2.15,-2.77,-1.13,-1.15,-1.21
27.23,1.20,2.41,1.20,2.41,-2.37,-2.20,-2.82,-1.17,-1.17,-1.21
27.50,1.21,2.42,1.21,2.42,-2.42,-2.24,-2.88,-1.21,-1.21,-1.21
27.77,1.22,2.44,1.21,2.43,-2.47,-2.29,-2.93,-1.26,-1.26,-1.22
28.05,1.23,2.45,1.25,2.47,-2.52,-2.33,-2.98,-1.30,-1.28,-1.22
28.33,1.31,2.54,1.31,2.54,-2.57,-2.38,-3.02,-1.27,-1.27,-1.23
28.62,1.39,2.62,1.38,2.62,-2.62,-2.43,-3.07,-1.24,-1.24,-1.23
28.90,1.47,2.70,1.46,2.69,-2.67,-2.48,-3.11,-1.20,-1.21,-1.23
29.19,1.52,2.75,1.52,2.75,-2.71,-2.52,-3.15,-1.19,-1.20,-1.24
29.48,1.55,2.77,1.56,2.79,-2.74,-2.57,-3.19,-1.20,-1.19,-1.23
29.78,1.58,2.81,1.58,2.81,-2.77,-2.62,-3.22,-1.19,-1.20,-1.24
30.08,1.59,2.82,1.58,2.82,-2.79,-2.67,-3.25,-1.21,-1.21,-1.23
30.38,1.57,2.82,1.56,2.80,-2.82,-2.72,-3.27,-1.25,-1.26,-1.25
30.68,1.55,2.80,1.54,2.79,-2.85,-2.77,-3.30,-1.30,-1.31,-1.25
30.99,1.52,2.78,1.56,2.81,-2.89,-2.82,-3.31,-1.37,-1.33,-1.26
31.30,1.62,2.88,1.62,2.88,-2.93,-2.87,-3.33,-1.32,-1.31,-1.26
31.61,1.72,2.98,1.71,2.98,-2.98,-2.92,-3.34,-1.27,-1.27,-1.26
31.93,1.82,3.10,1.80,3.08,-3.04,-2.97,-3.35,-1.22,-1.24,-1.29
32.24,1.85,3.14,1.85,3.14,-3.08,-3.02,-3.35,-1.24,-1.24,-1.30
32.57,1.87,3.17,1.88,3.18,-3.13,-3.07,-3.35,-1.26,-1.25,-1.30
32.89,1.89,3.20,1.88,3.20,-3.17,-3.13,-3.35,-1.28,-1.29,-1.31
33.22,1.89,3.22,1.88,3.20,-3.20,-3.18,-3.34,-1.32,-1.33,-1.33
33.55,1.87,3.20,1.87,3.20,-3.23,-3.22,-3.33,-1.36,-1.36,-1.33
33.89,1.85,3.20,1.86,3.21,-3.25,-3.27,-3.32,-1.40,-1.39,-1.35
34.23,1.88,3.23,1.88,3.25,-3.28,-3.32,-3.31,-1.40,-1.39,-1.36
34.57,1.93,3.31,1.93,3.30,-3.31,-3.37,-3.29,-1.38,-1.39,-1.38
34.92,1.99,3.38,1.98,3.36,-3.35,-3.42,-3.27,-1.37,-1.38,-1.39
35.27,2.02,3.41,2.02,3.42,-3.40,-3.46,-3.25,-1.39,-1.39,-1.39
35.62,2.05,3.46,2.05,3.46,-3.46,-3.51,-3.23,-1.41,-1.41,-1.41
35.97,2.08,3.50,2.08,3.50,-3.51,-3.55,-3.21,-1.43,-1.43,-1.43
36.33,2.12,3.55,2.12,3.56,-3.55,-3.60,-3.19,-1.43,-1.43,-1.43
36.70,2.16,3.60,2.16,3.60,-3.59,-3.64,-3.17,-1.43,-1.43,-1.44
37.06,2.20,3.65,2.19,3.63,-3.61,-3.68,-3.15,-1.41,-1.42,-1.45
37.43,2.20,3.64,2.20,3.65,-3.63,-3.72,-3.12,-1.43,-1.43,-1.45
37.81,2.20,3.66,2.20,3.66,-3.65,-3.75,-3.10,-1.45,-1.45,-1.46
38.19,2.20,3.67,2.19,3.65,-3.67,-3.79,-3.08,-1.47,-1.48,-1.47
38.57,2.19,3.65,2.19,3.65,-3.68,-3.82,-3.06,-1.50,-1.50,-1.46
38.95,2.18,3.65,2.19,3.67,-3.70,-3.86,-3.04,-1.52,-1.51,-1.48
39.34,2.22,3.70,2.22,3.70,-3.72,-3.89,-3.02,-1.50,-1.50,-1.48
39.74,2.27,3.76,2.26,3.75,-3.74,-3.92,-3.01,-1.47,-1.48,-1.49
40.14,2.30,3.79,2.29,3.78,-3.76,-3.94,-2.99,-1.46,-1.47,-1.50
40.54,2.30,3.80,2.30,3.80,-3.78,-3.97,-2.98,-1.48,-1.47,-1.50
40.94,2.30,3.80,2.30,3.81,-3.79,-3.99,-2.97,-1.50,-1.49,-1.50
41.35,2.30,3.81,2.30,3.81,-3.81,-4.01,-2.96,-1.51,-1.51,-1.52
41.76,2.30,3.83,2.30,3.82,-3.83,-4.03,-2.95,-1.53,-1.53,-1.53
42.18,2.30,3.83,2.30,3.83,-3.85,-4.04,-2.94,-1.55,-1.55,-1.53
42.60,2.31,3.86,2.30,3.85,-3.87,-4.06,-2.94,-1.56,-1.57,-1.55
43.03,2.31,3.86,2.32,3.88,-3.90,-4.07,-2.93,-1.59,-1.58,-1.55
43.46,2.35,3.92,2.35,3.92,-3.93,-4.08,-2.94,-1.58,-1.58,-1.58
43.90,2.39,3.99,2.38,3.97,-3.96,-4.09,-2.94,-1.57,-1.59,-1.60
44.33,2.40,4.01,2.40,4.02,-3.99,-4.09,-2.94,-1.60,-1.60,-1.62
44.78,2.40,4.04,2.40,4.04,-4.02,-4.10,-2.95,-1.62,-1.62,-1.64
45.23,2.40,4.05,2.40,4.05,-4.04,-4.10,-2.96,-1.65,-1.65,-1.66
45.68,2.40,4.07,2.40,4.07,-4.06,-4.10,-2.97,-1.66,-1.66,-1.67
46.13,2.40,4.08,2.40,4.08,-4.08,-4.10,-2.98,-1.68,-1.68,-1.69
46.60,2.40,4.09,2.40,4.09,-4.09,-4.10,-3.00,-1.69,-1.69,-1.69
47.06,2.40,4.10,2.39,4.09,-4.11,-4.09,-3.02,-1.71,-1.72,-1.70
47.53,2.40,4.10,2.40,4.10,-4.13,-4.09,-3.04,-1.73,-1.73,-1.70
48.01,2.40,4.11,2.42,4.13,-4.15,-4.08,-3.06,-1.76,-1.74,-1.71
48.49,2.45,4.17,2.45,4.17,-4.18,-4.07,-3.08,-1.73,-1.73,-1.73
48.97,2.50,4.24,2.48,4.22,-4.20,-4.06,-3.11,-1.70,-1.72,-1.74
49.46,2.50,4.25,2.50,4.25,-4.22,-4.05,-3.13,-1.72,-1.72,-1.75
49.96,2.50,4.27,2.50,4.26,-4.24,-4.04,-3.16,-1.74,-1.74,-1.77
50.46,2.50,4.25,2.50,4.26,-4.26,-4.03,-3.19,-1.76,-1.76,-1.76
50.96,2.50,4.26,2.49,4.26,-4.27,-4.01,-3.23,-1.78,-1.78,-1.76
51.47,2.50,4.27,2.50,4.27,-4.29,-4.00,-3.26,-1.79,-1.79,-1.77
51.99,2.50,4.28,2.51,4.28,-4.30,-3.98,-3.30,-1.80,-1.80,-1.78
52.51,2.53,4.31,2.53,4.31,-4.32,-3.97,-3.33,-1.79,-1.79,-1.78
53.03,2.56,4.34,2.55,4.34,-4.33,-3.95,-3.37,-1.78,-1.78,-1.78
53.56,2.58,4.37,2.58,4.37,-4.35,-3.94,-3.41,-1.77,-1.77,-1.79
54.10,2.60,4.39,2.59,4.39,-4.37,-3.92,-3.45,-1.77,-1.78,-1.80
54.64,2.60,4.39,2.60,4.40,-4.39,-3.90,-3.48,-1.79,-1.79,-1.80
55.18,2.60,4.41,2.60,4.41,-4.41,-3.89,-3.52,-1.81,-1.81,-1.81
55.74,2.60,4.42,2.60,4.41,-4.42,-3.87,-3.56,-1.82,-1.82,-1.82
56.29,2.60,4.42,2.60,4.42,-4.43,-3.85,-3.60,-1.84,-1.84,-1.82
56.86,2.60,4.44,2.60,4.44,-4.45,-3.83,-3.64,-1.85,-1.85,-1.84
57.42,2.60,4.45,2.60,4.45,-4.46,-3.81,-3.68,-1.86,-1.86,-1.85
58.00,2.60,4.46,2.60,4.46,-4.47,-3.79,-3.72,-1.88,-1.88,-1.87
58.58,2.60,4.48,2.60,4.48,-4.48,-3.77,-3.75,-1.89,-1.88,-1.88
59.16,2.60,4.49,2.60,4.49,-4.48,-3.75,-3.79,-1.89,-1.88,-1.89
59.76,2.59,4.50,2.58,4.50,-4.47,-3.73,-3.82,-1.89,-1.89,-1.92
60.35,2.55,4.49,2.54,4.48,-4.45,-3.71,-3.86,-1.91,-1.91,-1.94
60.96,2.48,4.44,2.48,4.45,-4.43,-3.68,-3.89,-1.95,-1.95,-1.96
61.57,2.39,4.40,2.39,4.39,-4.40,-3.66,-3.92,-2.01,-2.01,-2.01
62.18,2.29,4.33,2.28,4.33,-4.37,-3.63,-3.95,-2.08,-2.08,-2.04
62.80,2.18,4.26,2.18,4.26,-4.32,-3.60,-3.98,-2.14,-2.14,-2.08
63.43,2.09,4.20,2.10,4.22,-4.26,-3.56,-4.00,-2.18,-2.16,-2.12
64.07,2.02,4.17,2.04,4.19,-4.19,-3.52,-4.03,-2.17,-2.15,-2.15
64.71,1.98,4.17,1.94,4.13,-4.09,-3.47,-4.05,-2.11,-2.14,-2.19
65.35,1.83,4.05,1.80,4.03,-3.96,-3.42,-4.07,-2.13,-2.16,-2.22
66.01,1.57,3.83,1.62,3.87,-3.81,-3.35,-4.10,-2.24,-2.19,-2.26
66.67,1.38,3.67,1.35,3.65,-3.63,-3.28,-4.12,-2.25,-2.27,-2.30
67.33,1.10,3.42,1.08,3.41,-3.41,-3.18,-4.14,-2.32,-2.33,-2.33
68.01,0.73,3.10,0.78,3.15,-3.15,-3.07,-4.15,-2.43,-2.37,-2.37
68.69,0.45,2.86,0.39,2.79,-2.86,-2.94,-4.17,-2.41,-2.47,-2.41
69.37,0.00,2.45,-0.03,2.42,-2.56,-2.77,-4.19,-2.56,-2.59,-2.45
70.07,-0.54,1.95,-0.45,2.04,-2.30,-2.58,-4.21,-2.84,-2.75,-2.49
70.77,-0.83,1.69,-0.89,1.64,-2.08,-2.35,-4.23,-2.92,-2.97,-2.52
71.48,-1.21,1.35,-1.22,1.35,-1.94,-2.11,-4.25,-3.15,-3.16,-2.57
72.19,-1.53,1.08,-1.46,1.15,-1.87,-1.87,-4.27,-3.40,-3.33,-2.61
72.91,-1.61,1.05,-1.66,1.00,-1.88,-1.66,-4.29,-3.49,-3.54,-2.66
73.64,-1.75,0.96,-1.78,0.93,-1.96,-1.54,-4.32,-3.71,-3.74,-2.71
74.38,-1.81,0.94,-1.80,0.96,-2.12,-1.55,-4.34,-3.93,-3.92,-2.75
75.12,-1.74,1.06,-1.70,1.10,-2.34,-1.69,-4.37,-4.08,-4.03,-2.80
75.87,-1.44,1.40,-1.41,1.42,-2.60,-1.93,-4.40,-4.04,-4.02,-2.84
76.63,-0.98,1.89,-1.00,1.87,-2.90,-2.22,-4.43,-3.88,-3.90,-2.87
77.40,-0.52,2.39,-0.56,2.35,-3.19,-2.53,-4.46,-3.72,-3.76,-2.91
78.17,-0.12,2.83,-0.13,2.81,-3.47,-2.83,-4.50,-3.59,-3.60,-2.95
78.95,0.22,3.20,0.28,3.26,-3.73,-3.11,-4.54,-3.51,-3.45,-2.98
79.74,0.70,3.71,0.68,3.69,-3.99,-3.36,-4.58,-3.29,-3.31,-3.01
80.54,1.08,4.12,1.06,4.10,-4.25,-3.58,-4.63,-3.18,-3.20,-3.04
81.35,1.39,4.46,1.40,4.47,-4.52,-3.79,-4.67,-3.13,-3.12,-3.07
82.16,1.67,4.77,1.66,4.76,-4.78,-3.99,-4.72,-3.11,-3.11,-3.10
82.98,1.90,5.02,1.89,5.02,-5.02,-4.18,-4.78,-3.12,-3.13,-3.12
83.81,2.09,5.25,2.11,5.27,-5.25,-4.37,-4.84,-3.16,-3.14,-3.16
84.65,2.31,5.50,2.30,5.50,-5.46,-4.56,-4.90,-3.15,-3.16,-3.20
85.50,2.49,5.71,2.47,5.70,-5.66,-4.76,-4.97,-3.17,-3.19,-3.22
86.35,2.61,5.86,2.60,5.86,-5.85,-4.98,-5.03,-3.24,-3.24,-3.25
87.22,2.70,5.99,2.70,5.99,-6.02,-5.22,-5.11,-3.32,-3.32,-3.29
88.09,2.78,6.10,2.80,6.12,-6.17,-5.48,-5.18,-3.40,-3.38,-3.32
88.97,2.90,6.25,2.91,6.26,-6.30,-5.74,-5.27,-3.41,-3.40,-3.35
89.86,3.04,6.42,3.02,6.40,-6.42,-5.99,-5.35,-3.38,-3.40,-3.38
90.76,3.11,6.53,3.12,6.54,-6.51,-6.20,-5.44,-3.40,-3.38,-3.42
91.66,3.18,6.63,3.17,6.62,-6.58,-6.34,-5.53,-3.40,-3.41,-3.45
92.58,3.18,6.66,3.15,6.63,-6.61,-6.37,-5.63,-3.44,-3.47,-3.48
93.51,3.08,6.59,3.09,6.60,-6.61,-6.33,-5.73,-3.53,-3.52,-3.51
94.44,2.98,6.52,3.01,6.56,-6.56,-6.22,-5.83,-3.58,-3.55,-3.54
95.39,2.92,6.49,2.92,6.49,-6.46,-6.10,-5.94,-3.55,-3.55,-3.57
96.34,2.81,6.41,2.77,6.37,-6.32,-5.98,-6.05,-3.51,-3.55,-3.61
97.30,2.56,6.19,2.56,6.19,-6.14,-5.88,-6.16,-3.58,-3.58,-3.63
98.28,2.21,5.87,2.25,5.91,-5.93,-5.80,-6.28,-3.72,-3.68,-3.66
99.26,1.87,5.55,1.80,5.49,-5.70,-5.75,-6.40,-3.83,-3.90,-3.68
100.25,1.32,5.03,1.29,5.00,-5.43,-5.72,-6.52,-4.11,-4.14,-3.71
101.25,0.66,4.40,0.73,4.47,-5.12,-5.70,-6.65,-4.47,-4.40,-3.74
102.27,0.18,3.95,0.13,3.90,-4.82,-5.70,-6.78,-4.64,-4.70,-3.77
103.29,-0.37,3.45,-0.39,3.42,-4.56,-5.72,-6.90,-4.93,-4.94,-3.82
104.32,-0.81,3.03,-0.75,3.09,-4.35,-5.74,-7.03,-5.16,-5.10,-3.84
105.37,-0.96,2.92,-0.95,2.93,-4.21,-5.77,-7.16,-5.17,-5.16,-3.88
106.42,-0.92,2.98,-0.91,3.00,-4.15,-5.81,-7.29,-5.07,-5.05,-3.91
107.48,-0.69,3.25,-0.71,3.23,-4.16,-5.85,-7.42,-4.85,-4.87,-3.95
108.56,-0.39,3.59,-0.42,3.56,-4.25,-5.90,-7.54,-4.64,-4.67,-3.99
109.64,-0.10,3.92,-0.04,3.98,-4.41,-5.96,-7.67,-4.51,-4.45,-4.02
110.74,0.35,4.40,0.36,4.42,-4.63,-6.01,-7.79,-4.29,-4.27,-4.05
111.85,0.81,4.89,0.73,4.82,-4.91,-6.07,-7.90,-4.10,-4.18,-4.08
112.97,1.07,5.20,1.03,5.15,-5.21,-6.13,-8.01,-4.14,-4.18,-4.13
114.10,1.22,5.37,1.28,5.44,-5.50,-6.20,-8.11,-4.29,-4.22,-4.15
115.24,1.49,5.67,1.54,5.72,-5.76,-6.26,-8.20,-4.27,-4.22,-4.19
116.39,1.84,6.05,1.80,6.01,-5.99,-6.33,-8.28,-4.15,-4.19,-4.22
117.55,2.08,6.32,2.02,6.26,-6.20,-6.40,-8.36,-4.12,-4.18,-4.24
118.73,2.15,6.42,2.17,6.43,-6.40,-6.47,-8.42,-4.25,-4.23,-4.27
119.92,2.23,6.51,2.27,6.56,-6.58,-6.54,-8.47,-4.35,-4.30,-4.28
121.12,2.40,6.70,2.39,6.70,-6.73,-6.61,-8.50,-4.34,-4.34,-4.30
122.33,2.56,6.88,2.55,6.86,-6.87,-6.68,-8.52,-4.31,-4.32,-4.32
123.55,2.69,7.01,2.68,7.01,-6.99,-6.76,-8.53,-4.31,-4.31,-4.33
124.79,2.78,7.13,2.76,7.11,-7.10,-6.83,-8.52,-4.33,-4.34,-4.35
126.03,2.82,7.19,2.83,7.19,-7.20,-6.90,-8.50,-4.38,-4.38,-4.37
127.29,2.88,7.26,2.90,7.29,-7.30,-6.97,-8.46,-4.42,-4.39,-4.38
128.57,2.98,7.38,2.98,7.38,-7.38,-7.04,-8.40,-4.41,-4.41,-4.41
129.85,3.09,7.51,3.05,7.47,-7.46,-7.11,-8.33,-4.37,-4.41,-4.42
131.15,3.09,7.52,3.11,7.54,-7.53,-7.18,-8.25,-4.44,-4.42,-4.43
132.46,3.13,7.57,3.14,7.59,-7.60,-7.25,-8.15,-4.47,-4.45,-4.44
133.79,3.20,7.64,3.18,7.64,-7.66,-7.31,-8.04,-4.46,-4.48,-4.45
135.12,3.23,7.71,3.24,7.71,-7.72,-7.37,-7.92,-4.49,-4.48,-4.48
136.48,3.29,7.77,3.29,7.77,-7.76,-7.43,-7.79,-4.47,-4.48,-4.48
137.84,3.33,7.83,3.31,7.82,-7.80,-7.49,-7.65,-4.47,-4.48,-4.50
139.22,3.33,7.86,3.33,7.85,-7.83,-7.55,-7.50,-4.50,-4.50,-4.53
140.61,3.33,7.88,3.33,7.87,-7.86,-7.60,-7.35,-4.54,-4.53,-4.55
142.02,3.33,7.87,3.33,7.88,-7.89,-7.65,-7.19,-4.57,-4.57,-4.55
143.44,3.33,7.89,3.33,7.90,-7.92,-7.70,-7.03,-4.59,-4.59,-4.56
144.87,3.33,7.92,3.33,7.92,-7.95,-7.74,-6.86,-4.62,-4.62,-4.59
146.32,3.33,7.95,3.33,7.94,-7.98,-7.77,-6.69,-4.65,-4.65,-4.62
147.78,3.33,7.97,3.34,7.98,-8.00,-7.81,-6.51,-4.67,-4.67,-4.65
149.26,3.33,8.01,3.33,8.01,-8.02,-7.83,-6.34,-4.70,-4.70,-4.68
150.75,3.32,8.05,3.30,8.03,-8.03,-7.85,-6.16,-4.71,-4.73,-4.74
152.26,3.23,8.01,3.24,8.02,-8.00,-7.87,-5.99,-4.78,-4.76,-4.78
153.78,3.14,7.97,3.14,7.97,-7.94,-7.88,-5.81,-4.81,-4.81,-4.83
155.32,3.00,7.89,3.00,7.89,-7.84,-7.88,-5.63,-4.85,-4.85,-4.90
156.88,2.81,7.76,2.82,7.78,-7.68,-7.87,-5.46,-4.87,-4.86,-4.95
158.44,2.57,7.59,2.55,7.57,-7.46,-7.86,-5.29,-4.90,-4.91,-5.02
160.03,2.22,7.30,2.16,7.24,-7.22,-7.84,-5.12,-5.00,-5.06,-5.08
161.63,1.68,6.81,1.69,6.83,-6.99,-7.81,-4.95,-5.31,-5.30,-5.13
163.24,1.19,6.38,1.19,6.38,-6.79,-7.78,-4.78,-5.61,-5.60,-5.19
164.88,0.81,6.03,0.81,6.04,-6.66,-7.74,-4.62,-5.85,-5.85,-5.22
166.53,0.61,5.87,0.67,5.93,-6.61,-7.68,-4.46,-6.00,-5.94,-5.26
168.19,0.74,6.03,0.77,6.07,-6.63,-7.62,-4.30,-5.89,-5.86,-5.29
169.87,1.08,6.40,1.07,6.39,-6.72,-7.56,-4.14,-5.64,-5.65,-5.32
171.57,1.50,6.84,1.46,6.80,-6.85,-7.48,-3.98,-5.35,-5.39,-5.34
173.29,1.81,7.15,1.79,7.14,-7.00,-7.39,-3.83,-5.19,-5.20,-5.34
175.02,2.02,7.37,2.01,7.36,-7.13,-7.30,-3.68,-5.12,-5.13,-5.35
176.77,2.09,7.45,2.09,7.44,-7.25,-7.20,-3.53,-5.16,-5.16,-5.36
178.54,2.07,7.43,2.05,7.41,-7.32,-7.08,-3.39,-5.25,-5.27,-5.36
180.32,1.94,7.29,1.94,7.29,-7.31,-6.97,-3.25,-5.38,-5.37,-5.35
182.13,1.79,7.13,1.81,7.16,-7.26,-6.84,-3.11,-5.47,-5.45,-5.34
183.95,1.69,7.04,1.69,7.04,-7.16,-6.70,-2.97,-5.47,-5.46,-5.35
185.79,1.60,6.95,1.61,6.96,-7.02,-6.56,-2.84,-5.42,-5.41,-5.35
187.65,1.53,6.89,1.52,6.88,-6.86,-6.41,-2.70,-5.33,-5.34,-5.36
189.52,1.41,6.77,1.40,6.77,-6.69,-6.26,-2.57,-5.29,-5.29,-5.37
191.42,1.24,6.62,1.22,6.60,-6.52,-6.09,-2.45,-5.28,-5.30,-5.38
193.33,0.99,6.38,0.97,6.36,-6.34,-5.92,-2.32,-5.35,-5.37,-5.39
195.27,0.68,6.08,0.70,6.11,-6.14,-5.75,-2.20,-5.46,-5.44,-5.40
197.22,0.42,5.84,0.45,5.88,-5.93,-5.56,-2.08,-5.51,-5.48,-5.42
199.19,0.25,5.69,0.22,5.66,-5.71,-5.38,-1.96,-5.46,-5.49,-5.45
201.18,0.03,5.48,0.01,5.47,-5.49,-5.18,-1.84,-5.46,-5.48,-5.46
203.19,-0.22,5.24,-0.20,5.28,-5.27,-4.98,-1.73,-5.50,-5.47,-5.47
205.23,-0.42,5.07,-0.43,5.06,-5.06,-4.78,-1.62,-5.48,-5.48,-5.50
207.28,-0.63,4.86,-0.66,4.85,-4.84,-4.57,-1.51,-5.48,-5.50,-5.50
209.35,-0.90,4.62,-0.87,4.66,-4.62,-4.36,-1.40,-5.53,-5.49,-5.53
211.44,-1.12,4.42,-1.12,4.42,-4.40,-4.14,-1.30,-5.52,-5.51,-5.54
213.56,-1.35,4.20,-1.41,4.14,-4.16,-3.92,-1.19,-5.51,-5.57,-5.55
215.69,-1.75,3.81,-1.72,3.84,-3.91,-3.70,-1.09,-5.66,-5.63,-5.56
217.85,-2.10,3.47,-2.07,3.50,-3.65,-3.47,-1.00,-5.76,-5.73,-5.57
220.03,-2.41,3.17,-2.44,3.14,-3.40,-3.24,-0.90,-5.81,-5.84,-5.59
222.23,-2.79,2.80,-2.79,2.79,-3.13,-3.00,-0.81,-5.93,-5.93,-5.59
224.45,-3.19,2.39,-3.17,2.42,-2.87,-2.77,-0.72,-6.06,-6.04,-5.58
226.70,-3.53,2.05,-3.56,2.02,-2.61,-2.53,-0.64,-6.14,-6.18,-5.58
228.96,-3.95,1.62,-3.95,1.62,-2.35,-2.29,-0.56,-6.31,-6.30,-5.57
231.25,-4.34,1.22,-4.31,1.25,-2.09,-2.04,-0.48,-6.44,-6.41,-5.56
233.57,-4.66,0.89,-4.67,0.88,-1.84,-1.80,-0.40,-6.50,-6.50,-5.55
235.90,-4.97,0.56,-5.00,0.53,-1.58,-1.55,-0.33,-6.55,-6.58,-5.53
238.26,-5.34,0.17,-5.33,0.18,-1.32,-1.30,-0.26,-6.66,-6.65,-5.51
240.64,-5.68,-0.20,-5.67,-0.19,-1.06,-1.05,-0.19,-6.74,-6.73,-5.48
243.05,-6.00,-0.55,-6.02,-0.57,-0.80,-0.80,-0.13,-6.80,-6.82,-5.45
245.48,-6.33,-0.91,-6.34,-0.91,-0.54,-0.54,-0.07,-6.88,-6.88,-5.43
247.93,-6.68,-1.28,-6.64,-1.24,-0.29,-0.29,-0.02,-6.97,-6.93,-5.40
250.41,-6.91,-1.53,-6.93,-1.55,-0.03,-0.04,0.03,-6.94,-6.96,-5.38
252.92,-7.19,-1.84,-7.21,-1.86,0.23,0.22,0.08,-6.96,-6.98,-5.35
255.45,-7.50,-2.18,-7.49,-2.16,0.49,0.47,0.13,-7.01,-7.00,-5.32
258.00,-7.78,-2.47,-7.77,-2.47,0.75,0.72,0.17,-7.03,-7.03,-5.31
260.58,-8.05,-2.76,-8.05,-2.76,1.01,0.97,0.20,-7.05,-7.04,-5.29
263.19,-8.27,-3.01,-8.30,-3.03,1.26,1.22,0.24,-7.01,-7.04,-5.27
265.82,-8.55,-3.30,-8.53,-3.28,1.52,1.46,0.27,-7.03,-7.01,-5.25
268.48,-8.75,-3.53,-8.74,-3.52,1.78,1.70,0.30,-6.97,-6.96,-5.22
271.16,-8.90,-3.71,-8.93,-3.73,2.04,1.94,0.33,-6.86,-6.89,-5.20
273.87,-9.09,-3.91,-9.08,-3.90,2.30,2.17,0.35,-6.79,-6.78,-5.18
276.61,-9.22,-4.07,-9.21,-4.06,2.56,2.39,0.37,-6.67,-6.66,-5.15
279.38,-9.34,-4.22,-9.35,-4.22,2.82,2.61,0.39,-6.53,-6.53,-5.13
282.17,-9.45,-4.34,-9.49,-4.38,3.09,2.82,0.41,-6.36,-6.39,-5.11
284.99,-9.62,-4.55,-9.63,-4.55,3.37,3.03,0.43,-6.25,-6.25,-5.07
287.84,-9.76,-4.72,-9.72,-4.68,3.64,3.22,0.44,-6.12,-6.08,-5.05
290.72,-9.76,-4.75,-9.74,-4.73,3.89,3.40,0.45,-5.87,-5.84,-5.01
293.63,-9.67,-4.69,-9.69,-4.71,4.11,3.57,0.47,-5.56,-5.58,-4.98
296.57,-9.57,-4.63,-9.63,-4.68,4.30,3.73,0.48,-5.27,-5.33,-4.94
299.53,-9.59,-4.67,-9.55,-4.63,4.45,3.88,0.49,-5.14,-5.10,-4.93
302.53,-9.52,-4.62,-9.49,-4.60,4.55,4.01,0.50,-4.98,-4.94,-4.90
305.55,-9.37,-4.51,-9.46,-4.59,4.59,4.13,0.51,-4.78,-4.87,-4.86
308.61,-9.42,-4.58,-9.40,-4.56,4.59,4.23,0.52,-4.83,-4.81,-4.84
311.69,-9.41,-4.59,-9.35,-4.53,4.55,4.32,0.53,-4.86,-4.79,-4.82
314.81,-9.24,-4.46,-9.28,-4.49,4.47,4.39,0.54,-4.77,-4.81,-4.79
317.96,-9.14,-4.36,-9.16,-4.39,4.37,4.45,0.55,-4.77,-4.79,-4.78
321.14,-9.06,-4.30,-9.02,-4.26,4.27,4.49,0.56,-4.79,-4.75,-4.76
324.35,-8.91,-4.16,-8.92,-4.17,4.19,4.51,0.57,-4.72,-4.72,-4.75
327.59,-8.78,-4.05,-8.83,-4.10,4.12,4.52,0.58,-4.66,-4.71,-4.73
330.87,-8.76,-4.04,-8.74,-4.02,4.06,4.51,0.59,-4.70,-4.69,-4.72
334.18,-8.72,-4.01,-8.66,-3.94,4.01,4.49,0.60,-4.71,-4.65,-4.72
337.52,-8.57,-3.86,-8.63,-3.92,3.96,4.46,0.61,-4.61,-4.66,-4.71
340.90,-8.54,-3.85,-8.64,-3.94,3.92,4.42,0.63,-4.63,-4.72,-4.69
344.30,-8.71,-4.03,-8.59,-3.91,3.86,4.36,0.64,-4.85,-4.73,-4.68
347.75,-8.62,-3.95,-8.55,-3.88,3.80,4.30,0.65,-4.83,-4.76,-4.67
351.23,-8.33,-3.67,-8.49,-3.83,3.73,4.22,0.67,-4.60,-4.76,-4.66
354.74,-8.39,-3.73,-8.35,-3.69,3.68,4.14,0.69,-4.72,-4.68,-4.66
358.28,-8.32,-3.67,-8.18,-3.52,3.62,4.04,0.70,-4.71,-4.56,-4.66
361.87,-8.02,-3.37,-8.09,-3.44,3.55,3.95,0.72,-4.47,-4.54,-4.66
365.49,-7.87,-3.22,-8.06,-3.41,3.49,3.84,0.74,-4.38,-4.57,-4.65
369.14,-8.18,-3.53,-8.07,-3.42,3.43,3.73,0.76,-4.75,-4.64,-4.65
372.83,-8.22,-3.57,-8.09,-3.45,3.37,3.62,0.78,-4.85,-4.72,-4.65
376.56,-7.98,-3.33,-8.03,-3.39,3.30,3.50,0.80,-4.68,-4.73,-4.65
380.33,-7.83,-3.20,-7.93,-3.28,3.23,3.38,0.82,-4.60,-4.69,-4.63
384.13,-7.82,-3.18,-7.85,-3.20,3.18,3.26,0.84,-4.65,-4.67,-4.64
387.97,-7.88,-3.24,-7.72,-3.08,3.10,3.13,0.86,-4.79,-4.63,-4.64
391.85,-7.57,-2.93,-7.56,-2.91,2.99,3.01,0.88,-4.58,-4.57,-4.64
395.77,-7.25,-2.62,-7.43,-2.79,2.86,2.88,0.91,-4.39,-4.57,-4.64
399.73,-7.33,-2.70,-7.36,-2.72,2.72,2.75,0.93,-4.61,-4.64,-4.64
403.72,-7.47,-2.83,-7.36,-2.72,2.60,2.62,0.95,-4.87,-4.75,-4.65
407.76,-7.32,-2.67,-7.25,-2.61,2.50,2.50,0.97,-4.82,-4.75,-4.65
411.84,-7.00,-2.36,-7.00,-2.35,2.40,2.37,1.00,-4.60,-4.60,-4.64
415.96,-6.68,-2.03,-6.82,-2.17,2.30,2.24,1.02,-4.38,-4.51,-4.65
420.12,-6.68,-2.03,-6.76,-2.11,2.21,2.11,1.04,-4.48,-4.55,-4.65
424.32,-6.92,-2.28,-6.77,-2.12,2.10,1.99,1.06,-4.82,-4.66,-4.64
428.56,-6.76,-2.12,-6.75,-2.12,2.01,1.86,1.08,-4.75,-4.74,-4.64
432.85,-6.58,-1.96,-6.61,-1.99,1.92,1.74,1.10,-4.66,-4.69,-4.62
437.18,-6.41,-1.81,-6.41,-1.82,1.86,1.61,1.12,-4.55,-4.56,-4.60
441.55,-6.24,-1.68,-6.27,-1.70,1.79,1.49,1.13,-4.45,-4.48,-4.56
445.96,-6.17,-1.64,-6.16,-1.63,1.69,1.37,1.14,-4.48,-4.47,-4.53
450.42,-6.05,-1.55,-6.09,-1.59,1.55,1.25,1.15,-4.50,-4.53,-4.50
454.93,-6.00,-1.56,-5.97,-1.52,1.40,1.13,1.16,-4.61,-4.58,-4.44
