frequency,raw
20.00,-0.52
20.20,-0.45
20.40,-0.39
20.61,-0.33
20.81,-0.27
21.02,-0.21
21.23,-0.14
21.44,-0.08
21.66,-0.02
21.87,0.04
22.09,0.10
22.31,0.15
22.54,0.20
22.76,0.26
22.99,0.31
23.22,0.36
23.45,0.41
23.69,0.46
23.92,0.51
24.16,0.56
24.40,0.60
24.65,0.64
24.89,0.68
25.14,0.73
25.39,0.78
25.65,0.82
25.91,0.88
26.16,0.92
26.43,0.95
26.69,1.00
26.96,1.04
27.23,1.09
27.50,1.13
27.77,1.17
28.05,1.22
28.33,1.25
28.62,1.28
28.90,1.33
29.19,1.36
29.48,1.40
29.78,1.43
30.08,1.47
30.38,1.51
30.68,1.54
30.99,1.57
31.30,1.59
31.61,1.63
31.93,1.65
32.24,1.68
32.57,1.71
32.89,1.73
33.22,1.76
33.55,1.79
33.89,1.82
34.23,1.85
34.57,1.89
34.92,1.91
35.27,1.94
35.62,1.97
35.97,2.00
36.33,2.03
36.70,2.06
37.06,2.08
37.43,2.12
37.81,2.14
38.19,2.16
38.57,2.19
38.95,2.21
39.34,2.24
39.74,2.26
40.14,2.30
40.54,2.32
40.94,2.34
41.35,2.35
41.76,2.36
42.18,2.38
42.60,2.39
43.03,2.39
43.46,2.40
43.90,2.42
44.33,2.43
44.78,2.44
45.23,2.44
45.68,2.45
46.13,2.46
46.60,2.48
47.06,2.49
47.53,2.52
48.01,2.54
48.49,2.55
48.97,2.57
49.46,2.58
49.96,2.59
50.46,2.60
50.96,2.61
51.47,2.61
51.99,2.63
52.51,2.65
53.03,2.66
53.56,2.68
54.10,2.69
54.64,2.71
55.18,2.73
55.74,2.74
56.29,2.75
56.86,2.77
57.42,2.78
58.00,2.78
58.58,2.79
59.16,2.79
59.76,2.79
60.35,2.79
60.96,2.79
61.57,2.78
62.18,2.78
62.80,2.76
63.43,2.76
64.07,2.76
64.71,2.76
65.35,2.76
66.01,2.76
66.67,2.76
67.33,2.76
68.01,2.76
68.69,2.76
69.37,2.76
70.07,2.76
70.77,2.76
71.48,2.75
72.19,2.75
72.91,2.75
73.64,2.75
74.38,2.74
75.12,2.74
75.87,2.73
76.63,2.73
77.40,2.73
78.17,2.72
78.95,2.72
79.74,2.72
80.54,2.71
81.35,2.71
82.16,2.71
82.98,2.71
83.81,2.71
84.65,2.70
85.50,2.70
86.35,2.70
87.22,2.70
88.09,2.70
88.97,2.70
89.86,2.70
90.76,2.70
91.66,2.70
92.58,2.70
93.51,2.70
94.44,2.70
95.39,2.70
96.34,2.70
97.30,2.69
98.28,2.69
99.26,2.69
100.25,2.69
101.25,2.69
102.27,2.69
103.29,2.69
104.32,2.68
105.37,2.68
106.42,2.68
107.48,2.67
108.56,2.67
109.64,2.67
110.74,2.67
111.85,2.67
112.97,2.66
114.10,2.66
115.24,2.66
116.39,2.66
117.55,2.65
118.73,2.65
119.92,2.65
121.12,2.65
122.33,2.64
123.55,2.64
124.79,2.63
126.03,2.63
127.29,2.62
128.57,2.62
129.85,2.62
131.15,2.62
132.46,2.61
133.79,2.61
135.12,2.61
136.48,2.61
137.84,2.61
139.22,2.61
140.61,2.61
142.02,2.60
143.44,2.60
144.87,2.60
146.32,2.59
147.78,2.59
149.26,2.59
150.75,2.58
152.26,2.58
153.78,2.58
155.32,2.57
156.88,2.57
158.44,2.57
160.03,2.57
161.63,2.57
163.24,2.56
164.88,2.56
166.53,2.56
168.19,2.56
169.87,2.55
171.57,2.55
173.29,2.55
175.02,2.55
176.77,2.54
178.54,2.54
180.32,2.54
182.13,2.54
183.95,2.54
185.79,2.55
187.65,2.55
189.52,2.56
191.42,2.57
193.33,2.56
195.27,2.55
197.22,2.54
199.19,2.51
201.18,2.48
203.19,2.45
205.23,2.41
207.28,2.37
209.35,2.33
211.44,2.29
213.56,2.26
215.69,2.22
217.85,2.20
220.03,2.18
222.23,2.16
224.45,2.16
226.70,2.16
228.96,2.16
231.25,2.17
233.57,2.17
235.90,2.16
238.26,2.16
240.64,2.16
243.05,2.16
245.48,2.15
247.93,2.14
250.41,2.12
252.92,2.09
255.45,2.06
258.00,2.03
260.58,1.99
263.19,1.96
265.82,1.91
268.48,1.88
271.16,1.85
273.87,1.82
276.61,1.79
279.38,1.77
282.17,1.75
284.99,1.72
287.84,1.69
290.72,1.67
293.63,1.65
296.57,1.63
299.53,1.59
302.53,1.55
305.55,1.52
308.61,1.47
311.69,1.44
314.81,1.42
317.96,1.40
321.14,1.37
324.35,1.37
327.59,1.37
330.87,1.36
334.18,1.34
337.52,1.32
340.90,1.30
344.30,1.27
347.75,1.23
351.23,1.20
354.74,1.16
358.28,1.12
361.87,1.10
365.49,1.07
369.14,1.05
372.83,1.04
376.56,0.99
380.33,0.97
384.13,0.95
387.97,0.94
391.85,0.91
395.77,0.88
399.73,0.84
403.72,0.82
407.76,0.78
411.84,0.75
415.96,0.70
420.12,0.66
424.32,0.62
428.56,0.57
432.85,0.53
437.18,0.51
441.55,0.50
445.96,0.47
450.42,0.43
454.93,0.38
459.48,0.33
464.07,0.28
468.71,0.23
473.40,0.19
478.13,0.15
482.91,0.12
487.74,0.09
492.62,0.05
497.55,0.00
502.52,-0.05
507.55,-0.10
512.62,-0.14
517.75,-0.19
522.93,-0.22
528.16,-0.24
533.44,-0.25
538.77,-0.30
544.16,-0.35
549.60,-0.39
555.10,-0.44
560.65,-0.48
566.25,-0.51
571.92,-0.55
577.64,-0.57
583.41,-0.59
589.25,-0.63
595.14,-0.69
601.09,-0.73
607.10,-0.78
613.17,-0.84
619.30,-0.87
625.50,-0.90
631.75,-0.93
638.07,-0.97
644.45,-1.00
650.89,-1.05
657.40,-1.10
663.98,-1.15
670.62,-1.19
677.32,-1.22
684.10,-1.25
690.94,-1.28
697.85,-1.31
704.83,-1.36
711.87,-1.41
718.99,-1.46
726.18,-1.50
733.44,-1.55
740.78,-1.58
748.19,-1.61
755.67,-1.62
763.23,-1.65
770.86,-1.69
778.57,-1.73
786.35,-1.77
794.22,-1.80
802.16,-1.84
810.18,-1.87
818.28,-1.90
826.46,-1.92
834.73,-1.93
843.08,-1.95
851.51,-1.96
860.02,-1.98
868.62,-2.00
877.31,-2.03
886.08,-2.04
894.94,-2.05
903.89,-2.06
912.93,-2.06
922.06,-2.05
931.28,-2.05
940.59,-2.06
950.00,-2.05
959.50,-2.05
969.09,-2.04
978.78,-2.02
988.57,-1.98
998.46,-1.94
1008.44,-1.89
1018.53,-1.82
1028.71,-1.75
1039.00,-1.68
1049.39,-1.61
1059.88,-1.54
1070.48,-1.47
1081.19,-1.40
1092.00,-1.32
1102.92,-1.23
1113.95,-1.14
1125.09,-1.05
1136.34,-0.96
1147.70,-0.87
1159.18,-0.78
1170.77,-0.70
1182.48,-0.62
1194.30,-0.54
1206.25,-0.45
1218.31,-0.35
1230.49,-0.24
1242.80,-0.14
1255.22,-0.03
1267.78,0.07
1280.45,0.17
1293.26,0.28
1306.19,0.36
1319.25,0.45
1332.45,0.53
1345.77,0.61
1359.23,0.69
1372.82,0.74
1386.55,0.80
1400.41,0.84
1414.42,0.87
1428.56,0.89
1442.85,0.92
1457.28,0.95
1471.85,0.97
1486.57,0.99
1501.43,1.01
1516.45,1.03
1531.61,1.06
1546.93,1.08
1562.40,1.08
1578.02,1.08
1593.80,1.07
1609.74,1.06
1625.84,1.05
1642.10,1.05
1658.52,1.03
1675.10,1.00
1691.85,0.97
1708.77,0.93
1725.86,0.90
1743.12,0.85
1760.55,0.79
1778.15,0.76
1795.94,0.70
1813.90,0.66
1832.03,0.61
1850.36,0.55
1868.86,0.50
1887.55,0.45
1906.42,0.38
1925.49,0.32
1944.74,0.26
1964.19,0.20
1983.83,0.14
2003.67,0.07
2023.71,0.00
2043.94,-0.07
2064.38,-0.16
2085.03,-0.24
2105.88,-0.32
2126.94,-0.42
2148.20,-0.52
2169.69,-0.60
2191.38,-0.69
2213.30,-0.79
2235.43,-0.89
2257.78,-0.98
2280.36,-1.07
2303.17,-1.16
2326.20,-1.27
2349.46,-1.36
2372.95,-1.46
2396.68,-1.56
2420.65,-1.66
2444.86,-1.75
2469.31,-1.85
2494.00,-1.94
2518.94,-2.02
2544.13,-2.09
2569.57,-2.17
2595.27,-2.25
2621.22,-2.31
2647.43,-2.36
2673.90,-2.40
2700.64,-2.42
2727.65,-2.43
2754.93,-2.43
2782.48,-2.38
2810.30,-2.33
2838.40,-2.26
2866.79,-2.16
2895.46,-2.06
2924.41,-1.93
2953.65,-1.78
2983.19,-1.63
3013.02,-1.47
3043.15,-1.31
3073.58,-1.14
3104.32,-0.99
3135.36,-0.86
3166.72,-0.75
3198.38,-0.63
3230.37,-0.55
3262.67,-0.47
3295.30,-0.43
3328.25,-0.40
3361.53,-0.41
3395.15,-0.43
3429.10,-0.50
3463.39,-0.59
3498.03,-0.72
3533.01,-0.87
3568.34,-1.07
3604.02,-1.30
3640.06,-1.57
3676.46,-1.87
3713.22,-2.23
3750.36,-2.59
3787.86,-2.99
3825.74,-3.43
3864.00,-3.87
3902.64,-4.36
3941.66,-4.87
3981.08,-5.39
4020.89,-5.91
4061.10,-6.46
4101.71,-7.01
4142.73,-7.55
4184.15,-8.09
4226.00,-8.61
4268.26,-9.10
4310.94,-9.57
4354.05,-10.00
4397.59,-10.38
4441.56,-10.71
4485.98,-10.97
4530.84,-11.17
4576.15,-11.32
4621.91,-11.41
4668.13,-11.44
4714.81,-11.42
4761.96,-11.36
4809.58,-11.25
4857.67,-11.11
4906.25,-10.93
4955.31,-10.74
5004.87,-10.54
5054.91,-10.30
5105.46,-10.05
5156.52,-9.78
5208.08,-9.53
5260.16,-9.26
5312.77,-9.01
5365.89,-8.77
5419.55,-8.53
5473.75,-8.31
5528.49,-8.12
5583.77,-7.94
5639.61,-7.76
5696.00,-7.63
5752.96,-7.51
5810.49,-7.39
5868.60,-7.29
5927.28,-7.20
5986.56,-7.12
6046.42,-7.03
6106.89,-6.96
6167.96,-6.88
6229.64,-6.81
6291.93,-6.76
6354.85,-6.75
6418.40,-6.74
6482.58,-6.78
6547.41,-6.85
6612.88,-6.92
6679.01,-7.02
6745.80,-7.13
6813.26,-7.24
6881.39,-7.34
6950.21,-7.43
7019.71,-7.48
7089.91,-7.50
7160.81,-7.46
7232.41,-7.38
7304.74,-7.25
7377.79,-7.08
7451.56,-6.85
7526.08,-6.58
7601.34,-6.28
7677.35,-5.97
7754.13,-5.67
7831.67,-5.40
7909.98,-5.17
7989.08,-4.97
8068.98,-4.84
8149.67,-4.79
8231.16,-4.80
8313.47,-4.89
8396.61,-5.04
8480.57,-5.26
8565.38,-5.53
8651.03,-5.86
8737.54,-6.24
8824.92,-6.63
8913.17,-7.03
9002.30,-7.42
9092.32,-7.82
9183.25,-8.21
9275.08,-8.57
9367.83,-8.92
9461.51,-9.28
9556.12,-9.64
9651.68,-10.00
9748.20,-10.35
9845.68,-10.74
9944.14,-11.12
10043.58,-11.52
10144.02,-11.92
10245.46,-12.31
10347.91,-12.67
10451.39,-13.03
10555.91,-13.35
10661.46,-13.65
10768.08,-13.89
10875.76,-14.12
10984.52,-14.31
11094.36,-14.45
11205.31,-14.55
11317.36,-14.60
11430.53,-14.60
11544.84,-14.59
11660.29,-14.54
11776.89,-14.48
11894.66,-14.38
12013.60,-14.26
12133.74,-14.11
12255.08,-13.96
12377.63,-13.78
12501.41,-13.59
12626.42,-13.42
12752.68,-13.23
12880.21,-13.07
13009.01,-12.96
13139.10,-12.92
13270.49,-12.99
13403.20,-13.13
13537.23,-13.36
13672.60,-13.68
13809.33,-14.09
13947.42,-14.61
14086.90,-15.19
14227.77,-15.83
14370.04,-16.52
14513.74,-17.26
14658.88,-18.05
14805.47,-18.87
14953.52,-19.73
15103.06,-20.63
15254.09,-21.55
15406.63,-22.50
15560.70,-23.47
15716.30,-24.48
15873.47,-25.53
16032.20,-26.63
16192.52,-27.78
16354.45,-28.93
16517.99,-30.08
16683.17,-31.19
16850.01,-32.24
17018.51,-33.21
17188.69,-34.08
17360.58,-34.83
17534.18,-35.49
17709.53,-36.09
17886.62,-36.63
18065.49,-37.18
18246.14,-37.75
18428.60,-38.30
18612.89,-38.82
18799.02,-39.31
18987.01,-39.76
19176.88,-40.18
19368.65,-40.56
19562.33,-40.89
19757.96,-41.20
19955.54,-41.47
