frequency,raw,error,smoothed,error_smoothed,equalization,parametric_eq,fixed_band_eq,equalized_raw,equalized_smoothed,target
20.00,3.35,1.45,3.35,1.45,-1.46,-1.32,-0.90,1.89,1.89,1.90
20.20,3.37,1.43,3.37,1.43,-1.43,-1.34,-0.92,1.93,1.93,1.94
20.40,3.39,1.41,3.39,1.42,-1.42,-1.36,-0.95,1.97,1.97,1.98
20.61,3.42,1.42,3.42,1.41,-1.41,-1.37,-0.97,2.01,2.01,2.00
20.81,3.44,1.40,3.44,1.40,-1.40,-1.39,-1.00,2.04,2.04,2.04
21.02,3.47,1.39,3.47,1.40,-1.40,-1.41,-1.03,2.07,2.07,2.08
21.23,3.50,1.40,3.50,1.40,-1.40,-1.43,-1.06,2.10,2.10,2.10
21.44,3.53,1.41,3.53,1.41,-1.41,-1.45,-1.09,2.12,2.12,2.12
21.66,3.56,1.42,3.56,1.43,-1.42,-1.47,-1.12,2.14,2.14,2.13
21.87,3.59,1.44,3.59,1.44,-1.44,-1.49,-1.15,2.15,2.15,2.14
22.09,3.62,1.46,3.62,1.46,-1.47,-1.51,-1.18,2.15,2.15,2.16
22.31,3.65,1.48,3.65,1.48,-1.50,-1.53,-1.21,2.15,2.16,2.17
22.54,3.70,1.52,3.70,1.52,-1.53,-1.55,-1.25,2.17,2.17,2.17
22.76,3.74,1.56,3.74,1.56,-1.56,-1.57,-1.28,2.18,2.18,2.18
22.99,3.79,1.61,3.79,1.60,-1.59,-1.59,-1.31,2.19,2.19,2.18
23.22,3.83,1.64,3.83,1.64,-1.62,-1.61,-1.35,2.20,2.20,2.19
23.45,3.87,1.67,3.87,1.67,-1.65,-1.62,-1.39,2.22,2.22,2.20
23.69,3.90,1.69,3.90,1.68,-1.67,-1.64,-1.42,2.23,2.23,2.21
23.92,3.93,1.70,3.92,1.69,-1.69,-1.66,-1.46,2.24,2.24,2.23
24.16,3.94,1.69,3.94,1.70,-1.70,-1.68,-1.50,2.24,2.24,2.25
24.40,3.96,1.70,3.96,1.70,-1.71,-1.70,-1.54,2.25,2.25,2.26
24.65,3.98,1.72,3.98,1.71,-1.72,-1.71,-1.58,2.26,2.26,2.26
24.89,4.00,1.72,4.00,1.72,-1.73,-1.73,-1.62,2.27,2.27,2.28
25.14,4.02,1.73,4.02,1.73,-1.74,-1.75,-1.66,2.28,2.28,2.29
25.39,4.05,1.75,4.05,1.75,-1.75,-1.77,-1.70,2.30,2.30,2.30
25.65,4.07,1.76,4.07,1.76,-1.76,-1.78,-1.74,2.31,2.31,2.31
25.91,4.10,1.78,4.10,1.78,-1.77,-1.80,-1.78,2.33,2.32,2.32
26.16,4.12,1.79,4.12,1.79,-1.78,-1.81,-1.82,2.33,2.33,2.33
26.43,4.14,1.80,4.14,1.80,-1.80,-1.83,-1.86,2.34,2.34,2.34
26.69,4.16,1.80,4.16,1.81,-1.81,-1.84,-1.90,2.35,2.35,2.36
26.96,4.18,1.81,4.18,1.82,-1.83,-1.86,-1.93,2.35,2.36,2.36
27.23,4.21,1.83,4.21,1.83,-1.84,-1.87,-1.97,2.37,2.37,2.37
27.50,4.24,1.85,4.24,1.85,-1.86,-1.89,-2.01,2.38,2.38,2.39
27.77,4.27,1.88,4.27,1.87,-1.87,-1.90,-2.04,2.40,2.40,2.39
28.05,4.30,1.89,4.30,1.89,-1.89,-1.91,-2.07,2.41,2.41,2.41
28.33,4.33,1.92,4.33,1.91,-1.90,-1.93,-2.11,2.43,2.43,2.41
28.62,4.35,1.92,4.35,1.92,-1.91,-1.94,-2.13,2.44,2.44,2.43
28.90,4.36,1.92,4.36,1.92,-1.91,-1.95,-2.16,2.45,2.45,2.44
29.19,4.36,1.91,4.36,1.91,-1.91,-1.96,-2.19,2.45,2.45,2.45
29.48,4.37,1.90,4.37,1.90,-1.91,-1.97,-2.21,2.46,2.46,2.47
29.78,4.38,1.90,4.38,1.90,-1.91,-1.98,-2.23,2.47,2.47,2.48
30.08,4.38,1.89,4.38,1.90,-1.90,-1.99,-2.25,2.48,2.48,2.49
30.38,4.40,1.90,4.39,1.90,-1.91,-2.00,-2.26,2.49,2.49,2.49
30.68,4.41,1.91,4.41,1.91,-1.91,-2.01,-2.27,2.50,2.50,2.50
30.99,4.43,1.92,4.43,1.92,-1.92,-2.02,-2.28,2.51,2.51,2.51
31.30,4.46,1.94,4.46,1.93,-1.94,-2.02,-2.29,2.52,2.52,2.52
31.61,4.49,1.95,4.49,1.95,-1.96,-2.03,-2.29,2.53,2.53,2.54
31.93,4.52,1.98,4.52,1.98,-1.98,-2.04,-2.29,2.54,2.54,2.54
32.24,4.55,2.00,4.55,2.00,-2.00,-2.04,-2.29,2.55,2.55,2.55
32.57,4.58,2.02,4.58,2.02,-2.02,-2.05,-2.28,2.56,2.56,2.56
32.89,4.61,2.03,4.61,2.04,-2.04,-2.06,-2.28,2.57,2.57,2.57
33.22,4.64,2.07,4.64,2.06,-2.06,-2.06,-2.27,2.58,2.58,2.57
33.55,4.67,2.08,4.67,2.08,-2.08,-2.07,-2.25,2.59,2.59,2.59
33.89,4.69,2.10,4.69,2.09,-2.09,-2.07,-2.24,2.60,2.60,2.59
34.23,4.70,2.09,4.70,2.10,-2.10,-2.07,-2.22,2.60,2.61,2.61
34.57,4.72,2.11,4.71,2.10,-2.10,-2.08,-2.20,2.62,2.61,2.61
34.92,4.72,2.10,4.72,2.10,-2.10,-2.08,-2.18,2.62,2.62,2.61
35.27,4.72,2.10,4.72,2.10,-2.10,-2.08,-2.16,2.62,2.62,2.62
35.62,4.72,2.10,4.72,2.09,-2.09,-2.08,-2.14,2.63,2.62,2.62
35.97,4.71,2.09,4.71,2.08,-2.09,-2.09,-2.12,2.62,2.62,2.62
36.33,4.70,2.06,4.70,2.07,-2.08,-2.09,-2.10,2.62,2.62,2.64
36.70,4.70,2.07,4.70,2.07,-2.08,-2.09,-2.07,2.62,2.62,2.63
37.06,4.70,2.08,4.70,2.07,-2.07,-2.09,-2.05,2.63,2.63,2.62
37.43,4.70,2.07,4.70,2.07,-2.07,-2.09,-2.02,2.63,2.63,2.63
37.81,4.70,2.07,4.70,2.07,-2.07,-2.09,-2.00,2.63,2.63,2.63
38.19,4.70,2.08,4.70,2.07,-2.07,-2.09,-1.98,2.63,2.63,2.62
38.57,4.70,2.07,4.70,2.07,-2.08,-2.09,-1.95,2.62,2.62,2.63
38.95,4.70,2.08,4.70,2.08,-2.08,-2.09,-1.93,2.62,2.62,2.62
39.34,4.70,2.08,4.70,2.08,-2.09,-2.09,-1.91,2.61,2.61,2.62
39.74,4.70,2.10,4.70,2.09,-2.09,-2.09,-1.89,2.61,2.61,2.60
40.14,4.70,2.09,4.70,2.10,-2.09,-2.08,-1.87,2.61,2.61,2.61
40.54,4.70,2.10,4.70,2.10,-2.10,-2.08,-1.85,2.60,2.60,2.60
40.94,4.70,2.10,4.70,2.10,-2.10,-2.08,-1.83,2.60,2.60,2.60
41.35,4.70,2.10,4.70,2.10,-2.10,-2.08,-1.81,2.60,2.60,2.60
41.76,4.70,2.10,4.70,2.10,-2.10,-2.08,-1.80,2.60,2.60,2.59
42.18,4.70,2.10,4.70,2.10,-2.10,-2.07,-1.78,2.60,2.60,2.60
42.60,4.70,2.10,4.70,2.10,-2.10,-2.07,-1.77,2.60,2.60,2.60
43.03,4.70,2.10,4.70,2.10,-2.10,-2.07,-1.76,2.60,2.60,2.60
43.46,4.70,2.10,4.70,2.10,-2.10,-2.07,-1.75,2.60,2.60,2.60
43.90,4.70,2.11,4.70,2.11,-2.11,-2.06,-1.74,2.59,2.59,2.59
44.33,4.70,2.11,4.70,2.11,-2.11,-2.06,-1.73,2.59,2.59,2.59
44.78,4.70,2.12,4.70,2.11,-2.12,-2.06,-1.72,2.58,2.58,2.58
45.23,4.70,2.11,4.70,2.12,-2.12,-2.06,-1.72,2.58,2.58,2.59
45.68,4.71,2.13,4.71,2.12,-2.12,-2.05,-1.71,2.59,2.59,2.58
46.13,4.72,2.13,4.72,2.12,-2.12,-2.05,-1.71,2.60,2.60,2.59
46.60,4.72,2.12,4.72,2.13,-2.12,-2.05,-1.71,2.60,2.60,2.60
47.06,4.72,2.12,4.72,2.12,-2.11,-2.04,-1.71,2.61,2.61,2.60
47.53,4.71,2.11,4.71,2.10,-2.10,-2.04,-1.71,2.61,2.61,2.60
48.01,4.69,2.08,4.69,2.09,-2.09,-2.04,-1.71,2.60,2.60,2.61
48.49,4.67,2.06,4.67,2.07,-2.07,-2.03,-1.72,2.60,2.60,2.61
48.97,4.65,2.06,4.65,2.05,-2.05,-2.03,-1.72,2.60,2.59,2.59
49.46,4.62,2.04,4.62,2.04,-2.03,-2.03,-1.73,2.59,2.59,2.58
49.96,4.59,2.02,4.59,2.01,-2.01,-2.02,-1.74,2.58,2.58,2.57
50.46,4.56,1.98,4.56,1.99,-1.99,-2.02,-1.74,2.57,2.57,2.58
50.96,4.53,1.96,4.53,1.96,-1.96,-2.01,-1.75,2.57,2.57,2.57
51.47,4.50,1.95,4.50,1.94,-1.94,-2.01,-1.76,2.56,2.56,2.55
51.99,4.47,1.92,4.47,1.92,-1.91,-2.01,-1.77,2.56,2.56,2.55
52.51,4.44,1.88,4.44,1.89,-1.89,-2.00,-1.78,2.55,2.55,2.56
53.03,4.42,1.87,4.41,1.87,-1.87,-2.00,-1.79,2.55,2.54,2.55
53.56,4.39,1.85,4.39,1.86,-1.86,-2.00,-1.81,2.53,2.53,2.54
54.10,4.37,1.85,4.37,1.85,-1.86,-1.99,-1.82,2.51,2.51,2.52
54.64,4.36,1.85,4.36,1.85,-1.86,-1.99,-1.83,2.50,2.50,2.51
55.18,4.36,1.86,4.36,1.86,-1.87,-1.99,-1.84,2.49,2.48,2.50
55.74,4.36,1.88,4.36,1.88,-1.89,-1.98,-1.85,2.47,2.47,2.48
56.29,4.37,1.89,4.37,1.91,-1.91,-1.98,-1.86,2.46,2.47,2.47
56.86,4.39,1.94,4.39,1.93,-1.93,-1.98,-1.88,2.46,2.46,2.45
57.42,4.40,1.97,4.39,1.96,-1.94,-1.97,-1.89,2.46,2.45,2.43
58.00,4.39,1.97,4.39,1.97,-1.96,-1.97,-1.90,2.43,2.44,2.42
58.58,4.38,1.97,4.38,1.98,-1.97,-1.97,-1.91,2.41,2.42,2.41
59.16,4.37,1.98,4.37,1.97,-1.97,-1.96,-1.91,2.39,2.39,2.39
59.76,4.35,1.97,4.35,1.97,-1.98,-1.96,-1.92,2.37,2.37,2.38
60.35,4.32,1.96,4.32,1.97,-1.98,-1.96,-1.93,2.34,2.35,2.35
60.96,4.30,1.97,4.30,1.97,-1.97,-1.95,-1.93,2.33,2.32,2.33
61.57,4.27,1.97,4.27,1.97,-1.97,-1.95,-1.94,2.30,2.30,2.30
62.18,4.24,1.97,4.24,1.97,-1.97,-1.95,-1.94,2.27,2.27,2.27
62.80,4.21,1.97,4.21,1.97,-1.97,-1.94,-1.94,2.24,2.24,2.24
63.43,4.18,1.96,4.18,1.97,-1.97,-1.94,-1.94,2.21,2.22,2.22
64.07,4.16,1.97,4.16,1.97,-1.96,-1.94,-1.94,2.19,2.19,2.19
64.71,4.14,1.97,4.14,1.97,-1.96,-1.94,-1.94,2.18,2.17,2.17
65.35,4.11,1.96,4.11,1.96,-1.96,-1.93,-1.94,2.15,2.15,2.14
66.01,4.08,1.95,4.08,1.96,-1.96,-1.93,-1.94,2.12,2.12,2.13
66.67,4.05,1.95,4.05,1.95,-1.95,-1.93,-1.93,2.10,2.10,2.10
67.33,4.02,1.95,4.02,1.95,-1.95,-1.92,-1.93,2.07,2.07,2.07
68.01,3.99,1.94,3.99,1.95,-1.95,-1.92,-1.92,2.04,2.04,2.05
68.69,3.96,1.94,3.96,1.94,-1.94,-1.92,-1.91,2.02,2.02,2.02
69.37,3.94,1.94,3.94,1.94,-1.94,-1.92,-1.91,2.00,1.99,2.00
70.07,3.91,1.94,3.91,1.94,-1.94,-1.92,-1.90,1.97,1.97,1.97
70.77,3.89,1.94,3.89,1.94,-1.94,-1.91,-1.89,1.95,1.95,1.95
71.48,3.87,1.94,3.87,1.94,-1.94,-1.91,-1.88,1.93,1.93,1.93
72.19,3.85,1.94,3.85,1.94,-1.94,-1.91,-1.87,1.91,1.91,1.90
72.91,3.82,1.94,3.82,1.94,-1.93,-1.91,-1.87,1.89,1.89,1.88
73.64,3.79,1.93,3.79,1.93,-1.92,-1.90,-1.86,1.87,1.87,1.86
74.38,3.76,1.92,3.76,1.91,-1.91,-1.90,-1.85,1.85,1.85,1.84
75.12,3.72,1.89,3.72,1.89,-1.89,-1.90,-1.84,1.83,1.83,1.82
75.87,3.68,1.86,3.68,1.87,-1.87,-1.90,-1.84,1.80,1.81,1.82
76.63,3.65,1.85,3.65,1.85,-1.85,-1.90,-1.83,1.79,1.79,1.80
77.40,3.62,1.83,3.62,1.83,-1.83,-1.90,-1.83,1.79,1.78,1.79
78.17,3.59,1.81,3.59,1.81,-1.81,-1.90,-1.82,1.78,1.78,1.77
78.95,3.57,1.79,3.57,1.80,-1.79,-1.90,-1.82,1.78,1.78,1.78
79.74,3.55,1.78,3.55,1.78,-1.77,-1.89,-1.82,1.77,1.77,1.77
80.54,3.52,1.76,3.52,1.76,-1.76,-1.89,-1.82,1.76,1.76,1.76
81.35,3.49,1.74,3.49,1.74,-1.74,-1.89,-1.82,1.75,1.75,1.75
82.16,3.46,1.73,3.46,1.73,-1.73,-1.89,-1.82,1.73,1.73,1.73
82.98,3.44,1.71,3.44,1.71,-1.72,-1.89,-1.82,1.72,1.72,1.73
83.81,3.42,1.71,3.42,1.70,-1.71,-1.89,-1.83,1.71,1.71,1.71
84.65,3.41,1.70,3.41,1.70,-1.71,-1.89,-1.83,1.70,1.70,1.71
85.50,3.40,1.70,3.40,1.70,-1.71,-1.89,-1.84,1.69,1.69,1.70
86.35,3.40,1.71,3.40,1.71,-1.71,-1.89,-1.85,1.69,1.69,1.69
87.22,3.40,1.71,3.40,1.71,-1.71,-1.89,-1.86,1.69,1.68,1.69
88.09,3.40,1.73,3.40,1.72,-1.72,-1.90,-1.87,1.68,1.68,1.67
88.97,3.39,1.71,3.39,1.72,-1.71,-1.90,-1.88,1.67,1.68,1.67
89.86,3.38,1.72,3.37,1.72,-1.71,-1.90,-1.89,1.67,1.67,1.66
90.76,3.35,1.71,3.35,1.70,-1.70,-1.90,-1.91,1.65,1.66,1.64
91.66,3.33,1.68,3.33,1.69,-1.68,-1.90,-1.92,1.65,1.65,1.65
92.58,3.30,1.67,3.30,1.66,-1.66,-1.90,-1.94,1.64,1.64,1.63
93.51,3.27,1.64,3.27,1.63,-1.63,-1.91,-1.96,1.64,1.64,1.63
94.44,3.23,1.60,3.23,1.61,-1.61,-1.91,-1.98,1.62,1.62,1.62
95.39,3.19,1.57,3.19,1.58,-1.58,-1.91,-2.00,1.61,1.61,1.62
96.34,3.15,1.56,3.15,1.55,-1.56,-1.92,-2.03,1.59,1.59,1.59
97.30,3.12,1.54,3.12,1.54,-1.54,-1.92,-2.05,1.58,1.58,1.58
98.28,3.10,1.53,3.10,1.53,-1.54,-1.93,-2.08,1.56,1.56,1.57
99.26,3.09,1.54,3.09,1.53,-1.54,-1.93,-2.10,1.55,1.55,1.55
100.25,3.09,1.55,3.09,1.55,-1.56,-1.94,-2.13,1.53,1.53,1.54
101.25,3.10,1.57,3.10,1.58,-1.58,-1.94,-2.16,1.52,1.52,1.52
102.27,3.12,1.61,3.12,1.61,-1.62,-1.95,-2.19,1.50,1.50,1.51
103.29,3.14,1.66,3.14,1.66,-1.66,-1.95,-2.22,1.47,1.48,1.48
104.32,3.18,1.71,3.18,1.72,-1.72,-1.96,-2.25,1.46,1.46,1.47
105.37,3.22,1.78,3.22,1.78,-1.78,-1.97,-2.28,1.44,1.44,1.44
106.42,3.26,1.84,3.26,1.84,-1.84,-1.98,-2.31,1.42,1.42,1.42
107.48,3.29,1.90,3.29,1.91,-1.90,-1.98,-2.34,1.39,1.39,1.39
108.56,3.32,1.97,3.32,1.97,-1.96,-1.99,-2.37,1.36,1.36,1.35
109.64,3.35,2.03,3.35,2.03,-2.03,-2.00,-2.40,1.32,1.32,1.32
110.74,3.37,2.09,3.37,2.09,-2.09,-2.01,-2.43,1.28,1.28,1.28
111.85,3.39,2.14,3.39,2.14,-2.15,-2.02,-2.46,1.24,1.24,1.25
112.97,3.41,2.21,3.41,2.20,-2.20,-2.04,-2.49,1.21,1.21,1.20
114.10,3.42,2.25,3.42,2.26,-2.25,-2.05,-2.51,1.17,1.17,1.16
115.24,3.43,2.30,3.43,2.30,-2.30,-2.06,-2.54,1.13,1.13,1.13
116.39,3.43,2.35,3.43,2.35,-2.34,-2.07,-2.57,1.09,1.09,1.08
117.55,3.42,2.38,3.42,2.38,-2.38,-2.09,-2.59,1.04,1.04,1.04
118.73,3.41,2.42,3.41,2.41,-2.42,-2.10,-2.61,0.99,0.99,0.99
119.92,3.40,2.44,3.40,2.45,-2.45,-2.12,-2.63,0.95,0.95,0.96
121.12,3.40,2.48,3.40,2.48,-2.48,-2.14,-2.65,0.92,0.92,0.92
122.33,3.40,2.52,3.40,2.51,-2.51,-2.15,-2.67,0.88,0.88,0.88
123.55,3.40,2.54,3.40,2.55,-2.55,-2.17,-2.68,0.85,0.85,0.86
124.79,3.40,2.58,3.40,2.58,-2.58,-2.19,-2.70,0.82,0.82,0.82
126.03,3.40,2.61,3.40,2.61,-2.62,-2.21,-2.71,0.78,0.78,0.79
127.29,3.40,2.65,3.40,2.65,-2.65,-2.23,-2.72,0.75,0.75,0.75
128.57,3.40,2.69,3.40,2.69,-2.68,-2.25,-2.72,0.72,0.72,0.71
129.85,3.40,2.71,3.40,2.72,-2.71,-2.28,-2.73,0.69,0.69,0.68
131.15,3.40,2.75,3.40,2.75,-2.74,-2.30,-2.73,0.66,0.66,0.65
132.46,3.40,2.77,3.40,2.77,-2.77,-2.33,-2.74,0.63,0.63,0.63
133.79,3.40,2.79,3.40,2.80,-2.80,-2.35,-2.74,0.60,0.60,0.61
135.12,3.40,2.82,3.40,2.82,-2.82,-2.38,-2.74,0.58,0.58,0.58
136.48,3.40,2.84,3.40,2.84,-2.85,-2.41,-2.73,0.55,0.55,0.55
137.84,3.40,2.86,3.40,2.87,-2.87,-2.44,-2.73,0.53,0.53,0.53
139.22,3.40,2.90,3.40,2.90,-2.89,-2.47,-2.73,0.51,0.51,0.49
140.61,3.40,2.92,3.40,2.92,-2.92,-2.50,-2.72,0.48,0.48,0.48
142.02,3.40,2.93,3.40,2.94,-2.94,-2.54,-2.72,0.46,0.46,0.47
143.44,3.40,2.96,3.40,2.96,-2.96,-2.57,-2.72,0.44,0.44,0.44
144.87,3.40,2.99,3.40,2.98,-2.98,-2.61,-2.71,0.41,0.41,0.41
146.32,3.40,3.01,3.40,3.01,-3.01,-2.65,-2.71,0.39,0.39,0.39
147.78,3.40,3.03,3.40,3.03,-3.04,-2.69,-2.70,0.36,0.36,0.37
149.26,3.40,3.06,3.40,3.06,-3.06,-2.73,-2.70,0.33,0.33,0.34
150.75,3.40,3.09,3.40,3.09,-3.10,-2.77,-2.70,0.30,0.30,0.31
152.26,3.40,3.13,3.40,3.12,-3.13,-2.81,-2.70,0.27,0.27,0.27
153.78,3.41,3.16,3.41,3.16,-3.16,-2.86,-2.70,0.24,0.25,0.25
155.32,3.42,3.20,3.42,3.20,-3.20,-2.90,-2.70,0.22,0.22,0.22
156.88,3.43,3.23,3.43,3.24,-3.23,-2.95,-2.70,0.20,0.19,0.19
158.44,3.43,3.27,3.43,3.27,-3.26,-3.00,-2.71,0.17,0.16,0.16
160.03,3.42,3.30,3.42,3.30,-3.29,-3.05,-2.71,0.13,0.13,0.12
161.63,3.41,3.32,3.41,3.32,-3.31,-3.10,-2.72,0.10,0.09,0.09
163.24,3.39,3.34,3.39,3.34,-3.33,-3.15,-2.73,0.06,0.06,0.05
164.88,3.37,3.34,3.37,3.35,-3.34,-3.20,-2.74,0.03,0.03,0.03
166.53,3.35,3.36,3.35,3.35,-3.35,-3.25,-2.75,-0.00,-0.01,-0.01
168.19,3.32,3.36,3.32,3.36,-3.36,-3.31,-2.77,-0.04,-0.04,-0.04
169.87,3.29,3.37,3.29,3.37,-3.37,-3.36,-2.79,-0.08,-0.08,-0.08
171.57,3.26,3.37,3.26,3.37,-3.37,-3.42,-2.81,-0.11,-0.12,-0.11
173.29,3.22,3.38,3.22,3.38,-3.38,-3.47,-2.83,-0.16,-0.16,-0.16
175.02,3.19,3.39,3.19,3.39,-3.39,-3.53,-2.86,-0.21,-0.20,-0.20
176.77,3.16,3.40,3.16,3.41,-3.41,-3.59,-2.88,-0.25,-0.25,-0.24
178.54,3.14,3.44,3.14,3.43,-3.43,-3.64,-2.91,-0.29,-0.29,-0.30
180.32,3.11,3.45,3.11,3.45,-3.45,-3.69,-2.94,-0.34,-0.34,-0.34
182.13,3.09,3.48,3.09,3.48,-3.48,-3.75,-2.98,-0.39,-0.39,-0.39
183.95,3.07,3.51,3.07,3.51,-3.51,-3.80,-3.01,-0.44,-0.44,-0.44
185.79,3.06,3.55,3.06,3.55,-3.55,-3.85,-3.05,-0.49,-0.49,-0.49
187.65,3.05,3.59,3.05,3.59,-3.60,-3.90,-3.09,-0.55,-0.54,-0.54
189.52,3.06,3.64,3.06,3.64,-3.64,-3.95,-3.13,-0.59,-0.59,-0.58
191.42,3.06,3.68,3.06,3.69,-3.70,-3.99,-3.17,-0.64,-0.63,-0.63
193.33,3.08,3.75,3.08,3.74,-3.75,-4.04,-3.22,-0.67,-0.67,-0.67
195.27,3.09,3.80,3.09,3.80,-3.80,-4.08,-3.27,-0.71,-0.71,-0.71
197.22,3.10,3.86,3.10,3.86,-3.85,-4.11,-3.31,-0.75,-0.75,-0.76
199.19,3.10,3.91,3.10,3.91,-3.89,-4.14,-3.36,-0.80,-0.79,-0.81
201.18,3.10,3.95,3.10,3.95,-3.93,-4.17,-3.41,-0.83,-0.84,-0.85
203.19,3.09,3.97,3.09,3.97,-3.97,-4.19,-3.47,-0.88,-0.88,-0.88
205.23,3.07,3.99,3.07,3.99,-3.99,-4.21,-3.52,-0.92,-0.92,-0.92
207.28,3.05,4.00,3.05,4.01,-4.01,-4.23,-3.57,-0.96,-0.97,-0.95
209.35,3.02,4.02,3.02,4.02,-4.03,-4.24,-3.62,-1.01,-1.01,-1.00
211.44,3.00,4.05,3.00,4.04,-4.04,-4.24,-3.67,-1.05,-1.05,-1.05
213.56,2.97,4.05,2.97,4.05,-4.05,-4.24,-3.73,-1.09,-1.08,-1.08
215.69,2.95,4.06,2.95,4.06,-4.06,-4.23,-3.78,-1.11,-1.11,-1.11
217.85,2.92,4.06,2.92,4.07,-4.07,-4.22,-3.83,-1.15,-1.14,-1.14
220.03,2.90,4.08,2.89,4.07,-4.06,-4.20,-3.87,-1.16,-1.17,-1.18
222.23,2.86,4.07,2.86,4.07,-4.06,-4.18,-3.92,-1.20,-1.20,-1.21
224.45,2.82,4.05,2.82,4.05,-4.04,-4.15,-3.96,-1.22,-1.22,-1.23
226.70,2.78,4.02,2.78,4.03,-4.03,-4.11,-4.00,-1.25,-1.25,-1.24
228.96,2.74,4.01,2.74,4.00,-4.00,-4.08,-4.03,-1.27,-1.27,-1.27
231.25,2.70,3.98,2.70,3.98,-3.98,-4.03,-4.06,-1.28,-1.28,-1.28
233.57,2.66,3.95,2.66,3.95,-3.96,-3.99,-4.09,-1.30,-1.30,-1.29
235.90,2.62,3.92,2.62,3.92,-3.93,-3.93,-4.11,-1.31,-1.31,-1.30
238.26,2.59,3.90,2.59,3.90,-3.91,-3.88,-4.13,-1.32,-1.32,-1.31
240.64,2.57,3.88,2.57,3.88,-3.89,-3.82,-4.14,-1.32,-1.32,-1.31
243.05,2.56,3.86,2.56,3.87,-3.86,-3.76,-4.14,-1.30,-1.31,-1.31
245.48,2.54,3.85,2.54,3.85,-3.83,-3.69,-4.14,-1.30,-1.30,-1.31
247.93,2.51,3.82,2.51,3.82,-3.81,-3.63,-4.13,-1.30,-1.30,-1.31
250.41,2.48,3.79,2.48,3.78,-3.78,-3.56,-4.12,-1.30,-1.30,-1.31
252.92,2.45,3.73,2.45,3.74,-3.74,-3.49,-4.10,-1.29,-1.29,-1.29
255.45,2.42,3.69,2.42,3.70,-3.70,-3.41,-4.07,-1.29,-1.29,-1.27
258.00,2.39,3.65,2.39,3.66,-3.66,-3.34,-4.04,-1.28,-1.27,-1.26
260.58,2.37,3.63,2.37,3.62,-3.62,-3.27,-4.00,-1.25,-1.26,-1.26
263.19,2.34,3.58,2.34,3.58,-3.58,-3.19,-3.95,-1.24,-1.24,-1.24
265.82,2.30,3.53,2.30,3.53,-3.53,-3.12,-3.90,-1.23,-1.23,-1.24
268.48,2.27,3.48,2.27,3.48,-3.48,-3.04,-3.84,-1.21,-1.21,-1.21
271.16,2.23,3.42,2.23,3.43,-3.42,-2.97,-3.78,-1.20,-1.19,-1.19
273.87,2.19,3.38,2.19,3.37,-3.36,-2.89,-3.71,-1.18,-1.18,-1.19
276.61,2.14,3.31,2.14,3.31,-3.30,-2.82,-3.64,-1.16,-1.16,-1.17
279.38,2.08,3.24,2.08,3.24,-3.23,-2.74,-3.57,-1.15,-1.16,-1.16
282.17,2.01,3.15,2.01,3.16,-3.16,-2.67,-3.49,-1.15,-1.15,-1.15
284.99,1.95,3.08,1.95,3.08,-3.09,-2.60,-3.41,-1.14,-1.14,-1.13
287.84,1.90,3.02,1.89,3.01,-3.02,-2.53,-3.32,-1.12,-1.13,-1.12
290.72,1.84,2.94,1.84,2.95,-2.95,-2.46,-3.24,-1.11,-1.11,-1.10
293.63,1.78,2.88,1.78,2.88,-2.88,-2.39,-3.15,-1.10,-1.10,-1.10
296.57,1.73,2.81,1.73,2.81,-2.81,-2.32,-3.06,-1.08,-1.08,-1.08
299.53,1.67,2.74,1.67,2.74,-2.74,-2.25,-2.97,-1.07,-1.07,-1.07
302.53,1.61,2.67,1.61,2.67,-2.66,-2.18,-2.87,-1.06,-1.05,-1.06
305.55,1.55,2.60,1.55,2.60,-2.59,-2.12,-2.78,-1.04,-1.04,-1.05
308.61,1.48,2.52,1.48,2.51,-2.51,-2.06,-2.69,-1.03,-1.03,-1.04
311.69,1.41,2.43,1.41,2.43,-2.43,-1.99,-2.59,-1.02,-1.02,-1.02
314.81,1.33,2.33,1.33,2.34,-2.34,-1.93,-2.50,-1.01,-1.01,-1.00
317.96,1.26,2.25,1.26,2.25,-2.25,-1.87,-2.41,-0.99,-0.99,-0.99
321.14,1.18,2.17,1.18,2.16,-2.16,-1.81,-2.32,-0.98,-0.98,-0.99
324.35,1.10,2.08,1.10,2.07,-2.07,-1.75,-2.22,-0.97,-0.98,-0.98
327.59,1.01,1.98,1.01,1.98,-1.98,-1.70,-2.13,-0.97,-0.97,-0.97
330.87,0.92,1.88,0.93,1.89,-1.89,-1.64,-2.04,-0.97,-0.96,-0.96
334.18,0.85,1.80,0.85,1.80,-1.80,-1.58,-1.95,-0.95,-0.95,-0.95
337.52,0.78,1.73,0.77,1.72,-1.71,-1.53,-1.86,-0.93,-0.94,-0.95
340.90,0.69,1.62,0.69,1.63,-1.63,-1.48,-1.78,-0.94,-0.94,-0.94
344.30,0.60,1.54,0.60,1.54,-1.54,-1.42,-1.69,-0.94,-0.94,-0.94
347.75,0.52,1.45,0.52,1.45,-1.46,-1.37,-1.60,-0.94,-0.94,-0.93
351.23,0.45,1.38,0.45,1.38,-1.38,-1.32,-1.52,-0.93,-0.93,-0.93
354.74,0.38,1.31,0.37,1.30,-1.30,-1.27,-1.44,-0.92,-0.93,-0.93
358.28,0.30,1.22,0.30,1.22,-1.22,-1.21,-1.35,-0.93,-0.92,-0.92
361.87,0.22,1.14,0.22,1.15,-1.15,-1.16,-1.27,-0.93,-0.92,-0.92
365.49,0.15,1.07,0.15,1.07,-1.07,-1.11,-1.19,-0.92,-0.92,-0.92
369.14,0.07,1.00,0.07,1.00,-0.99,-1.06,-1.11,-0.92,-0.93,-0.93
372.83,-0.01,0.93,-0.01,0.92,-0.92,-1.01,-1.03,-0.93,-0.93,-0.94
376.56,-0.10,0.84,-0.10,0.84,-0.84,-0.95,-0.96,-0.94,-0.93,-0.94
380.33,-0.18,0.75,-0.18,0.75,-0.76,-0.90,-0.88,-0.94,-0.94,-0.93
384.13,-0.26,0.68,-0.26,0.68,-0.68,-0.84,-0.81,-0.94,-0.94,-0.94
387.97,-0.34,0.60,-0.34,0.60,-0.60,-0.79,-0.73,-0.94,-0.94,-0.94
391.85,-0.42,0.53,-0.42,0.52,-0.52,-0.73,-0.66,-0.94,-0.94,-0.95
395.77,-0.50,0.44,-0.50,0.45,-0.44,-0.67,-0.59,-0.94,-0.94,-0.94
399.73,-0.58,0.37,-0.58,0.37,-0.37,-0.60,-0.52,-0.95,-0.95,-0.95
403.72,-0.66,0.29,-0.66,0.29,-0.30,-0.53,-0.45,-0.96,-0.96,-0.95
407.76,-0.73,0.22,-0.73,0.22,-0.23,-0.46,-0.39,-0.96,-0.96,-0.95
411.84,-0.79,0.15,-0.79,0.16,-0.17,-0.39,-0.32,-0.96,-0.95,-0.94
415.96,-0.84,0.10,-0.84,0.10,-0.10,-0.31,-0.26,-0.95,-0.95,-0.94
420.12,-0.89,0.05,-0.90,0.05,-0.05,-0.22,-0.19,-0.94,-0.94,-0.95
424.32,-0.95,-0.01,-0.95,-0.00,0.01,-0.13,-0.13,-0.94,-0.94,-0.95
428.56,-1.01,-0.05,-1.01,-0.05,0.06,-0.04,-0.08,-0.95,-0.95,-0.96
432.85,-1.06,-0.10,-1.06,-0.11,0.11,0.06,-0.02,-0.95,-0.96,-0.96
437.18,-1.11,-0.15,-1.11,-0.16,0.16,0.16,0.04,-0.95,-0.96,-0.96
441.55,-1.16,-0.21,-1.16,-0.21,0.21,0.25,0.09,-0.95,-0.95,-0.95
445.96,-1.20,-0.25,-1.20,-0.25,0.26,0.34,0.14,-0.95,-0.95,-0.95
450.42,-1.25,-0.29,-1.25,-0.30,0.30,0.42,0.18,-0.95,-0.94,-0.96
454.93,-1.29,-0.34,-1.29,-0.34,0.35,0.49,0.23,-0.94,-0.94,-0.95
459.48,-1.34,-0.39,-1.34,-0.39,0.39,0.53,0.27,-0.95,-0.95,-0.95
464.07,-1.38,-0.43,-1.38,-0.44,0.43,0.55,0.31,-0.95,-0.95,-0.95
468.71,-1.42,-0.48,-1.42,-0.47,0.46,0.55,0.35,-0.96,-0.96,-0.94
473.40,-1.44,-0.49,-1.44,-0.49,0.49,0.53,0.38,-0.95,-0.95,-0.95
478.13,-1.45,-0.51,-1.45,-0.51,0.51,0.49,0.41,-0.95,-0.94,-0.94
482.91,-1.45,-0.51,-1.45,-0.51,0.52,0.44,0.43,-0.94,-0.94,-0.94
487.74,-1.45,-0.51,-1.45,-0.51,0.52,0.39,0.46,-0.93,-0.94,-0.94
492.62,-1.45,-0.52,-1.45,-0.51,0.51,0.33,0.48,-0.94,-0.94,-0.93
497.55,-1.43,-0.49,-1.43,-0.50,0.49,0.28,0.49,-0.94,-0.94,-0.94
502.52,-1.41,-0.48,-1.41,-0.47,0.47,0.23,0.50,-0.95,-0.95,-0.93
507.55,-1.38,-0.44,-1.37,-0.43,0.44,0.18,0.51,-0.95,-0.94,-0.94
512.62,-1.33,-0.39,-1.33,-0.40,0.40,0.14,0.52,-0.93,-0.93,-0.94
