frequency,raw,error,smoothed,error_smoothed,equalization,parametric_eq,fixed_band_eq,equalized_raw,equalized_smoothed,target
20.00,-18.59,-21.24,-18.59,-21.24,6.00,4.43,2.97,-12.59,-12.59,2.65
20.20,-18.48,-21.11,-18.48,-21.10,6.00,4.50,3.05,-12.48,-12.48,2.63
20.40,-18.37,-20.96,-18.37,-20.97,6.00,4.57,3.14,-12.37,-12.37,2.60
20.61,-18.25,-20.83,-18.25,-20.83,6.00,4.64,3.22,-12.25,-12.25,2.58
20.81,-18.13,-20.68,-18.13,-20.68,6.00,4.71,3.32,-12.13,-12.13,2.56
21.02,-18.01,-20.53,-18.01,-20.53,6.00,4.78,3.41,-12.01,-12.01,2.53
21.23,-17.88,-20.38,-17.88,-20.39,6.00,4.85,3.51,-11.88,-11.88,2.50
21.44,-17.76,-20.24,-17.76,-20.24,6.00,4.93,3.60,-11.76,-11.76,2.48
21.66,-17.64,-20.11,-17.64,-20.10,6.00,5.00,3.71,-11.64,-11.64,2.46
21.87,-17.52,-19.96,-17.52,-19.96,6.00,5.07,3.81,-11.52,-11.52,2.44
22.09,-17.39,-19.81,-17.39,-19.82,6.00,5.14,3.92,-11.39,-11.39,2.42
22.31,-17.27,-19.67,-17.27,-19.67,6.00,5.21,4.03,-11.27,-11.27,2.40
22.54,-17.14,-19.52,-17.14,-19.52,6.00,5.28,4.14,-11.14,-11.14,2.37
22.76,-17.01,-19.36,-17.01,-19.36,6.00,5.35,4.26,-11.01,-11.01,2.35
22.99,-16.87,-19.20,-16.87,-19.21,6.00,5.41,4.38,-10.87,-10.87,2.33
23.22,-16.74,-19.05,-16.74,-19.05,6.00,5.48,4.50,-10.74,-10.74,2.31
23.45,-16.59,-18.89,-16.59,-18.89,6.00,5.54,4.62,-10.59,-10.59,2.30
23.69,-16.45,-18.73,-16.45,-18.73,6.00,5.61,4.75,-10.45,-10.45,2.28
23.92,-16.30,-18.57,-16.30,-18.57,6.00,5.67,4.88,-10.30,-10.30,2.27
24.16,-16.15,-18.40,-16.16,-18.41,6.00,5.73,5.01,-10.15,-10.16,2.25
24.40,-16.02,-18.26,-16.01,-18.25,6.00,5.78,5.14,-10.02,-10.01,2.24
24.65,-15.87,-18.10,-15.87,-18.09,6.00,5.84,5.28,-9.87,-9.87,2.23
24.89,-15.72,-17.93,-15.72,-17.93,6.00,5.89,5.41,-9.72,-9.72,2.21
25.14,-15.57,-17.77,-15.57,-17.77,6.00,5.94,5.55,-9.57,-9.57,2.20
25.39,-15.42,-17.61,-15.42,-17.61,6.00,5.99,5.69,-9.42,-9.42,2.19
25.65,-15.28,-17.46,-15.28,-17.46,6.00,6.03,5.83,-9.28,-9.28,2.18
25.91,-15.13,-17.30,-15.13,-17.30,6.00,6.07,5.97,-9.13,-9.13,2.17
26.16,-14.98,-17.13,-14.98,-17.13,6.00,6.10,6.11,-8.98,-8.98,2.16
26.43,-14.82,-16.96,-14.82,-16.96,6.00,6.13,6.25,-8.82,-8.82,2.14
26.69,-14.67,-16.80,-14.67,-16.80,6.00,6.16,6.39,-8.67,-8.67,2.13
26.96,-14.52,-16.64,-14.52,-16.63,6.00,6.18,6.53,-8.52,-8.52,2.11
27.23,-14.36,-16.47,-14.36,-16.47,6.00,6.20,6.66,-8.36,-8.36,2.10
27.50,-14.21,-16.30,-14.21,-16.30,6.00,6.21,6.79,-8.21,-8.21,2.09
27.77,-14.05,-16.14,-14.05,-16.14,6.00,6.22,6.92,-8.05,-8.05,2.09
28.05,-13.89,-15.97,-13.89,-15.97,6.00,6.22,7.04,-7.89,-7.89,2.08
28.33,-13.74,-15.81,-13.73,-15.81,6.00,6.22,7.15,-7.74,-7.73,2.07
28.62,-13.57,-15.64,-13.58,-15.64,6.00,6.21,7.26,-7.57,-7.58,2.07
28.90,-13.41,-15.47,-13.41,-15.47,6.00,6.19,7.36,-7.41,-7.41,2.06
29.19,-13.26,-15.32,-13.25,-15.31,6.00,6.17,7.45,-7.26,-7.25,2.06
29.48,-13.08,-15.13,-13.09,-15.13,6.00,6.15,7.53,-7.08,-7.09,2.05
29.78,-12.92,-14.97,-12.92,-14.97,6.00,6.12,7.60,-6.92,-6.92,2.05
30.08,-12.75,-14.79,-12.75,-14.79,6.00,6.08,7.65,-6.75,-6.75,2.04
30.38,-12.59,-14.63,-12.59,-14.62,6.00,6.05,7.70,-6.59,-6.59,2.03
30.68,-12.42,-14.44,-12.42,-14.44,6.00,6.01,7.74,-6.42,-6.42,2.02
30.99,-12.25,-14.26,-12.26,-14.27,6.00,5.97,7.76,-6.25,-6.26,2.01
31.30,-12.10,-14.11,-12.10,-14.10,6.00,5.93,7.77,-6.10,-6.10,2.01
31.61,-11.94,-13.94,-11.94,-13.94,6.00,5.89,7.76,-5.94,-5.94,2.00
31.93,-11.78,-13.77,-11.78,-13.78,6.00,5.85,7.75,-5.78,-5.78,1.99
32.24,-11.63,-13.61,-11.62,-13.61,6.00,5.82,7.72,-5.63,-5.62,1.99
32.57,-11.46,-13.44,-11.47,-13.44,6.00,5.79,7.68,-5.46,-5.47,1.98
32.89,-11.31,-13.27,-11.30,-13.27,6.00,5.76,7.63,-5.31,-5.30,1.96
33.22,-11.14,-13.09,-11.14,-13.09,6.00,5.75,7.57,-5.14,-5.14,1.95
33.55,-10.98,-12.92,-10.98,-12.92,6.00,5.74,7.50,-4.98,-4.98,1.94
33.89,-10.82,-12.75,-10.82,-12.75,6.00,5.74,7.42,-4.82,-4.82,1.93
34.23,-10.65,-12.57,-10.65,-12.57,6.00,5.74,7.33,-4.65,-4.65,1.92
34.57,-10.49,-12.41,-10.49,-12.40,6.00,5.76,7.23,-4.49,-4.49,1.92
34.92,-10.33,-12.24,-10.33,-12.23,6.00,5.78,7.13,-4.33,-4.33,1.90
35.27,-10.17,-12.06,-10.17,-12.06,6.00,5.80,7.03,-4.17,-4.17,1.89
35.62,-10.00,-11.89,-10.01,-11.89,6.00,5.83,6.92,-4.00,-4.01,1.89
35.97,-9.85,-11.73,-9.84,-11.73,6.00,5.86,6.81,-3.85,-3.84,1.88
36.33,-9.68,-11.55,-9.68,-11.56,6.00,5.89,6.69,-3.68,-3.68,1.88
36.70,-9.53,-11.39,-9.52,-11.39,6.00,5.92,6.57,-3.53,-3.52,1.86
37.06,-9.36,-11.21,-9.36,-11.22,6.00,5.95,6.46,-3.36,-3.36,1.85
37.43,-9.20,-11.05,-9.20,-11.05,6.00,5.98,6.34,-3.20,-3.20,1.85
37.81,-9.04,-10.88,-9.04,-10.88,6.00,6.00,6.22,-3.04,-3.04,1.84
38.19,-8.88,-10.71,-8.88,-10.71,6.00,6.03,6.10,-2.88,-2.88,1.83
38.57,-8.72,-10.54,-8.72,-10.54,6.00,6.05,5.99,-2.72,-2.72,1.82
38.95,-8.56,-10.38,-8.56,-10.37,6.00,6.07,5.87,-2.56,-2.56,1.82
39.34,-8.39,-10.19,-8.39,-10.20,6.00,6.09,5.76,-2.39,-2.39,1.80
39.74,-8.23,-10.03,-8.23,-10.03,6.00,6.10,5.65,-2.23,-2.23,1.80
40.14,-8.07,-9.86,-8.07,-9.86,6.00,6.11,5.54,-2.07,-2.07,1.79
40.54,-7.91,-9.70,-7.91,-9.69,6.00,6.11,5.43,-1.91,-1.91,1.79
40.94,-7.74,-9.51,-7.74,-9.52,6.00,6.12,5.33,-1.74,-1.74,1.77
41.35,-7.58,-9.35,-7.58,-9.35,6.00,6.12,5.23,-1.58,-1.58,1.77
41.76,-7.42,-9.17,-7.42,-9.17,6.00,6.12,5.14,-1.42,-1.42,1.75
42.18,-7.26,-9.01,-7.26,-9.01,6.00,6.11,5.04,-1.26,-1.26,1.75
42.60,-7.10,-8.83,-7.10,-8.84,6.00,6.10,4.95,-1.10,-1.10,1.74
43.03,-6.94,-8.67,-6.94,-8.67,6.00,6.09,4.87,-0.94,-0.94,1.73
43.46,-6.77,-8.49,-6.77,-8.49,6.00,6.08,4.78,-0.77,-0.77,1.72
43.90,-6.60,-8.32,-6.60,-8.32,6.00,6.07,4.70,-0.60,-0.60,1.71
44.33,-6.44,-8.15,-6.44,-8.14,6.00,6.05,4.63,-0.44,-0.44,1.71
44.78,-6.28,-7.97,-6.28,-7.98,6.00,6.03,4.56,-0.28,-0.28,1.69
45.23,-6.12,-7.81,-6.12,-7.81,6.00,6.01,4.49,-0.12,-0.12,1.69
45.68,-5.96,-7.64,-5.96,-7.64,6.00,5.98,4.42,0.04,0.04,1.68
46.13,-5.80,-7.48,-5.80,-7.48,6.00,5.96,4.36,0.20,0.20,1.68
46.60,-5.64,-7.31,-5.64,-7.31,6.00,5.93,4.30,0.36,0.36,1.67
47.06,-5.49,-7.16,-5.49,-7.15,6.00,5.89,4.25,0.51,0.51,1.67
47.53,-5.33,-6.99,-5.34,-7.00,6.00,5.86,4.19,0.68,0.67,1.66
48.01,-5.19,-6.84,-5.19,-6.84,6.02,5.82,4.14,0.83,0.83,1.65
48.49,-5.04,-6.69,-5.04,-6.69,6.02,5.77,4.10,0.98,0.99,1.65
48.97,-4.89,-6.53,-4.89,-6.54,6.03,5.73,4.05,1.14,1.13,1.64
49.46,-4.75,-6.38,-4.75,-6.38,6.01,5.68,4.01,1.26,1.26,1.63
49.96,-4.61,-6.24,-4.60,-6.23,5.98,5.63,3.97,1.37,1.38,1.63
50.46,-4.46,-6.08,-4.46,-6.08,5.93,5.57,3.94,1.47,1.47,1.62
50.96,-4.32,-5.93,-4.32,-5.93,5.86,5.51,3.90,1.54,1.54,1.61
51.47,-4.19,-5.79,-4.19,-5.79,5.77,5.44,3.87,1.58,1.58,1.60
51.99,-4.05,-5.64,-4.05,-5.65,5.66,5.37,3.84,1.61,1.60,1.59
52.51,-3.92,-5.51,-3.92,-5.50,5.53,5.29,3.81,1.61,1.61,1.58
53.03,-3.78,-5.36,-3.78,-5.36,5.38,5.21,3.78,1.60,1.60,1.58
53.56,-3.65,-5.22,-3.65,-5.21,5.23,5.13,3.76,1.58,1.58,1.57
54.10,-3.51,-5.07,-3.52,-5.07,5.08,5.04,3.73,1.57,1.56,1.56
54.64,-3.39,-4.94,-3.39,-4.93,4.93,4.95,3.70,1.54,1.55,1.55
55.18,-3.26,-4.80,-3.26,-4.79,4.80,4.85,3.68,1.54,1.54,1.54
55.74,-3.13,-4.66,-3.13,-4.66,4.66,4.74,3.65,1.53,1.53,1.53
56.29,-3.01,-4.52,-3.01,-4.52,4.52,4.64,3.62,1.52,1.52,1.51
56.86,-2.89,-4.39,-2.89,-4.39,4.39,4.53,3.60,1.50,1.50,1.50
57.42,-2.77,-4.26,-2.77,-4.26,4.26,4.41,3.57,1.49,1.49,1.49
58.00,-2.65,-4.14,-2.65,-4.14,4.14,4.29,3.54,1.49,1.48,1.49
58.58,-2.54,-4.02,-2.54,-4.01,4.01,4.17,3.51,1.47,1.48,1.48
59.16,-2.42,-3.88,-2.42,-3.89,3.89,4.04,3.47,1.47,1.47,1.46
59.76,-2.31,-3.76,-2.31,-3.76,3.76,3.91,3.44,1.45,1.45,1.45
60.35,-2.20,-3.64,-2.20,-3.64,3.64,3.78,3.40,1.44,1.44,1.44
60.96,-2.10,-3.53,-2.09,-3.52,3.52,3.65,3.36,1.42,1.43,1.43
61.57,-1.98,-3.40,-1.98,-3.40,3.40,3.51,3.32,1.42,1.42,1.41
62.18,-1.87,-3.27,-1.87,-3.27,3.27,3.37,3.28,1.41,1.40,1.40
62.80,-1.76,-3.14,-1.76,-3.15,3.15,3.23,3.23,1.39,1.39,1.38
63.43,-1.65,-3.03,-1.65,-3.02,3.02,3.09,3.18,1.37,1.37,1.38
64.07,-1.54,-2.90,-1.54,-2.90,2.89,2.95,3.13,1.35,1.35,1.36
64.71,-1.42,-2.76,-1.42,-2.77,2.76,2.81,3.07,1.34,1.34,1.34
65.35,-1.30,-2.62,-1.30,-2.63,2.62,2.67,3.01,1.32,1.32,1.32
66.01,-1.18,-2.49,-1.18,-2.48,2.48,2.52,2.95,1.30,1.31,1.31
66.67,-1.05,-2.34,-1.05,-2.34,2.34,2.38,2.89,1.29,1.29,1.29
67.33,-0.93,-2.20,-0.93,-2.20,2.20,2.24,2.82,1.27,1.27,1.27
68.01,-0.81,-2.06,-0.81,-2.05,2.05,2.10,2.75,1.24,1.25,1.25
68.69,-0.68,-1.91,-0.68,-1.91,1.91,1.96,2.68,1.23,1.23,1.23
69.37,-0.56,-1.76,-0.56,-1.77,1.77,1.82,2.61,1.21,1.21,1.21
70.07,-0.44,-1.62,-0.44,-1.62,1.62,1.68,2.54,1.18,1.18,1.18
70.77,-0.32,-1.48,-0.32,-1.48,1.48,1.55,2.46,1.16,1.16,1.16
71.48,-0.20,-1.34,-0.20,-1.34,1.34,1.41,2.39,1.14,1.14,1.14
72.19,-0.09,-1.20,-0.09,-1.20,1.20,1.28,2.31,1.11,1.11,1.11
72.91,0.02,-1.07,0.02,-1.07,1.07,1.15,2.23,1.09,1.09,1.09
73.64,0.13,-0.93,0.13,-0.93,0.93,1.02,2.15,1.06,1.06,1.06
74.38,0.22,-0.81,0.23,-0.80,0.80,0.90,2.07,1.02,1.03,1.03
75.12,0.33,-0.67,0.33,-0.67,0.68,0.77,1.99,1.01,1.00,1.00
75.87,0.42,-0.55,0.42,-0.55,0.55,0.66,1.91,0.97,0.97,0.97
76.63,0.50,-0.44,0.50,-0.44,0.43,0.54,1.82,0.93,0.94,0.94
77.40,0.58,-0.32,0.58,-0.32,0.32,0.43,1.74,0.90,0.90,0.90
78.17,0.66,-0.20,0.66,-0.20,0.20,0.32,1.66,0.86,0.86,0.86
78.95,0.74,-0.08,0.73,-0.09,0.09,0.21,1.58,0.83,0.83,0.83
79.74,0.80,0.01,0.80,0.02,-0.01,0.11,1.50,0.79,0.79,0.79
80.54,0.86,0.11,0.86,0.12,-0.12,0.01,1.42,0.74,0.75,0.75
81.35,0.92,0.21,0.92,0.21,-0.21,-0.08,1.33,0.71,0.70,0.70
82.16,0.97,0.31,0.97,0.30,-0.30,-0.17,1.25,0.67,0.66,0.66
82.98,1.01,0.39,1.01,0.39,-0.39,-0.26,1.17,0.62,0.62,0.62
83.81,1.05,0.47,1.05,0.47,-0.47,-0.34,1.09,0.58,0.58,0.58
84.65,1.07,0.54,1.07,0.54,-0.54,-0.42,1.01,0.53,0.53,0.53
85.50,1.10,0.62,1.10,0.61,-0.61,-0.49,0.93,0.49,0.49,0.48
86.35,1.11,0.66,1.11,0.67,-0.67,-0.56,0.85,0.44,0.44,0.45
87.22,1.12,0.71,1.12,0.72,-0.72,-0.62,0.77,0.40,0.40,0.40
88.09,1.13,0.77,1.13,0.77,-0.77,-0.68,0.70,0.36,0.36,0.36
88.97,1.13,0.82,1.13,0.82,-0.81,-0.73,0.62,0.32,0.32,0.31
89.86,1.13,0.86,1.13,0.86,-0.85,-0.78,0.54,0.28,0.28,0.27
90.76,1.12,0.89,1.12,0.89,-0.89,-0.83,0.46,0.23,0.23,0.23
91.66,1.10,0.91,1.10,0.91,-0.91,-0.87,0.39,0.19,0.19,0.19
92.58,1.08,0.93,1.08,0.93,-0.94,-0.90,0.31,0.14,0.14,0.15
93.51,1.06,0.96,1.06,0.96,-0.96,-0.93,0.23,0.10,0.10,0.10
94.44,1.04,0.98,1.04,0.98,-0.97,-0.96,0.16,0.07,0.06,0.06
95.39,1.01,0.99,1.01,0.99,-0.99,-0.98,0.08,0.02,0.02,0.02
96.34,0.97,0.99,0.97,1.00,-1.00,-1.00,0.01,-0.03,-0.02,-0.02
97.30,0.93,1.00,0.93,1.00,-1.00,-1.02,-0.07,-0.07,-0.07,-0.07
98.28,0.90,1.01,0.90,1.01,-1.01,-1.03,-0.14,-0.11,-0.11,-0.11
99.26,0.85,1.01,0.85,1.01,-1.01,-1.04,-0.21,-0.16,-0.16,-0.16
100.25,0.81,1.02,0.81,1.01,-1.01,-1.05,-0.28,-0.20,-0.21,-0.21
101.25,0.75,1.01,0.75,1.01,-1.01,-1.05,-0.35,-0.26,-0.25,-0.26
102.27,0.70,1.01,0.70,1.00,-1.00,-1.05,-0.42,-0.30,-0.30,-0.31
103.29,0.64,0.99,0.64,1.00,-0.99,-1.05,-0.49,-0.35,-0.35,-0.35
104.32,0.58,0.98,0.58,0.98,-0.98,-1.04,-0.56,-0.40,-0.40,-0.40
105.37,0.52,0.97,0.51,0.97,-0.97,-1.03,-0.63,-0.45,-0.45,-0.45
106.42,0.44,0.94,0.45,0.95,-0.95,-1.03,-0.69,-0.51,-0.50,-0.50
107.48,0.38,0.93,0.38,0.93,-0.93,-1.01,-0.76,-0.55,-0.55,-0.55
108.56,0.31,0.91,0.31,0.91,-0.91,-1.00,-0.82,-0.60,-0.60,-0.60
109.64,0.24,0.89,0.24,0.89,-0.89,-0.99,-0.88,-0.65,-0.65,-0.65
110.74,0.18,0.88,0.18,0.88,-0.88,-0.97,-0.93,-0.70,-0.70,-0.70
111.85,0.11,0.86,0.11,0.86,-0.86,-0.95,-0.99,-0.75,-0.75,-0.75
112.97,0.05,0.85,0.05,0.85,-0.85,-0.93,-1.04,-0.80,-0.80,-0.80
114.10,-0.01,0.84,-0.01,0.84,-0.84,-0.92,-1.09,-0.85,-0.85,-0.85
115.24,-0.06,0.83,-0.06,0.83,-0.83,-0.90,-1.14,-0.89,-0.90,-0.89
116.39,-0.11,0.83,-0.11,0.83,-0.83,-0.87,-1.18,-0.94,-0.94,-0.94
117.55,-0.17,0.82,-0.16,0.83,-0.82,-0.85,-1.22,-0.99,-0.99,-0.99
118.73,-0.21,0.83,-0.21,0.82,-0.82,-0.83,-1.25,-1.03,-1.03,-1.04
119.92,-0.26,0.81,-0.26,0.82,-0.82,-0.81,-1.28,-1.08,-1.08,-1.07
121.12,-0.31,0.81,-0.31,0.81,-0.81,-0.79,-1.31,-1.12,-1.12,-1.12
122.33,-0.35,0.81,-0.35,0.81,-0.81,-0.76,-1.33,-1.16,-1.16,-1.16
123.55,-0.40,0.80,-0.40,0.80,-0.80,-0.74,-1.35,-1.20,-1.20,-1.20
124.79,-0.45,0.79,-0.45,0.79,-0.79,-0.72,-1.37,-1.24,-1.24,-1.24
126.03,-0.50,0.78,-0.50,0.78,-0.78,-0.69,-1.38,-1.28,-1.28,-1.28
127.29,-0.55,0.77,-0.55,0.77,-0.77,-0.67,-1.39,-1.32,-1.32,-1.32
128.57,-0.60,0.75,-0.60,0.76,-0.76,-0.65,-1.39,-1.36,-1.36,-1.35
129.85,-0.64,0.76,-0.65,0.75,-0.75,-0.62,-1.39,-1.39,-1.39,-1.40
131.15,-0.70,0.73,-0.70,0.73,-0.73,-0.60,-1.38,-1.43,-1.43,-1.43
132.46,-0.75,0.71,-0.75,0.71,-0.71,-0.58,-1.37,-1.46,-1.46,-1.46
133.79,-0.80,0.69,-0.80,0.69,-0.69,-0.55,-1.36,-1.49,-1.49,-1.49
135.12,-0.86,0.66,-0.86,0.67,-0.67,-0.53,-1.34,-1.53,-1.52,-1.52
136.48,-0.91,0.65,-0.91,0.64,-0.64,-0.51,-1.32,-1.55,-1.55,-1.56
137.84,-0.97,0.61,-0.97,0.61,-0.61,-0.49,-1.30,-1.58,-1.58,-1.58
139.22,-1.02,0.59,-1.02,0.58,-0.58,-0.47,-1.27,-1.60,-1.60,-1.61
140.61,-1.08,0.55,-1.08,0.55,-0.55,-0.44,-1.25,-1.63,-1.63,-1.63
142.02,-1.13,0.52,-1.13,0.52,-0.52,-0.42,-1.22,-1.65,-1.65,-1.65
143.44,-1.18,0.49,-1.18,0.49,-0.50,-0.40,-1.18,-1.68,-1.68,-1.67
144.87,-1.23,0.47,-1.23,0.47,-0.47,-0.38,-1.15,-1.70,-1.70,-1.70
146.32,-1.27,0.45,-1.27,0.45,-0.45,-0.36,-1.11,-1.72,-1.72,-1.72
147.78,-1.31,0.42,-1.31,0.43,-0.43,-0.34,-1.08,-1.74,-1.74,-1.73
149.26,-1.34,0.42,-1.34,0.41,-0.41,-0.32,-1.04,-1.75,-1.75,-1.76
150.75,-1.38,0.39,-1.38,0.39,-0.39,-0.30,-1.00,-1.77,-1.77,-1.77
152.26,-1.41,0.38,-1.41,0.38,-0.38,-0.28,-0.96,-1.79,-1.79,-1.79
153.78,-1.43,0.37,-1.43,0.37,-0.37,-0.26,-0.92,-1.80,-1.80,-1.80
155.32,-1.46,0.35,-1.46,0.36,-0.36,-0.24,-0.87,-1.82,-1.81,-1.81
156.88,-1.48,0.35,-1.48,0.34,-0.34,-0.23,-0.83,-1.82,-1.83,-1.83
158.44,-1.51,0.33,-1.51,0.33,-0.33,-0.21,-0.79,-1.84,-1.84,-1.84
160.03,-1.53,0.32,-1.53,0.32,-0.32,-0.19,-0.75,-1.85,-1.85,-1.85
161.63,-1.56,0.30,-1.56,0.30,-0.30,-0.17,-0.70,-1.86,-1.86,-1.86
163.24,-1.59,0.28,-1.59,0.28,-0.28,-0.15,-0.66,-1.87,-1.87,-1.87
164.88,-1.62,0.26,-1.62,0.26,-0.26,-0.14,-0.62,-1.88,-1.88,-1.88
166.53,-1.65,0.24,-1.65,0.23,-0.23,-0.12,-0.57,-1.88,-1.89,-1.89
168.19,-1.69,0.21,-1.69,0.21,-0.21,-0.10,-0.53,-1.90,-1.90,-1.90
169.87,-1.73,0.18,-1.73,0.18,-0.18,-0.08,-0.49,-1.91,-1.91,-1.91
171.57,-1.76,0.16,-1.77,0.15,-0.16,-0.07,-0.45,-1.92,-1.92,-1.92
173.29,-1.81,0.12,-1.80,0.13,-0.13,-0.05,-0.41,-1.94,-1.93,-1.93
175.02,-1.84,0.10,-1.84,0.10,-0.10,-0.04,-0.36,-1.94,-1.94,-1.94
176.77,-1.88,0.07,-1.88,0.07,-0.07,-0.02,-0.32,-1.95,-1.95,-1.95
178.54,-1.92,0.04,-1.92,0.04,-0.04,-0.00,-0.28,-1.96,-1.96,-1.96
180.32,-1.96,0.01,-1.96,0.01,-0.02,0.01,-0.24,-1.98,-1.98,-1.97
182.13,-2.00,-0.01,-2.00,-0.01,0.01,0.03,-0.20,-1.99,-1.99,-1.99
183.95,-2.04,-0.04,-2.04,-0.03,0.03,0.05,-0.16,-2.01,-2.00,-2.00
185.79,-2.07,-0.05,-2.07,-0.05,0.05,0.06,-0.12,-2.02,-2.02,-2.02
187.65,-2.10,-0.07,-2.10,-0.07,0.08,0.08,-0.08,-2.02,-2.03,-2.03
189.52,-2.14,-0.10,-2.14,-0.09,0.10,0.09,-0.05,-2.04,-2.04,-2.04
191.42,-2.17,-0.11,-2.17,-0.11,0.11,0.11,-0.01,-2.06,-2.06,-2.06
193.33,-2.20,-0.13,-2.20,-0.14,0.13,0.12,0.03,-2.07,-2.07,-2.07
195.27,-2.24,-0.16,-2.24,-0.15,0.15,0.14,0.07,-2.09,-2.08,-2.08
197.22,-2.27,-0.17,-2.27,-0.17,0.17,0.16,0.11,-2.10,-2.10,-2.10
199.19,-2.30,-0.19,-2.30,-0.19,0.19,0.17,0.14,-2.11,-2.11,-2.11
201.18,-2.33,-0.20,-2.33,-0.20,0.21,0.19,0.18,-2.12,-2.13,-2.13
203.19,-2.37,-0.23,-2.37,-0.22,0.22,0.20,0.21,-2.15,-2.14,-2.14
205.23,-2.41,-0.25,-2.40,-0.24,0.24,0.22,0.25,-2.17,-2.16,-2.16
207.28,-2.43,-0.26,-2.44,-0.26,0.26,0.23,0.28,-2.17,-2.18,-2.17
209.35,-2.47,-0.28,-2.47,-0.27,0.28,0.25,0.32,-2.19,-2.19,-2.19
211.44,-2.49,-0.28,-2.49,-0.29,0.29,0.26,0.35,-2.20,-2.20,-2.21
213.56,-2.53,-0.31,-2.53,-0.31,0.31,0.28,0.38,-2.22,-2.22,-2.22
215.69,-2.56,-0.32,-2.56,-0.33,0.32,0.29,0.41,-2.24,-2.24,-2.24
217.85,-2.60,-0.35,-2.59,-0.35,0.34,0.31,0.45,-2.26,-2.25,-2.25
220.03,-2.62,-0.36,-2.62,-0.36,0.36,0.33,0.47,-2.26,-2.26,-2.26
222.23,-2.64,-0.37,-2.65,-0.38,0.38,0.34,0.50,-2.26,-2.27,-2.27
224.45,-2.67,-0.39,-2.67,-0.39,0.40,0.36,0.53,-2.27,-2.27,-2.28
226.70,-2.70,-0.42,-2.70,-0.41,0.42,0.37,0.56,-2.28,-2.28,-2.28
228.96,-2.72,-0.43,-2.73,-0.44,0.44,0.39,0.58,-2.28,-2.29,-2.29
231.25,-2.76,-0.46,-2.75,-0.46,0.46,0.40,0.61,-2.30,-2.30,-2.30
233.57,-2.78,-0.49,-2.78,-0.48,0.48,0.42,0.63,-2.30,-2.30,-2.29
235.90,-2.80,-0.50,-2.80,-0.51,0.50,0.43,0.65,-2.30,-2.30,-2.30
238.26,-2.82,-0.52,-2.82,-0.52,0.52,0.45,0.67,-2.30,-2.29,-2.30
240.64,-2.84,-0.55,-2.84,-0.54,0.55,0.47,0.69,-2.29,-2.29,-2.29
243.05,-2.85,-0.55,-2.86,-0.56,0.57,0.48,0.70,-2.28,-2.29,-2.30
245.48,-2.88,-0.59,-2.88,-0.59,0.59,0.50,0.72,-2.29,-2.29,-2.29
247.93,-2.90,-0.61,-2.90,-0.61,0.61,0.51,0.73,-2.29,-2.29,-2.29
250.41,-2.91,-0.63,-2.92,-0.63,0.63,0.52,0.74,-2.28,-2.29,-2.28
252.92,-2.93,-0.64,-2.93,-0.65,0.65,0.54,0.75,-2.28,-2.28,-2.29
255.45,-2.95,-0.67,-2.95,-0.67,0.67,0.55,0.76,-2.28,-2.28,-2.28
258.00,-2.96,-0.69,-2.96,-0.68,0.68,0.57,0.77,-2.28,-2.28,-2.27
260.58,-2.97,-0.69,-2.97,-0.70,0.70,0.58,0.78,-2.27,-2.28,-2.28
263.19,-2.99,-0.71,-2.99,-0.71,0.71,0.59,0.78,-2.28,-2.28,-2.28
265.82,-3.01,-0.73,-3.01,-0.73,0.73,0.61,0.78,-2.28,-2.28,-2.28
268.48,-3.02,-0.74,-3.02,-0.74,0.74,0.62,0.78,-2.28,-2.28,-2.28
271.16,-3.03,-0.75,-3.03,-0.75,0.75,0.63,0.78,-2.28,-2.28,-2.28
273.87,-3.04,-0.75,-3.04,-0.75,0.75,0.65,0.78,-2.29,-2.28,-2.29
276.61,-3.04,-0.76,-3.04,-0.76,0.76,0.66,0.78,-2.28,-2.28,-2.28
279.38,-3.04,-0.76,-3.04,-0.76,0.76,0.67,0.78,-2.28,-2.28,-2.28
282.17,-3.04,-0.75,-3.04,-0.76,0.75,0.68,0.77,-2.29,-2.29,-2.29
284.99,-3.03,-0.75,-3.03,-0.75,0.74,0.69,0.77,-2.29,-2.29,-2.28
287.84,-3.02,-0.74,-3.02,-0.74,0.73,0.70,0.76,-2.29,-2.29,-2.28
290.72,-2.99,-0.72,-2.99,-0.72,0.71,0.70,0.76,-2.28,-2.28,-2.27
293.63,-2.97,-0.69,-2.97,-0.69,0.69,0.71,0.75,-2.28,-2.28,-2.28
296.57,-2.94,-0.67,-2.94,-0.67,0.67,0.72,0.75,-2.27,-2.27,-2.27
299.53,-2.92,-0.65,-2.92,-0.65,0.65,0.73,0.74,-2.27,-2.27,-2.27
302.53,-2.89,-0.63,-2.89,-0.63,0.63,0.73,0.73,-2.26,-2.26,-2.26
305.55,-2.87,-0.61,-2.87,-0.61,0.61,0.74,0.73,-2.26,-2.25,-2.26
308.61,-2.84,-0.59,-2.84,-0.60,0.60,0.74,0.72,-2.24,-2.24,-2.25
311.69,-2.83,-0.59,-2.83,-0.59,0.59,0.74,0.71,-2.24,-2.24,-2.24
314.81,-2.81,-0.58,-2.81,-0.58,0.59,0.75,0.71,-2.22,-2.23,-2.23
317.96,-2.81,-0.59,-2.81,-0.58,0.58,0.75,0.70,-2.23,-2.22,-2.22
321.14,-2.80,-0.58,-2.80,-0.59,0.58,0.75,0.70,-2.22,-2.22,-2.22
324.35,-2.80,-0.59,-2.80,-0.59,0.59,0.75,0.69,-2.21,-2.21,-2.21
327.59,-2.80,-0.60,-2.80,-0.60,0.59,0.75,0.68,-2.21,-2.21,-2.20
330.87,-2.80,-0.60,-2.80,-0.60,0.60,0.74,0.68,-2.20,-2.20,-2.20
334.18,-2.80,-0.61,-2.80,-0.60,0.61,0.74,0.68,-2.19,-2.19,-2.19
337.52,-2.80,-0.61,-2.80,-0.61,0.62,0.74,0.67,-2.18,-2.19,-2.19
340.90,-2.81,-0.62,-2.81,-0.62,0.62,0.73,0.67,-2.19,-2.19,-2.19
344.30,-2.82,-0.63,-2.82,-0.63,0.63,0.73,0.67,-2.19,-2.19,-2.19
347.75,-2.83,-0.64,-2.83,-0.64,0.64,0.72,0.67,-2.19,-2.19,-2.19
351.23,-2.84,-0.65,-2.84,-0.65,0.65,0.72,0.66,-2.19,-2.19,-2.19
354.74,-2.85,-0.66,-2.85,-0.66,0.66,0.71,0.66,-2.19,-2.19,-2.19
358.28,-2.86,-0.66,-2.86,-0.66,0.66,0.70,0.66,-2.20,-2.20,-2.20
361.87,-2.87,-0.67,-2.87,-0.67,0.67,0.69,0.66,-2.20,-2.20,-2.20
365.49,-2.88,-0.68,-2.88,-0.67,0.67,0.68,0.66,-2.21,-2.21,-2.20
369.14,-2.88,-0.67,-2.88,-0.67,0.67,0.67,0.66,-2.21,-2.21,-2.21
372.83,-2.87,-0.66,-2.87,-0.67,0.67,0.66,0.67,-2.20,-2.21,-2.21
376.56,-2.86,-0.66,-2.86,-0.66,0.66,0.65,0.67,-2.20,-2.20,-2.20
380.33,-2.86,-0.66,-2.85,-0.66,0.65,0.64,0.67,-2.21,-2.20,-2.20
384.13,-2.84,-0.64,-2.84,-0.65,0.65,0.63,0.67,-2.19,-2.20,-2.20
387.97,-2.83,-0.64,-2.83,-0.64,0.64,0.62,0.68,-2.19,-2.19,-2.19
391.85,-2.81,-0.62,-2.81,-0.62,0.63,0.61,0.68,-2.18,-2.19,-2.19
395.77,-2.80,-0.62,-2.79,-0.61,0.61,0.59,0.69,-2.19,-2.18,-2.18
399.73,-2.77,-0.60,-2.78,-0.60,0.61,0.58,0.69,-2.17,-2.17,-2.17
403.72,-2.76,-0.59,-2.76,-0.59,0.60,0.57,0.69,-2.16,-2.17,-2.17
407.76,-2.75,-0.59,-2.75,-0.59,0.59,0.55,0.70,-2.16,-2.16,-2.16
411.84,-2.74,-0.59,-2.74,-0.58,0.58,0.54,0.70,-2.16,-2.16,-2.15
415.96,-2.72,-0.58,-2.72,-0.57,0.57,0.53,0.71,-2.15,-2.15,-2.14
420.12,-2.70,-0.55,-2.70,-0.56,0.56,0.51,0.71,-2.14,-2.14,-2.15
424.32,-2.69,-0.55,-2.69,-0.55,0.55,0.50,0.72,-2.14,-2.14,-2.14
428.56,-2.67,-0.54,-2.67,-0.54,0.54,0.49,0.72,-2.13,-2.13,-2.13
432.85,-2.65,-0.53,-2.65,-0.53,0.52,0.47,0.72,-2.13,-2.12,-2.12
437.18,-2.62,-0.51,-2.62,-0.51,0.51,0.46,0.73,-2.11,-2.11,-2.11
441.55,-2.59,-0.49,-2.59,-0.49,0.50,0.45,0.73,-2.09,-2.09,-2.10
445.96,-2.56,-0.47,-2.56,-0.47,0.48,0.43,0.73,-2.08,-2.08,-2.09
