frequency,raw,error,smoothed,error_smoothed,equalization,parametric_eq,fixed_band_eq,equalized_raw,equalized_smoothed,target
20.00,7.26,3.55,7.26,3.55,-3.53,-3.19,-2.21,3.73,3.73,3.71
20.20,7.32,3.57,7.32,3.57,-3.56,-3.25,-2.27,3.75,3.75,3.75
20.40,7.39,3.60,7.38,3.60,-3.60,-3.31,-2.34,3.79,3.78,3.79
20.61,7.44,3.64,7.45,3.63,-3.64,-3.38,-2.40,3.81,3.81,3.81
20.81,7.51,3.66,7.51,3.66,-3.67,-3.44,-2.47,3.83,3.84,3.85
21.02,7.58,3.69,7.57,3.69,-3.71,-3.50,-2.54,3.86,3.86,3.89
21.23,7.64,3.74,7.64,3.73,-3.75,-3.57,-2.61,3.89,3.89,3.90
21.44,7.70,3.78,7.70,3.78,-3.79,-3.63,-2.69,3.91,3.91,3.92
21.66,7.76,3.83,7.76,3.83,-3.83,-3.69,-2.76,3.93,3.93,3.93
21.87,7.82,3.89,7.81,3.88,-3.87,-3.76,-2.84,3.95,3.95,3.93
22.09,7.87,3.93,7.86,3.92,-3.90,-3.82,-2.92,3.96,3.95,3.94
22.31,7.89,3.95,7.89,3.95,-3.94,-3.89,-3.00,3.94,3.95,3.94
22.54,7.91,3.97,7.91,3.98,-3.98,-3.95,-3.08,3.92,3.93,3.94
22.76,7.94,4.01,7.93,4.00,-4.02,-4.01,-3.17,3.92,3.91,3.93
22.99,7.96,4.04,7.96,4.04,-4.06,-4.07,-3.26,3.90,3.90,3.92
23.22,8.00,4.08,8.00,4.09,-4.10,-4.13,-3.35,3.90,3.90,3.92
23.45,8.05,4.14,8.04,4.14,-4.14,-4.19,-3.44,3.91,3.91,3.90
23.69,8.09,4.19,8.09,4.19,-4.18,-4.25,-3.53,3.92,3.91,3.90
23.92,8.14,4.23,8.14,4.23,-4.22,-4.31,-3.63,3.91,3.92,3.90
24.16,8.19,4.27,8.18,4.27,-4.27,-4.37,-3.72,3.92,3.91,3.91
24.40,8.23,4.31,8.22,4.31,-4.31,-4.42,-3.82,3.91,3.91,3.91
24.65,8.26,4.35,8.26,4.35,-4.36,-4.47,-3.92,3.90,3.90,3.90
24.89,8.30,4.39,8.30,4.39,-4.40,-4.52,-4.02,3.89,3.89,3.90
25.14,8.34,4.43,8.34,4.43,-4.44,-4.57,-4.12,3.89,3.89,3.90
25.39,8.38,4.48,8.38,4.48,-4.48,-4.62,-4.22,3.90,3.90,3.90
25.65,8.42,4.52,8.42,4.53,-4.51,-4.66,-4.33,3.91,3.91,3.89
25.91,8.46,4.57,8.45,4.56,-4.53,-4.70,-4.43,3.92,3.91,3.88
26.16,8.47,4.59,8.46,4.58,-4.56,-4.74,-4.53,3.91,3.90,3.88
26.43,8.47,4.59,8.46,4.59,-4.59,-4.78,-4.63,3.88,3.88,3.88
26.69,8.47,4.59,8.46,4.59,-4.62,-4.81,-4.72,3.85,3.85,3.88
26.96,8.47,4.60,8.48,4.61,-4.65,-4.84,-4.82,3.82,3.83,3.87
27.23,8.52,4.65,8.51,4.65,-4.68,-4.87,-4.91,3.84,3.84,3.87
27.50,8.57,4.70,8.57,4.71,-4.71,-4.89,-5.00,3.86,3.86,3.87
27.77,8.63,4.77,8.62,4.76,-4.74,-4.91,-5.09,3.89,3.88,3.86
28.05,8.67,4.81,8.65,4.80,-4.77,-4.92,-5.17,3.90,3.89,3.85
28.33,8.67,4.82,8.67,4.82,-4.79,-4.94,-5.25,3.87,3.87,3.84
28.62,8.67,4.82,8.67,4.83,-4.82,-4.94,-5.32,3.85,3.85,3.84
28.90,8.67,4.82,8.67,4.83,-4.84,-4.95,-5.38,3.83,3.83,3.84
29.19,8.68,4.83,8.68,4.83,-4.86,-4.95,-5.44,3.82,3.82,3.84
29.48,8.70,4.85,8.70,4.85,-4.87,-4.94,-5.49,3.83,3.83,3.85
29.78,8.72,4.88,8.72,4.87,-4.88,-4.93,-5.53,3.83,3.83,3.84
30.08,8.74,4.89,8.73,4.89,-4.89,-4.92,-5.56,3.84,3.84,3.85
30.38,8.75,4.92,8.75,4.92,-4.90,-4.91,-5.58,3.84,3.85,3.83
30.68,8.76,4.93,8.76,4.93,-4.91,-4.89,-5.60,3.85,3.85,3.83
30.99,8.77,4.95,8.75,4.94,-4.92,-4.86,-5.60,3.85,3.84,3.82
31.30,8.74,4.92,8.74,4.92,-4.92,-4.84,-5.60,3.82,3.82,3.81
31.61,8.71,4.89,8.71,4.90,-4.92,-4.81,-5.58,3.79,3.79,3.81
31.93,8.68,4.88,8.68,4.89,-4.91,-4.77,-5.56,3.77,3.77,3.79
32.24,8.67,4.89,8.67,4.89,-4.90,-4.74,-5.52,3.77,3.77,3.78
32.57,8.67,4.89,8.67,4.89,-4.88,-4.70,-5.48,3.79,3.79,3.78
32.89,8.67,4.90,8.65,4.89,-4.86,-4.65,-5.43,3.80,3.79,3.77
33.22,8.63,4.88,8.62,4.87,-4.85,-4.61,-5.37,3.78,3.77,3.75
33.55,8.57,4.82,8.57,4.83,-4.84,-4.56,-5.30,3.73,3.73,3.74
33.89,8.51,4.78,8.52,4.79,-4.82,-4.50,-5.22,3.68,3.70,3.72
34.23,8.49,4.77,8.49,4.78,-4.80,-4.45,-5.14,3.68,3.69,3.72
34.57,8.48,4.78,8.48,4.77,-4.78,-4.39,-5.05,3.70,3.70,3.70
34.92,8.47,4.78,8.45,4.76,-4.74,-4.34,-4.96,3.72,3.71,3.69
35.27,8.42,4.73,8.41,4.74,-4.71,-4.27,-4.86,3.71,3.70,3.69
35.62,8.35,4.68,8.35,4.68,-4.67,-4.21,-4.76,3.68,3.68,3.66
35.97,8.27,4.62,8.28,4.62,-4.62,-4.15,-4.66,3.65,3.65,3.65
36.33,8.21,4.56,8.21,4.56,-4.57,-4.08,-4.55,3.64,3.64,3.65
36.70,8.14,4.50,8.14,4.50,-4.50,-4.02,-4.44,3.63,3.63,3.64
37.06,8.06,4.44,8.06,4.43,-4.43,-3.95,-4.33,3.63,3.63,3.62
37.43,7.97,4.34,7.98,4.36,-4.36,-3.88,-4.21,3.62,3.62,3.63
37.81,7.90,4.28,7.90,4.28,-4.28,-3.81,-4.10,3.61,3.62,3.62
38.19,7.82,4.21,7.81,4.20,-4.20,-3.74,-3.99,3.61,3.61,3.61
38.57,7.73,4.11,7.73,4.12,-4.12,-3.67,-3.87,3.61,3.61,3.61
38.95,7.64,4.04,7.64,4.04,-4.03,-3.59,-3.76,3.61,3.61,3.60
39.34,7.54,3.95,7.54,3.95,-3.95,-3.52,-3.64,3.60,3.60,3.60
39.74,7.45,3.86,7.45,3.86,-3.85,-3.45,-3.53,3.59,3.59,3.58
40.14,7.34,3.76,7.34,3.76,-3.76,-3.37,-3.42,3.58,3.58,3.58
40.54,7.24,3.66,7.23,3.66,-3.66,-3.30,-3.31,3.57,3.57,3.58
40.94,7.13,3.55,7.13,3.56,-3.56,-3.22,-3.20,3.56,3.57,3.57
41.35,7.03,3.46,7.02,3.46,-3.46,-3.15,-3.09,3.57,3.56,3.56
41.76,6.91,3.37,6.91,3.36,-3.35,-3.07,-2.98,3.56,3.56,3.55
42.18,6.80,3.25,6.80,3.26,-3.24,-2.99,-2.87,3.55,3.55,3.54
42.60,6.67,3.14,6.67,3.14,-3.13,-2.92,-2.77,3.54,3.54,3.53
43.03,6.55,3.02,6.54,3.03,-3.02,-2.84,-2.67,3.52,3.52,3.53
43.46,6.42,2.91,6.41,2.91,-2.92,-2.76,-2.57,3.50,3.50,3.50
43.90,6.28,2.80,6.28,2.80,-2.81,-2.69,-2.47,3.46,3.47,3.48
44.33,6.15,2.69,6.16,2.70,-2.72,-2.61,-2.37,3.44,3.44,3.46
44.78,6.05,2.61,6.04,2.60,-2.62,-2.53,-2.28,3.42,3.42,3.44
45.23,5.94,2.52,5.94,2.52,-2.53,-2.45,-2.19,3.41,3.41,3.42
45.68,5.85,2.44,5.85,2.44,-2.44,-2.37,-2.09,3.41,3.41,3.41
46.13,5.75,2.36,5.76,2.37,-2.35,-2.30,-2.01,3.41,3.41,3.39
46.60,5.67,2.28,5.67,2.28,-2.25,-2.22,-1.92,3.41,3.42,3.39
47.06,5.58,2.20,5.56,2.18,-2.15,-2.14,-1.83,3.42,3.40,3.38
47.53,5.43,2.05,5.43,2.06,-2.05,-2.05,-1.75,3.37,3.38,3.37
48.01,5.29,1.92,5.30,1.93,-1.95,-1.97,-1.67,3.34,3.35,3.37
48.49,5.17,1.82,5.17,1.82,-1.84,-1.89,-1.59,3.33,3.33,3.35
48.97,5.06,1.72,5.05,1.72,-1.73,-1.81,-1.51,3.33,3.33,3.33
49.46,4.95,1.62,4.94,1.62,-1.62,-1.73,-1.43,3.33,3.33,3.33
49.96,4.84,1.53,4.84,1.52,-1.52,-1.64,-1.35,3.32,3.32,3.31
50.46,4.74,1.42,4.73,1.42,-1.42,-1.56,-1.28,3.32,3.31,3.32
50.96,4.64,1.32,4.63,1.32,-1.33,-1.47,-1.21,3.31,3.31,3.31
51.47,4.54,1.23,4.54,1.23,-1.24,-1.38,-1.14,3.30,3.30,3.31
51.99,4.45,1.15,4.46,1.16,-1.15,-1.30,-1.07,3.30,3.31,3.30
52.51,4.38,1.08,4.38,1.08,-1.07,-1.21,-1.01,3.31,3.31,3.30
53.03,4.31,1.01,4.28,0.99,-0.99,-1.12,-0.94,3.32,3.30,3.30
53.56,4.19,0.90,4.19,0.90,-0.91,-1.03,-0.88,3.28,3.28,3.29
54.10,4.08,0.80,4.10,0.82,-0.84,-0.94,-0.82,3.24,3.27,3.28
54.64,4.04,0.76,4.03,0.76,-0.76,-0.86,-0.77,3.27,3.27,3.28
55.18,3.99,0.72,3.98,0.71,-0.69,-0.77,-0.71,3.29,3.29,3.27
55.74,3.92,0.66,3.91,0.65,-0.62,-0.68,-0.66,3.29,3.28,3.26
56.29,3.83,0.57,3.81,0.56,-0.56,-0.60,-0.61,3.27,3.26,3.26
56.86,3.70,0.46,3.72,0.49,-0.49,-0.51,-0.56,3.21,3.24,3.24
57.42,3.64,0.41,3.64,0.42,-0.42,-0.43,-0.52,3.21,3.22,3.22
58.00,3.60,0.38,3.57,0.36,-0.36,-0.35,-0.47,3.23,3.21,3.21
58.58,3.51,0.31,3.50,0.31,-0.30,-0.28,-0.43,3.20,3.20,3.20
59.16,3.42,0.23,3.43,0.25,-0.25,-0.21,-0.40,3.17,3.18,3.19
59.76,3.36,0.19,3.35,0.19,-0.20,-0.14,-0.37,3.15,3.15,3.16
60.35,3.30,0.16,3.29,0.15,-0.17,-0.08,-0.33,3.13,3.13,3.14
60.96,3.24,0.12,3.24,0.13,-0.13,-0.03,-0.31,3.11,3.11,3.11
61.57,3.19,0.12,3.19,0.11,-0.10,0.02,-0.28,3.09,3.09,3.07
62.18,3.14,0.10,3.13,0.09,-0.08,0.05,-0.26,3.06,3.05,3.03
62.80,3.07,0.07,3.06,0.07,-0.06,0.08,-0.25,3.00,3.00,3.00
63.43,3.01,0.05,3.00,0.05,-0.06,0.10,-0.23,2.94,2.94,2.96
64.07,2.95,0.02,2.96,0.03,-0.06,0.12,-0.22,2.88,2.90,2.92
64.71,2.94,0.05,2.93,0.04,-0.07,0.12,-0.21,2.87,2.87,2.89
65.35,2.93,0.07,2.93,0.07,-0.07,0.12,-0.21,2.85,2.85,2.86
66.01,2.93,0.11,2.92,0.11,-0.08,0.11,-0.20,2.84,2.84,2.82
66.67,2.92,0.14,2.91,0.12,-0.09,0.09,-0.20,2.82,2.81,2.78
67.33,2.88,0.12,2.88,0.13,-0.11,0.06,-0.21,2.77,2.77,2.75
68.01,2.83,0.12,2.83,0.12,-0.12,0.03,-0.21,2.70,2.71,2.71
68.69,2.80,0.13,2.79,0.12,-0.13,-0.00,-0.22,2.66,2.66,2.67
69.37,2.76,0.13,2.76,0.13,-0.14,-0.04,-0.23,2.61,2.61,2.63
70.07,2.73,0.14,2.74,0.15,-0.15,-0.09,-0.24,2.58,2.59,2.59
70.77,2.73,0.17,2.73,0.18,-0.16,-0.14,-0.26,2.56,2.56,2.55
71.48,2.73,0.21,2.71,0.20,-0.19,-0.19,-0.27,2.54,2.52,2.51
72.19,2.70,0.23,2.68,0.22,-0.22,-0.24,-0.29,2.47,2.46,2.47
72.91,2.64,0.22,2.65,0.23,-0.27,-0.29,-0.31,2.37,2.38,2.41
73.64,2.63,0.26,2.65,0.28,-0.31,-0.34,-0.33,2.31,2.34,2.37
74.38,2.68,0.35,2.68,0.36,-0.36,-0.40,-0.36,2.31,2.31,2.32
75.12,2.75,0.47,2.72,0.44,-0.41,-0.45,-0.38,2.33,2.30,2.28
75.87,2.74,0.50,2.74,0.50,-0.46,-0.51,-0.41,2.27,2.27,2.24
76.63,2.73,0.52,2.74,0.53,-0.51,-0.56,-0.44,2.21,2.22,2.20
77.40,2.73,0.56,2.73,0.56,-0.56,-0.61,-0.46,2.17,2.17,2.17
78.17,2.73,0.60,2.72,0.59,-0.60,-0.66,-0.49,2.13,2.12,2.13
78.95,2.73,0.63,2.73,0.63,-0.63,-0.71,-0.53,2.09,2.09,2.10
79.74,2.73,0.66,2.73,0.66,-0.66,-0.76,-0.56,2.07,2.07,2.07
80.54,2.73,0.69,2.73,0.69,-0.68,-0.81,-0.59,2.04,2.04,2.04
81.35,2.73,0.72,2.73,0.72,-0.71,-0.85,-0.62,2.01,2.02,2.01
82.16,2.73,0.75,2.72,0.74,-0.75,-0.90,-0.66,1.98,1.97,1.98
82.98,2.73,0.77,2.72,0.77,-0.79,-0.94,-0.69,1.94,1.93,1.95
83.81,2.71,0.79,2.73,0.81,-0.83,-0.99,-0.73,1.88,1.90,1.91
84.65,2.75,0.87,2.75,0.87,-0.87,-1.03,-0.77,1.87,1.88,1.88
85.50,2.80,0.94,2.78,0.93,-0.92,-1.07,-0.81,1.88,1.87,1.86
86.35,2.83,1.00,2.82,1.00,-0.97,-1.11,-0.84,1.86,1.85,1.82
87.22,2.83,1.04,2.83,1.04,-1.03,-1.15,-0.88,1.80,1.80,1.79
88.09,2.84,1.08,2.83,1.08,-1.09,-1.18,-0.92,1.75,1.74,1.75
88.97,2.84,1.11,2.84,1.12,-1.16,-1.22,-0.97,1.68,1.69,1.73
89.86,2.88,1.18,2.88,1.19,-1.22,-1.25,-1.01,1.66,1.66,1.69
90.76,2.93,1.27,2.94,1.28,-1.28,-1.29,-1.05,1.64,1.65,1.66
91.66,3.01,1.38,2.99,1.36,-1.34,-1.32,-1.09,1.67,1.65,1.63
92.58,3.04,1.44,3.03,1.43,-1.39,-1.35,-1.14,1.64,1.63,1.59
93.51,3.04,1.47,3.04,1.48,-1.45,-1.39,-1.18,1.59,1.59,1.57
94.44,3.04,1.50,3.04,1.50,-1.50,-1.42,-1.22,1.54,1.54,1.54
95.39,3.04,1.53,3.04,1.53,-1.54,-1.45,-1.27,1.49,1.49,1.51
96.34,3.04,1.56,3.03,1.56,-1.58,-1.47,-1.31,1.46,1.45,1.47
97.30,3.03,1.58,3.03,1.58,-1.61,-1.50,-1.36,1.42,1.42,1.44
98.28,3.03,1.61,3.04,1.62,-1.63,-1.53,-1.41,1.40,1.41,1.41
99.26,3.06,1.66,3.06,1.67,-1.64,-1.55,-1.45,1.41,1.42,1.40
100.25,3.09,1.72,3.06,1.69,-1.66,-1.58,-1.50,1.43,1.40,1.37
101.25,3.05,1.71,3.03,1.70,-1.67,-1.60,-1.54,1.37,1.36,1.34
102.27,2.96,1.65,2.99,1.69,-1.68,-1.63,-1.59,1.27,1.30,1.31
103.29,2.95,1.69,2.94,1.67,-1.70,-1.65,-1.64,1.24,1.24,1.26
104.32,2.93,1.69,2.91,1.68,-1.72,-1.67,-1.68,1.21,1.19,1.24
105.37,2.90,1.70,2.91,1.71,-1.74,-1.69,-1.72,1.16,1.17,1.20
106.42,2.90,1.73,2.91,1.74,-1.75,-1.71,-1.77,1.15,1.16,1.17
107.48,2.93,1.79,2.92,1.79,-1.76,-1.72,-1.81,1.16,1.15,1.13
108.56,2.93,1.83,2.92,1.83,-1.78,-1.74,-1.85,1.14,1.14,1.09
109.64,2.91,1.85,2.89,1.84,-1.80,-1.75,-1.89,1.10,1.09,1.05
110.74,2.85,1.82,2.84,1.82,-1.82,-1.77,-1.92,1.03,1.02,1.02
111.85,2.78,1.78,2.79,1.81,-1.83,-1.78,-1.96,0.94,0.96,0.99
112.97,2.76,1.81,2.76,1.80,-1.84,-1.79,-1.99,0.91,0.92,0.95
114.10,2.76,1.83,2.75,1.83,-1.85,-1.80,-2.02,0.90,0.90,0.93
115.24,2.76,1.87,2.76,1.87,-1.86,-1.80,-2.04,0.90,0.90,0.89
116.39,2.76,1.89,2.75,1.89,-1.86,-1.81,-2.07,0.89,0.88,0.86
117.55,2.74,1.90,2.72,1.89,-1.87,-1.81,-2.09,0.86,0.85,0.83
118.73,2.68,1.87,2.70,1.88,-1.88,-1.82,-2.10,0.79,0.81,0.81
119.92,2.67,1.87,2.68,1.89,-1.89,-1.82,-2.11,0.77,0.78,0.80
121.12,2.68,1.90,2.66,1.89,-1.90,-1.82,-2.12,0.78,0.76,0.77
122.33,2.66,1.90,2.65,1.89,-1.89,-1.81,-2.12,0.76,0.75,0.76
123.55,2.62,1.87,2.63,1.89,-1.88,-1.81,-2.12,0.73,0.75,0.75
124.79,2.60,1.87,2.61,1.88,-1.87,-1.80,-2.12,0.72,0.74,0.72
126.03,2.61,1.90,2.58,1.87,-1.86,-1.79,-2.11,0.75,0.72,0.71
127.29,2.55,1.85,2.54,1.85,-1.84,-1.78,-2.09,0.70,0.70,0.69
128.57,2.49,1.82,2.50,1.82,-1.82,-1.77,-2.07,0.66,0.68,0.67
129.85,2.44,1.78,2.44,1.78,-1.80,-1.76,-2.05,0.64,0.65,0.66
131.15,2.42,1.77,2.40,1.75,-1.77,-1.74,-2.02,0.65,0.63,0.64
132.46,2.35,1.71,2.36,1.73,-1.74,-1.72,-1.99,0.61,0.63,0.63
133.79,2.33,1.70,2.33,1.71,-1.70,-1.70,-1.95,0.62,0.62,0.63
135.12,2.30,1.70,2.28,1.67,-1.67,-1.68,-1.91,0.63,0.61,0.60
136.48,2.24,1.64,2.23,1.64,-1.63,-1.66,-1.87,0.60,0.60,0.60
137.84,2.17,1.59,2.16,1.59,-1.59,-1.63,-1.83,0.57,0.57,0.58
139.22,2.09,1.54,2.11,1.56,-1.55,-1.60,-1.78,0.54,0.56,0.55
140.61,2.04,1.51,2.05,1.52,-1.50,-1.57,-1.72,0.54,0.55,0.53
142.02,2.05,1.52,1.98,1.46,-1.44,-1.54,-1.67,0.60,0.54,0.53
143.44,1.88,1.36,1.91,1.40,-1.39,-1.51,-1.61,0.49,0.52,0.51
144.87,1.80,1.31,1.83,1.34,-1.34,-1.48,-1.56,0.46,0.49,0.48
146.32,1.77,1.31,1.75,1.29,-1.30,-1.44,-1.50,0.46,0.44,0.46
147.78,1.70,1.26,1.68,1.25,-1.28,-1.41,-1.43,0.41,0.40,0.43
149.26,1.62,1.22,1.60,1.21,-1.26,-1.37,-1.37,0.35,0.34,0.40
150.75,1.51,1.16,1.56,1.22,-1.25,-1.33,-1.31,0.26,0.32,0.34
152.26,1.53,1.23,1.54,1.25,-1.24,-1.29,-1.24,0.29,0.31,0.30
153.78,1.60,1.35,1.51,1.27,-1.22,-1.25,-1.18,0.37,0.28,0.24
155.32,1.44,1.26,1.47,1.28,-1.22,-1.20,-1.11,0.22,0.25,0.18
156.88,1.34,1.21,1.35,1.23,-1.21,-1.16,-1.05,0.13,0.14,0.13
158.44,1.27,1.21,1.22,1.16,-1.20,-1.11,-0.98,0.07,0.02,0.06
160.03,1.09,1.09,1.13,1.14,-1.18,-1.07,-0.91,-0.10,-0.05,-0.01
161.63,1.06,1.11,1.06,1.12,-1.15,-1.02,-0.84,-0.10,-0.09,-0.06
163.24,1.02,1.13,1.00,1.11,-1.11,-0.97,-0.78,-0.10,-0.11,-0.12
164.88,0.95,1.09,0.96,1.11,-1.07,-0.92,-0.71,-0.12,-0.11,-0.15
166.53,0.89,1.07,0.87,1.06,-1.02,-0.87,-0.64,-0.14,-0.15,-0.19
168.19,0.79,1.00,0.77,0.99,-0.98,-0.82,-0.58,-0.19,-0.20,-0.22
169.87,0.65,0.89,0.67,0.91,-0.92,-0.77,-0.51,-0.27,-0.25,-0.24
171.57,0.58,0.84,0.57,0.83,-0.85,-0.71,-0.44,-0.28,-0.28,-0.26
173.29,0.50,0.76,0.50,0.77,-0.77,-0.66,-0.38,-0.28,-0.28,-0.27
175.02,0.43,0.70,0.42,0.70,-0.69,-0.61,-0.31,-0.26,-0.26,-0.27
176.77,0.35,0.63,0.33,0.61,-0.60,-0.55,-0.25,-0.26,-0.27,-0.28
178.54,0.24,0.52,0.24,0.52,-0.52,-0.50,-0.18,-0.28,-0.28,-0.29
180.32,0.14,0.41,0.15,0.43,-0.44,-0.44,-0.12,-0.31,-0.29,-0.27
182.13,0.08,0.34,0.07,0.34,-0.36,-0.39,-0.05,-0.29,-0.29,-0.27
183.95,0.02,0.29,0.00,0.27,-0.28,-0.33,0.01,-0.26,-0.28,-0.27
185.79,-0.07,0.20,-0.07,0.21,-0.19,-0.27,0.08,-0.27,-0.26,-0.27
187.65,-0.15,0.13,-0.14,0.15,-0.12,-0.21,0.14,-0.27,-0.25,-0.29
189.52,-0.20,0.09,-0.22,0.07,-0.05,-0.15,0.20,-0.26,-0.28,-0.29
191.42,-0.30,-0.00,-0.33,-0.02,0.00,-0.09,0.27,-0.30,-0.33,-0.30
193.33,-0.43,-0.12,-0.43,-0.11,0.05,-0.04,0.33,-0.38,-0.37,-0.31
195.27,-0.53,-0.21,-0.48,-0.15,0.11,0.03,0.39,-0.43,-0.38,-0.33
197.22,-0.50,-0.16,-0.50,-0.15,0.16,0.09,0.46,-0.34,-0.34,-0.35
199.19,-0.46,-0.10,-0.52,-0.16,0.21,0.15,0.52,-0.25,-0.31,-0.37
201.18,-0.58,-0.20,-0.58,-0.20,0.27,0.21,0.58,-0.32,-0.32,-0.38
203.19,-0.70,-0.31,-0.69,-0.29,0.31,0.27,0.64,-0.39,-0.37,-0.39
205.23,-0.81,-0.39,-0.80,-0.39,0.36,0.33,0.70,-0.45,-0.43,-0.42
207.28,-0.87,-0.46,-0.89,-0.46,0.41,0.40,0.77,-0.46,-0.48,-0.42
209.35,-0.94,-0.50,-0.96,-0.51,0.48,0.46,0.83,-0.47,-0.48,-0.45
211.44,-1.06,-0.60,-1.00,-0.54,0.54,0.53,0.89,-0.52,-0.46,-0.47
213.56,-1.02,-0.55,-1.06,-0.58,0.61,0.59,0.95,-0.42,-0.45,-0.48
215.69,-1.09,-0.61,-1.14,-0.65,0.67,0.66,1.01,-0.42,-0.47,-0.48
217.85,-1.24,-0.75,-1.21,-0.72,0.73,0.73,1.06,-0.51,-0.48,-0.49
220.03,-1.34,-0.83,-1.32,-0.81,0.80,0.79,1.12,-0.54,-0.52,-0.51
222.23,-1.37,-0.86,-1.40,-0.89,0.88,0.86,1.18,-0.50,-0.52,-0.52
224.45,-1.45,-0.95,-1.45,-0.94,0.96,0.93,1.24,-0.50,-0.49,-0.50
226.70,-1.53,-1.03,-1.54,-1.04,1.05,1.00,1.29,-0.49,-0.49,-0.50
228.96,-1.60,-1.11,-1.64,-1.15,1.14,1.07,1.35,-0.47,-0.51,-0.50
231.25,-1.77,-1.29,-1.70,-1.22,1.22,1.14,1.40,-0.55,-0.48,-0.48
233.57,-1.77,-1.30,-1.77,-1.30,1.31,1.21,1.45,-0.47,-0.47,-0.47
235.90,-1.75,-1.30,-1.85,-1.39,1.38,1.29,1.50,-0.37,-0.47,-0.46
238.26,-1.94,-1.51,-1.89,-1.46,1.45,1.36,1.55,-0.50,-0.44,-0.43
240.64,-1.98,-1.58,-1.94,-1.54,1.51,1.43,1.60,-0.47,-0.43,-0.41
243.05,-1.93,-1.56,-1.97,-1.59,1.57,1.51,1.65,-0.37,-0.40,-0.37
245.48,-1.95,-1.61,-1.97,-1.62,1.62,1.58,1.70,-0.33,-0.35,-0.35
247.93,-1.98,-1.66,-1.98,-1.65,1.68,1.66,1.74,-0.31,-0.30,-0.32
250.41,-2.04,-1.74,-2.00,-1.70,1.74,1.74,1.79,-0.31,-0.26,-0.31
252.92,-1.99,-1.72,-2.04,-1.77,1.79,1.82,1.83,-0.20,-0.25,-0.27
255.45,-2.07,-1.83,-2.10,-1.85,1.85,1.89,1.87,-0.23,-0.25,-0.25
258.00,-2.20,-1.97,-2.15,-1.92,1.91,1.97,1.91,-0.30,-0.25,-0.23
260.58,-2.22,-2.01,-2.22,-2.01,1.97,2.05,1.95,-0.25,-0.25,-0.22
263.19,-2.22,-2.03,-2.26,-2.06,2.04,2.13,1.99,-0.18,-0.22,-0.19
265.82,-2.30,-2.13,-2.28,-2.11,2.12,2.21,2.03,-0.19,-0.17,-0.17
268.48,-2.31,-2.17,-2.30,-2.16,2.20,2.29,2.07,-0.12,-0.11,-0.15
271.16,-2.36,-2.24,-2.37,-2.24,2.28,2.37,2.10,-0.08,-0.09,-0.12
273.87,-2.38,-2.28,-2.45,-2.35,2.37,2.45,2.14,-0.02,-0.09,-0.10
276.61,-2.60,-2.53,-2.53,-2.45,2.45,2.53,2.18,-0.15,-0.08,-0.08
279.38,-2.63,-2.58,-2.61,-2.55,2.54,2.61,2.21,-0.09,-0.06,-0.05
282.17,-2.61,-2.58,-2.70,-2.67,2.63,2.69,2.25,0.02,-0.07,-0.03
284.99,-2.75,-2.76,-2.74,-2.74,2.72,2.77,2.29,-0.04,-0.02,0.00
287.84,-2.85,-2.89,-2.77,-2.81,2.80,2.85,2.33,-0.06,0.02,0.03
290.72,-2.75,-2.82,-2.80,-2.87,2.87,2.92,2.37,0.12,0.07,0.07
293.63,-2.78,-2.88,-2.82,-2.92,2.94,3.00,2.40,0.15,0.12,0.10
296.57,-2.86,-3.00,-2.87,-2.99,3.01,3.07,2.45,0.14,0.14,0.13
299.53,-2.97,-3.13,-2.91,-3.06,3.08,3.14,2.49,0.10,0.17,0.15
302.53,-2.95,-3.13,-2.96,-3.14,3.14,3.21,2.53,0.19,0.19,0.18
305.55,-2.91,-3.13,-3.01,-3.22,3.21,3.28,2.57,0.30,0.20,0.22
308.61,-3.11,-3.35,-3.05,-3.29,3.28,3.34,2.62,0.17,0.23,0.23
311.69,-3.14,-3.40,-3.11,-3.37,3.35,3.41,2.67,0.21,0.24,0.25
314.81,-3.12,-3.41,-3.16,-3.45,3.43,3.46,2.72,0.31,0.27,0.29
317.96,-3.18,-3.48,-3.19,-3.49,3.51,3.52,2.77,0.32,0.32,0.30
321.14,-3.24,-3.56,-3.23,-3.55,3.58,3.57,2.82,0.34,0.35,0.32
324.35,-3.32,-3.65,-3.30,-3.63,3.65,3.62,2.88,0.33,0.35,0.33
327.59,-3.32,-3.67,-3.38,-3.72,3.71,3.67,2.93,0.39,0.33,0.34
330.87,-3.46,-3.82,-3.46,-3.81,3.77,3.72,2.99,0.30,0.31,0.35
334.18,-3.56,-3.92,-3.52,-3.88,3.83,3.76,3.06,0.27,0.31,0.36
337.52,-3.55,-3.92,-3.54,-3.91,3.90,3.80,3.12,0.35,0.37,0.37
340.90,-3.51,-3.90,-3.54,-3.92,3.97,3.83,3.19,0.46,0.44,0.39
344.30,-3.50,-3.90,-3.57,-3.97,4.04,3.87,3.26,0.53,0.47,0.40
347.75,-3.68,-4.09,-3.64,-4.04,4.09,3.90,3.33,0.41,0.45,0.40
351.23,-3.76,-4.18,-3.74,-4.15,4.13,3.93,3.41,0.37,0.40,0.41
354.74,-3.77,-4.19,-3.83,-4.25,4.17,3.95,3.49,0.40,0.33,0.41
358.28,-3.87,-4.30,-3.84,-4.26,4.20,3.98,3.57,0.32,0.36,0.42
361.87,-3.87,-4.29,-3.81,-4.23,4.21,4.00,3.65,0.34,0.40,0.42
365.49,-3.69,-4.12,-3.77,-4.20,4.20,4.02,3.74,0.51,0.43,0.43
369.14,-3.69,-4.12,-3.72,-4.14,4.17,4.04,3.83,0.47,0.45,0.43
372.83,-3.72,-4.15,-3.69,-4.12,4.11,4.06,3.92,0.39,0.43,0.43
376.56,-3.68,-4.11,-3.67,-4.10,4.06,4.08,4.01,0.37,0.39,0.43
380.33,-3.59,-4.04,-3.59,-4.03,4.00,4.10,4.11,0.41,0.41,0.44
384.13,-3.49,-3.93,-3.50,-3.94,3.97,4.12,4.21,0.48,0.47,0.43
387.97,-3.43,-3.87,-3.45,-3.89,3.95,4.14,4.31,0.52,0.50,0.43
391.85,-3.43,-3.87,-3.44,-3.88,3.94,4.16,4.41,0.51,0.50,0.43
395.77,-3.50,-3.95,-3.49,-3.93,3.95,4.17,4.51,0.45,0.46,0.44
399.73,-3.54,-3.99,-3.56,-4.00,3.97,4.19,4.62,0.43,0.41,0.44
403.72,-3.63,-4.06,-3.61,-4.05,4.01,4.21,4.73,0.38,0.40,0.43
407.76,-3.66,-4.09,-3.65,-4.08,4.07,4.22,4.84,0.41,0.42,0.43
411.84,-3.65,-4.09,-3.69,-4.12,4.13,4.24,4.95,0.48,0.44,0.44
415.96,-3.73,-4.16,-3.74,-4.17,4.19,4.26,5.05,0.45,0.45,0.43
420.12,-3.80,-4.23,-3.80,-4.23,4.23,4.27,5.16,0.43,0.43,0.43
424.32,-3.88,-4.32,-3.85,-4.28,4.27,4.29,5.27,0.38,0.41,0.44
428.56,-3.86,-4.30,-3.87,-4.31,4.29,4.31,5.38,0.42,0.41,0.44
432.85,-3.84,-4.30,-3.87,-4.32,4.30,4.32,5.48,0.46,0.43,0.46
437.18,-3.86,-4.34,-3.84,-4.32,4.31,4.34,5.59,0.44,0.47,0.48
441.55,-3.80,-4.32,-3.80,-4.31,4.30,4.36,5.68,0.50,0.50,0.51
445.96,-3.74,-4.29,-3.75,-4.30,4.30,4.37,5.78,0.55,0.55,0.54
450.42,-3.68,-4.26,-3.69,-4.27,4.29,4.38,5.87,0.61,0.60,0.57
454.93,-3.63,-4.27,-3.63,-4.25,4.28,4.40,5.95,0.65,0.66,0.63
459.48,-3.57,-4.25,-3.58,-4.26,4.28,4.41,6.03,0.70,0.70,0.67
464.07,-3.53,-4.27,-3.55,-4.28,4.28,4.42,6.10,0.74,0.73,0.73
468.71,-3.53,-4.32,-3.52,-4.30,4.29,4.43,6.17,0.75,0.77,0.78
473.40,-3.49,-4.33,-3.48,-4.32,4.30,4.43,6.22,0.80,0.81,0.83
478.13,-3.43,-4.32,-3.44,-4.32,4.32,4.44,6.27,0.88,0.88,0.88
482.91,-3.39,-4.32,-3.40,-4.32,4.34,4.44,6.30,0.95,0.94,0.92
487.74,-3.36,-4.34,-3.38,-4.35,4.37,4.44,6.33,1.00,0.98,0.97
492.62,-3.39,-4.40,-3.38,-4.39,4.39,4.44,6.34,0.99,1.01,1.01
497.55,-3.38,-4.42,-3.37,-4.42,4.41,4.43,6.34,1.03,1.04,1.04
502.52,-3.36,-4.43,-3.38,-4.44,4.43,4.43,6.34,1.07,1.06,1.07
507.55,-3.37,-4.45,-3.38,-4.47,4.46,4.42,6.32,1.08,1.07,1.08
512.62,-3.41,-4.50,-3.40,-4.49,4.48,4.42,6.29,1.06,1.08,1.09
517.75,-3.41,-4.51,-3.41,-4.50,4.49,4.42,6.25,1.08,1.08,1.10
522.93,-3.42,-4.51,-3.43,-4.52,4.51,4.43,6.20,1.09,1.08,1.09
