frequency,raw,error,smoothed,error_smoothed,equalization,parametric_eq,fixed_band_eq,equalized_raw,equalized_smoothed,target
20.00,-13.05,-19.82,-13.05,-19.82,6.00,5.86,2.67,-7.05,-7.05,6.77
20.20,-12.94,-19.71,-12.94,-19.71,6.00,5.86,2.75,-6.94,-6.94,6.77
20.40,-12.83,-19.61,-12.83,-19.61,6.00,5.87,2.83,-6.83,-6.83,6.78
20.61,-12.73,-19.51,-12.72,-19.51,6.00,5.87,2.91,-6.73,-6.72,6.79
20.81,-12.61,-19.40,-12.61,-19.40,6.00,5.87,2.99,-6.61,-6.61,6.79
21.02,-12.50,-19.30,-12.50,-19.29,6.00,5.87,3.08,-6.50,-6.50,6.80
21.23,-12.39,-19.19,-12.39,-19.19,6.00,5.87,3.16,-6.39,-6.39,6.80
21.44,-12.27,-19.08,-12.28,-19.08,6.00,5.88,3.25,-6.27,-6.28,6.80
21.66,-12.16,-18.98,-12.16,-18.97,6.00,5.88,3.34,-6.16,-6.16,6.81
21.87,-12.05,-18.87,-12.05,-18.87,6.00,5.88,3.44,-6.05,-6.05,6.81
22.09,-11.93,-18.76,-11.93,-18.76,6.00,5.88,3.54,-5.93,-5.93,6.82
22.31,-11.81,-18.64,-11.82,-18.64,6.00,5.88,3.64,-5.81,-5.82,6.83
22.54,-11.70,-18.54,-11.70,-18.54,6.00,5.89,3.74,-5.70,-5.70,6.83
22.76,-11.58,-18.42,-11.59,-18.43,6.00,5.89,3.85,-5.58,-5.59,6.84
22.99,-11.47,-18.33,-11.47,-18.32,6.00,5.89,3.95,-5.47,-5.47,6.85
23.22,-11.35,-18.21,-11.35,-18.21,6.00,5.89,4.06,-5.35,-5.35,6.86
23.45,-11.23,-18.10,-11.23,-18.11,6.00,5.89,4.18,-5.23,-5.23,6.87
23.69,-11.12,-18.00,-11.12,-18.00,6.00,5.90,4.29,-5.12,-5.12,6.88
23.92,-11.00,-17.89,-11.00,-17.89,6.00,5.90,4.41,-5.00,-5.00,6.89
24.16,-10.88,-17.78,-10.88,-17.78,6.00,5.90,4.53,-4.88,-4.88,6.90
24.40,-10.76,-17.67,-10.76,-17.68,6.00,5.90,4.65,-4.76,-4.76,6.91
24.65,-10.64,-17.57,-10.64,-17.57,6.00,5.91,4.78,-4.64,-4.64,6.93
24.89,-10.52,-17.46,-10.52,-17.46,6.00,5.91,4.90,-4.52,-4.52,6.94
25.14,-10.40,-17.35,-10.40,-17.35,6.00,5.91,5.03,-4.40,-4.40,6.95
25.39,-10.28,-17.24,-10.28,-17.24,6.00,5.91,5.16,-4.28,-4.28,6.96
25.65,-10.16,-17.13,-10.16,-17.13,6.00,5.92,5.29,-4.16,-4.16,6.97
25.91,-10.04,-17.02,-10.04,-17.02,6.00,5.92,5.41,-4.04,-4.04,6.98
26.16,-9.91,-16.91,-9.91,-16.91,6.00,5.92,5.54,-3.91,-3.91,6.99
26.43,-9.79,-16.80,-9.79,-16.80,6.00,5.92,5.67,-3.79,-3.79,7.00
26.69,-9.67,-16.69,-9.67,-16.69,6.00,5.93,5.80,-3.67,-3.67,7.01
26.96,-9.55,-16.59,-9.55,-16.58,6.00,5.93,5.93,-3.55,-3.55,7.03
27.23,-9.43,-16.48,-9.43,-16.47,6.00,5.93,6.05,-3.43,-3.43,7.04
27.50,-9.30,-16.36,-9.31,-16.37,6.00,5.94,6.18,-3.30,-3.31,7.06
27.77,-9.18,-16.25,-9.18,-16.25,6.00,5.94,6.29,-3.18,-3.18,7.07
28.05,-9.06,-16.15,-9.06,-16.15,6.00,5.94,6.41,-3.06,-3.06,7.09
28.33,-8.93,-16.03,-8.94,-16.04,6.00,5.94,6.52,-2.93,-2.94,7.10
28.62,-8.82,-15.93,-8.81,-15.93,6.00,5.95,6.63,-2.82,-2.81,7.12
28.90,-8.68,-15.81,-8.69,-15.81,6.00,5.95,6.72,-2.68,-2.69,7.13
29.19,-8.56,-15.71,-8.56,-15.71,6.00,5.95,6.82,-2.56,-2.56,7.14
29.48,-8.44,-15.60,-8.44,-15.59,6.00,5.95,6.90,-2.44,-2.44,7.15
29.78,-8.31,-15.49,-8.32,-15.49,6.00,5.96,6.98,-2.31,-2.32,7.17
30.08,-8.20,-15.38,-8.19,-15.38,6.00,5.96,7.04,-2.20,-2.19,7.18
30.38,-8.07,-15.27,-8.07,-15.27,6.00,5.96,7.10,-2.07,-2.07,7.20
30.68,-7.95,-15.16,-7.96,-15.17,6.00,5.97,7.15,-1.95,-1.96,7.21
30.99,-7.84,-15.07,-7.84,-15.07,6.00,5.97,7.19,-1.84,-1.84,7.23
31.30,-7.72,-14.96,-7.72,-14.96,6.00,5.97,7.22,-1.72,-1.72,7.24
31.61,-7.60,-14.86,-7.61,-14.86,6.00,5.98,7.24,-1.60,-1.61,7.25
31.93,-7.48,-14.75,-7.48,-14.75,6.00,5.98,7.25,-1.48,-1.48,7.26
32.24,-7.36,-14.64,-7.36,-14.64,6.00,5.98,7.25,-1.36,-1.36,7.28
32.57,-7.23,-14.52,-7.24,-14.53,6.00,5.98,7.24,-1.23,-1.24,7.29
32.89,-7.11,-14.42,-7.11,-14.42,6.00,5.99,7.22,-1.11,-1.11,7.31
33.22,-6.98,-14.30,-6.98,-14.30,6.00,5.99,7.20,-0.98,-0.98,7.32
33.55,-6.86,-14.20,-6.86,-14.19,6.00,5.99,7.17,-0.86,-0.86,7.33
33.89,-6.73,-14.08,-6.73,-14.08,6.00,6.00,7.12,-0.73,-0.73,7.34
34.23,-6.61,-13.97,-6.61,-13.97,6.00,6.00,7.08,-0.61,-0.61,7.36
34.57,-6.48,-13.85,-6.49,-13.86,6.00,6.00,7.03,-0.48,-0.49,7.37
34.92,-6.36,-13.74,-6.36,-13.75,6.00,6.01,6.97,-0.36,-0.36,7.38
35.27,-6.24,-13.64,-6.24,-13.63,6.00,6.01,6.91,-0.24,-0.24,7.39
35.62,-6.11,-13.52,-6.12,-13.52,6.00,6.01,6.85,-0.11,-0.12,7.40
35.97,-5.99,-13.40,-5.99,-13.40,6.00,6.01,6.78,0.01,0.01,7.41
36.33,-5.87,-13.29,-5.87,-13.29,6.00,6.02,6.71,0.13,0.13,7.42
36.70,-5.75,-13.18,-5.75,-13.18,6.00,6.02,6.64,0.25,0.25,7.42
37.06,-5.63,-13.06,-5.63,-13.06,6.00,6.02,6.57,0.37,0.37,7.43
37.43,-5.49,-12.93,-5.50,-12.94,6.00,6.03,6.51,0.51,0.50,7.44
37.81,-5.36,-12.81,-5.36,-12.81,6.00,6.03,6.44,0.64,0.64,7.45
38.19,-5.23,-12.69,-5.23,-12.69,6.00,6.03,6.37,0.77,0.77,7.45
38.57,-5.10,-12.56,-5.10,-12.56,6.00,6.03,6.31,0.90,0.90,7.46
38.95,-4.97,-12.44,-4.97,-12.44,6.00,6.04,6.24,1.03,1.03,7.47
39.34,-4.85,-12.33,-4.85,-12.32,6.00,6.04,6.18,1.15,1.15,7.47
39.74,-4.72,-12.21,-4.73,-12.20,6.00,6.04,6.13,1.28,1.27,7.48
40.14,-4.60,-12.08,-4.60,-12.08,6.00,6.04,6.07,1.40,1.40,7.48
40.54,-4.47,-11.96,-4.48,-11.96,6.00,6.05,6.02,1.53,1.52,7.48
40.94,-4.35,-11.84,-4.35,-11.84,6.00,6.05,5.97,1.65,1.65,7.49
41.35,-4.22,-11.72,-4.22,-11.72,6.00,6.05,5.93,1.78,1.78,7.50
41.76,-4.09,-11.59,-4.10,-11.60,6.00,6.05,5.89,1.91,1.90,7.50
42.18,-3.97,-11.48,-3.97,-11.48,6.00,6.06,5.85,2.03,2.03,7.51
42.60,-3.84,-11.36,-3.85,-11.36,6.00,6.06,5.82,2.16,2.15,7.51
43.03,-3.72,-11.24,-3.72,-11.24,6.00,6.06,5.79,2.28,2.28,7.52
43.46,-3.60,-11.13,-3.60,-11.12,6.00,6.06,5.77,2.40,2.40,7.52
43.90,-3.47,-11.00,-3.48,-11.01,6.00,6.06,5.75,2.53,2.52,7.53
44.33,-3.35,-10.90,-3.35,-10.89,6.00,6.06,5.73,2.65,2.65,7.55
44.78,-3.23,-10.78,-3.23,-10.78,6.00,6.07,5.72,2.77,2.77,7.55
45.23,-3.11,-10.67,-3.11,-10.67,6.00,6.07,5.72,2.89,2.89,7.55
45.68,-2.99,-10.56,-3.00,-10.56,6.00,6.07,5.71,3.01,3.00,7.57
46.13,-2.88,-10.46,-2.88,-10.46,6.00,6.07,5.72,3.12,3.12,7.57
46.60,-2.77,-10.36,-2.77,-10.36,6.00,6.07,5.72,3.23,3.23,7.59
47.06,-2.66,-10.25,-2.66,-10.26,6.00,6.07,5.73,3.34,3.34,7.59
47.53,-2.55,-10.16,-2.55,-10.15,6.00,6.07,5.75,3.45,3.45,7.60
48.01,-2.43,-10.04,-2.43,-10.04,6.00,6.07,5.77,3.57,3.57,7.61
48.49,-2.31,-9.93,-2.32,-9.94,6.00,6.07,5.79,3.69,3.68,7.62
48.97,-2.20,-9.83,-2.20,-9.83,6.00,6.07,5.81,3.80,3.80,7.62
49.46,-2.09,-9.73,-2.09,-9.72,6.00,6.07,5.84,3.91,3.91,7.64
49.96,-1.98,-9.62,-1.99,-9.62,6.00,6.07,5.87,4.02,4.01,7.64
50.46,-1.88,-9.52,-1.88,-9.53,6.00,6.07,5.91,4.12,4.12,7.64
50.96,-1.78,-9.44,-1.78,-9.43,6.00,6.07,5.94,4.22,4.22,7.65
51.47,-1.68,-9.34,-1.68,-9.34,6.00,6.07,5.98,4.32,4.32,7.65
51.99,-1.58,-9.24,-1.58,-9.23,6.00,6.07,6.02,4.42,4.42,7.66
52.51,-1.47,-9.13,-1.47,-9.13,6.00,6.06,6.07,4.53,4.53,7.66
53.03,-1.36,-9.02,-1.37,-9.03,6.00,6.06,6.11,4.64,4.63,7.66
53.56,-1.27,-8.94,-1.27,-8.94,6.00,6.06,6.15,4.73,4.73,7.67
54.10,-1.18,-8.85,-1.18,-8.85,6.00,6.06,6.20,4.82,4.82,7.67
54.64,-1.08,-8.75,-1.09,-8.75,6.00,6.05,6.24,4.92,4.91,7.67
55.18,-0.99,-8.65,-0.99,-8.65,6.00,6.05,6.29,5.01,5.01,7.66
55.74,-0.89,-8.55,-0.90,-8.55,6.00,6.05,6.33,5.11,5.10,7.65
56.29,-0.80,-8.46,-0.80,-8.45,6.00,6.04,6.37,5.20,5.20,7.65
56.86,-0.71,-8.36,-0.71,-8.36,6.00,6.04,6.40,5.29,5.29,7.64
57.42,-0.62,-8.26,-0.62,-8.26,6.00,6.03,6.44,5.38,5.38,7.64
58.00,-0.53,-8.16,-0.53,-8.16,6.00,6.03,6.47,5.47,5.47,7.63
58.58,-0.44,-8.07,-0.45,-8.07,6.00,6.02,6.49,5.56,5.55,7.62
59.16,-0.36,-7.97,-0.36,-7.97,6.00,6.01,6.51,5.64,5.64,7.61
59.76,-0.28,-7.88,-0.28,-7.88,6.00,6.01,6.53,5.72,5.72,7.60
60.35,-0.20,-7.79,-0.20,-7.79,6.00,6.00,6.54,5.80,5.80,7.58
60.96,-0.12,-7.69,-0.12,-7.69,6.00,5.99,6.55,5.88,5.88,7.57
61.57,-0.04,-7.60,-0.04,-7.60,6.00,5.99,6.55,5.96,5.96,7.55
62.18,0.04,-7.50,0.04,-7.50,6.00,5.98,6.54,6.04,6.04,7.54
62.80,0.12,-7.40,0.12,-7.40,6.00,5.97,6.53,6.12,6.12,7.52
63.43,0.21,-7.30,0.20,-7.30,6.00,5.96,6.51,6.21,6.20,7.50
64.07,0.29,-7.19,0.29,-7.19,6.00,5.95,6.48,6.29,6.29,7.48
64.71,0.37,-7.09,0.37,-7.09,6.00,5.94,6.45,6.37,6.37,7.46
65.35,0.45,-6.99,0.45,-6.99,6.00,5.93,6.41,6.45,6.45,7.44
66.01,0.53,-6.90,0.52,-6.90,6.00,5.92,6.37,6.53,6.52,7.42
66.67,0.60,-6.81,0.60,-6.80,6.00,5.90,6.32,6.60,6.60,7.40
67.33,0.68,-6.71,0.68,-6.70,6.00,5.89,6.27,6.68,6.68,7.38
68.01,0.76,-6.60,0.75,-6.61,6.00,5.88,6.21,6.76,6.75,7.35
68.69,0.82,-6.52,0.82,-6.52,6.00,5.86,6.15,6.82,6.82,7.33
69.37,0.88,-6.44,0.88,-6.43,6.01,5.85,6.09,6.89,6.89,7.31
70.07,0.95,-6.34,0.94,-6.35,6.01,5.83,6.02,6.96,6.96,7.29
70.77,1.01,-6.26,1.01,-6.26,6.01,5.82,5.95,7.02,7.02,7.27
71.48,1.07,-6.18,1.07,-6.18,6.00,5.80,5.88,7.07,7.07,7.25
72.19,1.14,-6.09,1.13,-6.09,5.98,5.78,5.81,7.12,7.11,7.22
72.91,1.19,-6.02,1.19,-6.02,5.95,5.77,5.74,7.14,7.14,7.21
73.64,1.25,-5.94,1.25,-5.94,5.91,5.75,5.66,7.16,7.16,7.18
74.38,1.31,-5.86,1.31,-5.86,5.86,5.73,5.59,7.17,7.17,7.17
75.12,1.37,-5.78,1.36,-5.78,5.80,5.71,5.52,7.17,7.16,7.14
75.87,1.41,-5.72,1.41,-5.72,5.74,5.69,5.45,7.15,7.14,7.13
76.63,1.45,-5.66,1.45,-5.66,5.67,5.67,5.37,7.12,7.12,7.11
77.40,1.49,-5.61,1.49,-5.60,5.61,5.65,5.31,7.09,7.10,7.09
78.17,1.54,-5.54,1.53,-5.54,5.54,5.62,5.24,7.08,7.07,7.07
78.95,1.57,-5.49,1.56,-5.49,5.49,5.60,5.17,7.06,7.05,7.06
79.74,1.59,-5.45,1.59,-5.44,5.44,5.58,5.11,7.03,7.04,7.04
80.54,1.62,-5.40,1.62,-5.40,5.40,5.55,5.05,7.02,7.02,7.02
81.35,1.65,-5.35,1.64,-5.36,5.36,5.53,4.99,7.01,7.00,7.00
82.16,1.66,-5.32,1.66,-5.32,5.33,5.51,4.94,6.98,6.98,6.98
82.98,1.67,-5.29,1.67,-5.29,5.29,5.48,4.89,6.96,6.96,6.96
83.81,1.67,-5.27,1.67,-5.26,5.26,5.45,4.84,6.93,6.93,6.93
84.65,1.68,-5.23,1.67,-5.24,5.23,5.43,4.80,6.91,6.91,6.91
85.50,1.68,-5.21,1.68,-5.21,5.21,5.40,4.76,6.88,6.89,6.89
86.35,1.69,-5.18,1.69,-5.18,5.18,5.37,4.72,6.87,6.87,6.87
87.22,1.70,-5.14,1.69,-5.15,5.15,5.34,4.68,6.84,6.84,6.84
88.09,1.71,-5.11,1.71,-5.11,5.11,5.32,4.65,6.82,6.82,6.82
88.97,1.72,-5.09,1.72,-5.08,5.07,5.29,4.63,6.79,6.80,6.80
89.86,1.75,-5.03,1.74,-5.04,5.03,5.26,4.60,6.78,6.77,6.78
90.76,1.77,-4.99,1.77,-4.99,4.98,5.23,4.58,6.75,6.75,6.75
91.66,1.80,-4.94,1.80,-4.93,4.93,5.20,4.56,6.72,6.73,6.74
92.58,1.84,-4.87,1.84,-4.87,4.87,5.17,4.55,6.71,6.71,6.71
93.51,1.88,-4.81,1.88,-4.81,4.81,5.13,4.54,6.69,6.69,6.68
94.44,1.92,-4.75,1.92,-4.75,4.75,5.10,4.53,6.67,6.67,6.67
95.39,1.95,-4.69,1.95,-4.69,4.70,5.07,4.53,6.65,6.65,6.64
96.34,1.98,-4.65,1.97,-4.65,4.66,5.04,4.53,6.63,6.63,6.62
97.30,1.99,-4.61,1.99,-4.61,4.62,5.01,4.53,6.61,6.61,6.60
98.28,1.99,-4.58,1.99,-4.58,4.59,4.98,4.53,6.58,6.58,6.57
99.26,1.99,-4.55,1.98,-4.56,4.57,4.94,4.54,6.56,6.55,6.54
100.25,1.97,-4.56,1.96,-4.56,4.56,4.91,4.55,6.53,6.52,6.52
101.25,1.94,-4.56,1.94,-4.56,4.55,4.88,4.56,6.49,6.49,6.50
102.27,1.90,-4.57,1.91,-4.56,4.55,4.84,4.57,6.45,6.46,6.47
103.29,1.88,-4.55,1.88,-4.56,4.55,4.81,4.59,6.43,6.43,6.43
104.32,1.86,-4.54,1.85,-4.55,4.56,4.78,4.61,6.41,6.40,6.40
105.37,1.82,-4.55,1.82,-4.55,4.56,4.75,4.62,6.38,6.38,6.37
106.42,1.78,-4.56,1.78,-4.55,4.56,4.71,4.64,6.34,6.34,6.33
107.48,1.75,-4.55,1.74,-4.55,4.55,4.68,4.66,6.30,6.29,6.30
108.56,1.71,-4.55,1.71,-4.55,4.54,4.65,4.68,6.25,6.25,6.26
109.64,1.69,-4.53,1.68,-4.53,4.52,4.62,4.70,6.21,6.20,6.22
110.74,1.67,-4.51,1.67,-4.51,4.49,4.59,4.72,6.16,6.16,6.18
111.85,1.67,-4.48,1.67,-4.47,4.46,4.55,4.74,6.12,6.13,6.14
112.97,1.68,-4.42,1.68,-4.42,4.42,4.52,4.76,6.09,6.09,6.10
114.10,1.69,-4.37,1.69,-4.37,4.37,4.49,4.77,6.06,6.06,6.06
115.24,1.70,-4.31,1.70,-4.32,4.33,4.46,4.79,6.03,6.03,6.01
116.39,1.70,-4.28,1.70,-4.28,4.29,4.43,4.80,5.99,5.99,5.97
117.55,1.69,-4.24,1.69,-4.24,4.26,4.40,4.81,5.94,5.94,5.93
118.73,1.67,-4.22,1.66,-4.22,4.23,4.37,4.82,5.90,5.89,5.89
119.92,1.64,-4.21,1.64,-4.21,4.21,4.34,4.82,5.85,5.85,5.84
121.12,1.61,-4.20,1.61,-4.20,4.20,4.31,4.82,5.80,5.81,5.81
122.33,1.59,-4.19,1.58,-4.19,4.19,4.28,4.82,5.78,5.77,5.77
123.55,1.56,-4.18,1.55,-4.19,4.19,4.26,4.81,5.74,5.74,5.74
124.79,1.52,-4.19,1.52,-4.18,4.19,4.23,4.80,5.70,5.70,5.70
126.03,1.48,-4.19,1.48,-4.19,4.18,4.20,4.79,5.66,5.67,5.67
127.29,1.46,-4.18,1.45,-4.18,4.18,4.18,4.77,5.64,5.63,5.64
128.57,1.43,-4.18,1.42,-4.18,4.17,4.15,4.75,5.60,5.60,5.60
129.85,1.40,-4.17,1.40,-4.17,4.16,4.13,4.72,5.56,5.56,5.57
131.15,1.38,-4.16,1.38,-4.15,4.15,4.10,4.70,5.53,5.53,5.54
132.46,1.38,-4.13,1.37,-4.14,4.13,4.08,4.67,5.51,5.50,5.50
133.79,1.37,-4.12,1.37,-4.11,4.11,4.06,4.63,5.48,5.48,5.48
135.12,1.36,-4.10,1.36,-4.09,4.09,4.03,4.60,5.45,5.45,5.45
136.48,1.35,-4.08,1.35,-4.07,4.08,4.01,4.56,5.43,5.43,5.42
137.84,1.34,-4.06,1.34,-4.05,4.07,3.99,4.52,5.40,5.40,5.39
139.22,1.33,-4.04,1.32,-4.04,4.06,3.97,4.47,5.38,5.38,5.36
140.61,1.30,-4.04,1.30,-4.04,4.05,3.95,4.43,5.35,5.35,5.33
142.02,1.26,-4.06,1.27,-4.05,4.05,3.93,4.38,5.31,5.31,5.32
143.44,1.24,-4.05,1.23,-4.06,4.05,3.91,4.34,5.29,5.28,5.29
144.87,1.20,-4.07,1.20,-4.06,4.06,3.90,4.29,5.25,5.26,5.26
146.32,1.17,-4.06,1.17,-4.06,4.06,3.88,4.24,5.23,5.23,5.23
147.78,1.14,-4.06,1.13,-4.07,4.06,3.86,4.19,5.20,5.20,5.20
149.26,1.11,-4.07,1.11,-4.07,4.06,3.85,4.15,5.17,5.17,5.17
150.75,1.08,-4.07,1.08,-4.07,4.06,3.83,4.10,5.14,5.14,5.15
152.26,1.07,-4.06,1.06,-4.06,4.05,3.82,4.06,5.12,5.11,5.13
153.78,1.05,-4.05,1.05,-4.05,4.04,3.80,4.01,5.09,5.09,5.09
155.32,1.04,-4.03,1.04,-4.03,4.03,3.79,3.97,5.07,5.07,5.07
156.88,1.03,-4.02,1.03,-4.02,4.02,3.78,3.93,5.05,5.05,5.05
158.44,1.02,-4.01,1.01,-4.01,4.01,3.77,3.89,5.03,5.03,5.02
160.03,1.00,-4.00,1.00,-4.00,4.00,3.76,3.85,5.00,5.00,4.99
161.63,0.98,-4.00,0.98,-3.99,4.00,3.75,3.82,4.97,4.97,4.97
163.24,0.96,-3.99,0.95,-3.99,4.00,3.74,3.79,4.95,4.95,4.94
164.88,0.92,-4.01,0.93,-3.99,4.00,3.73,3.76,4.92,4.92,4.92
166.53,0.90,-4.00,0.89,-4.00,4.00,3.72,3.73,4.90,4.90,4.89
168.19,0.87,-4.00,0.86,-4.01,4.01,3.71,3.70,4.88,4.87,4.86
169.87,0.82,-4.02,0.82,-4.01,4.01,3.70,3.68,4.83,4.84,4.84
171.57,0.79,-4.02,0.79,-4.02,4.01,3.70,3.66,4.80,4.80,4.81
173.29,0.77,-4.01,0.76,-4.02,4.01,3.69,3.64,4.78,4.77,4.78
175.02,0.74,-4.02,0.74,-4.01,4.00,3.69,3.63,4.74,4.74,4.75
176.77,0.72,-4.00,0.72,-4.00,3.99,3.68,3.61,4.71,4.71,4.72
178.54,0.72,-3.98,0.71,-3.98,3.97,3.68,3.60,4.69,4.69,4.69
180.32,0.71,-3.95,0.71,-3.95,3.95,3.67,3.60,4.66,4.66,4.66
182.13,0.70,-3.94,0.70,-3.93,3.93,3.67,3.59,4.63,4.63,4.63
183.95,0.69,-3.91,0.69,-3.91,3.92,3.66,3.59,4.60,4.60,4.60
185.79,0.68,-3.89,0.68,-3.89,3.90,3.66,3.59,4.58,4.57,4.56
187.65,0.66,-3.88,0.66,-3.88,3.89,3.66,3.60,4.54,4.55,4.54
189.52,0.64,-3.87,0.63,-3.87,3.88,3.66,3.60,4.52,4.51,4.51
191.42,0.61,-3.87,0.60,-3.87,3.88,3.65,3.61,4.48,4.48,4.47
193.33,0.57,-3.88,0.57,-3.87,3.88,3.65,3.62,4.44,4.45,4.44
195.27,0.54,-3.88,0.54,-3.88,3.88,3.65,3.63,4.41,4.41,4.42
197.22,0.51,-3.88,0.51,-3.88,3.88,3.65,3.65,4.39,4.39,4.39
199.19,0.48,-3.88,0.48,-3.88,3.88,3.65,3.66,4.36,4.36,4.36
201.18,0.45,-3.87,0.45,-3.87,3.88,3.65,3.68,4.32,4.32,4.32
203.19,0.42,-3.87,0.42,-3.87,3.87,3.65,3.70,4.28,4.28,4.29
205.23,0.40,-3.86,0.40,-3.86,3.85,3.65,3.73,4.25,4.24,4.26
207.28,0.38,-3.85,0.38,-3.84,3.83,3.65,3.75,4.20,4.21,4.23
209.35,0.39,-3.81,0.38,-3.81,3.80,3.65,3.77,4.19,4.18,4.20
211.44,0.39,-3.77,0.39,-3.77,3.77,3.65,3.80,4.16,4.16,4.16
213.56,0.40,-3.73,0.39,-3.73,3.74,3.65,3.82,4.14,4.13,4.13
215.69,0.39,-3.70,0.39,-3.70,3.71,3.65,3.84,4.10,4.10,4.09
217.85,0.38,-3.68,0.38,-3.68,3.69,3.65,3.87,4.07,4.07,4.05
220.03,0.37,-3.66,0.36,-3.66,3.67,3.66,3.89,4.04,4.03,4.02
222.23,0.34,-3.66,0.34,-3.65,3.66,3.66,3.92,4.00,4.00,4.00
224.45,0.31,-3.65,0.30,-3.66,3.66,3.66,3.94,3.96,3.96,3.96
226.70,0.27,-3.66,0.27,-3.66,3.66,3.66,3.96,3.93,3.93,3.93
228.96,0.23,-3.68,0.24,-3.67,3.67,3.66,3.98,3.90,3.90,3.90
231.25,0.21,-3.67,0.20,-3.68,3.68,3.66,4.00,3.89,3.88,3.88
233.57,0.18,-3.68,0.17,-3.69,3.69,3.67,4.01,3.87,3.86,3.86
235.90,0.13,-3.71,0.14,-3.70,3.70,3.67,4.03,3.83,3.84,3.84
238.26,0.11,-3.71,0.10,-3.72,3.71,3.67,4.04,3.82,3.82,3.82
240.64,0.08,-3.73,0.08,-3.72,3.72,3.67,4.05,3.80,3.80,3.80
243.05,0.07,-3.72,0.06,-3.73,3.72,3.67,4.05,3.79,3.78,3.79
245.48,0.05,-3.73,0.05,-3.73,3.72,3.68,4.05,3.76,3.76,3.77
247.93,0.04,-3.72,0.04,-3.72,3.71,3.68,4.05,3.75,3.75,3.76
250.41,0.04,-3.71,0.04,-3.70,3.70,3.68,4.04,3.73,3.74,3.74
252.92,0.05,-3.68,0.05,-3.68,3.68,3.68,4.04,3.73,3.73,3.73
255.45,0.06,-3.66,0.06,-3.66,3.66,3.68,4.02,3.72,3.72,3.71
258.00,0.07,-3.63,0.06,-3.64,3.64,3.68,4.01,3.71,3.70,3.70
260.58,0.07,-3.63,0.07,-3.62,3.62,3.69,3.99,3.69,3.69,3.69
263.19,0.08,-3.60,0.08,-3.60,3.60,3.69,3.97,3.68,3.68,3.68
265.82,0.09,-3.58,0.08,-3.59,3.59,3.69,3.94,3.67,3.67,3.67
268.48,0.08,-3.57,0.08,-3.57,3.58,3.69,3.92,3.65,3.65,3.65
271.16,0.07,-3.57,0.07,-3.57,3.57,3.69,3.89,3.64,3.64,3.64
273.87,0.06,-3.57,0.05,-3.57,3.57,3.69,3.85,3.63,3.63,3.62
276.61,0.04,-3.57,0.04,-3.57,3.58,3.69,3.82,3.61,3.61,3.61
279.38,0.02,-3.58,0.02,-3.58,3.59,3.69,3.78,3.60,3.60,3.60
282.17,-0.01,-3.60,-0.01,-3.60,3.60,3.69,3.75,3.59,3.59,3.58
284.99,-0.04,-3.61,-0.05,-3.62,3.62,3.70,3.71,3.58,3.57,3.57
287.84,-0.09,-3.65,-0.09,-3.64,3.65,3.70,3.67,3.55,3.56,3.56
290.72,-0.12,-3.67,-0.13,-3.67,3.67,3.70,3.63,3.54,3.54,3.54
293.63,-0.16,-3.69,-0.16,-3.69,3.69,3.70,3.59,3.53,3.53,3.53
296.57,-0.19,-3.71,-0.19,-3.71,3.71,3.70,3.55,3.52,3.52,3.52
299.53,-0.22,-3.73,-0.22,-3.73,3.72,3.69,3.52,3.50,3.50,3.51
302.53,-0.24,-3.74,-0.25,-3.74,3.73,3.69,3.48,3.49,3.49,3.49
305.55,-0.26,-3.73,-0.27,-3.74,3.74,3.69,3.44,3.47,3.47,3.47
308.61,-0.28,-3.74,-0.28,-3.74,3.73,3.69,3.40,3.45,3.45,3.46
311.69,-0.28,-3.73,-0.28,-3.73,3.72,3.69,3.37,3.44,3.44,3.45
314.81,-0.28,-3.71,-0.28,-3.71,3.71,3.69,3.34,3.42,3.42,3.42
317.96,-0.27,-3.69,-0.28,-3.69,3.69,3.69,3.30,3.42,3.41,3.41
321.14,-0.27,-3.66,-0.27,-3.66,3.67,3.69,3.27,3.40,3.40,3.39
324.35,-0.26,-3.64,-0.27,-3.64,3.65,3.68,3.25,3.39,3.38,3.38
327.59,-0.26,-3.62,-0.26,-3.62,3.63,3.68,3.22,3.36,3.36,3.36
330.87,-0.26,-3.61,-0.26,-3.61,3.61,3.68,3.19,3.34,3.35,3.34
334.18,-0.26,-3.59,-0.26,-3.59,3.59,3.67,3.17,3.33,3.33,3.32
337.52,-0.26,-3.57,-0.26,-3.57,3.57,3.67,3.15,3.31,3.31,3.31
340.90,-0.26,-3.55,-0.26,-3.56,3.55,3.67,3.13,3.29,3.29,3.29
344.30,-0.26,-3.54,-0.26,-3.54,3.54,3.66,3.12,3.27,3.27,3.28
347.75,-0.26,-3.52,-0.26,-3.52,3.52,3.66,3.10,3.26,3.26,3.26
351.23,-0.26,-3.50,-0.26,-3.50,3.50,3.66,3.09,3.24,3.24,3.24
354.74,-0.26,-3.49,-0.26,-3.48,3.48,3.65,3.08,3.22,3.22,3.22
358.28,-0.26,-3.47,-0.26,-3.47,3.46,3.65,3.08,3.20,3.20,3.20
361.87,-0.26,-3.44,-0.26,-3.44,3.44,3.64,3.07,3.18,3.18,3.18
365.49,-0.25,-3.42,-0.25,-3.42,3.42,3.64,3.07,3.16,3.16,3.17
369.14,-0.24,-3.39,-0.25,-3.40,3.40,3.63,3.07,3.16,3.15,3.15
372.83,-0.24,-3.38,-0.24,-3.38,3.38,3.62,3.08,3.14,3.14,3.14
376.56,-0.24,-3.36,-0.25,-3.36,3.37,3.62,3.08,3.13,3.12,3.12
380.33,-0.26,-3.36,-0.26,-3.36,3.36,3.61,3.09,3.10,3.10,3.10
384.13,-0.27,-3.36,-0.27,-3.35,3.36,3.60,3.10,3.09,3.09,3.08
387.97,-0.29,-3.36,-0.29,-3.36,3.36,3.60,3.11,3.07,3.07,3.06
391.85,-0.31,-3.37,-0.32,-3.37,3.37,3.59,3.12,3.06,3.06,3.05
395.77,-0.34,-3.38,-0.35,-3.39,3.39,3.58,3.14,3.05,3.04,3.04
399.73,-0.38,-3.41,-0.38,-3.41,3.41,3.57,3.15,3.02,3.03,3.03
403.72,-0.41,-3.43,-0.41,-3.43,3.43,3.57,3.17,3.02,3.02,3.02
407.76,-0.44,-3.45,-0.45,-3.45,3.45,3.56,3.19,3.01,3.00,3.01
411.84,-0.48,-3.47,-0.48,-3.47,3.47,3.55,3.21,2.99,2.99,2.99
415.96,-0.51,-3.49,-0.51,-3.49,3.49,3.54,3.23,2.98,2.98,2.98
420.12,-0.54,-3.51,-0.54,-3.51,3.51,3.53,3.25,2.97,2.96,2.97
424.32,-0.57,-3.53,-0.57,-3.52,3.52,3.52,3.28,2.95,2.95,2.96
428.56,-0.58,-3.53,-0.59,-3.53,3.52,3.51,3.30,2.94,2.94,2.95
432.85,-0.60,-3.53,-0.60,-3.53,3.52,3.50,3.32,2.92,2.92,2.92
437.18,-0.60,-3.52,-0.60,-3.52,3.51,3.49,3.34,2.91,2.91,2.91
441.55,-0.60,-3.51,-0.61,-3.50,3.50,3.47,3.37,2.90,2.89,2.90
445.96,-0.60,-3.49,-0.60,-3.48,3.48,3.46,3.39,2.88,2.88,2.88
450.42,-0.59,-3.46,-0.59,-3.46,3.46,3.45,3.41,2.86,2.86,2.86
454.93,-0.58,-3.43,-0.58,-3.43,3.43,3.44,3.43,2.85,2.85,2.85
459.48,-0.57,-3.40,-0.58,-3.41,3.41,3.43,3.44,2.84,2.83,2.83
464.07,-0.57,-3.38,-0.57,-3.38,3.39,3.41,3.46,2.81,2.81,2.81
468.71,-0.57,-3.36,-0.57,-3.36,3.37,3.40,3.47,2.79,2.80,2.79
473.40,-0.57,-3.35,-0.58,-3.35,3.35,3.39,3.48,2.78,2.78,2.78
478.13,-0.58,-3.34,-0.58,-3.34,3.34,3.37,3.49,2.76,2.76,2.76
482.91,-0.59,-3.34,-0.59,-3.34,3.34,3.36,3.50,2.75,2.75,2.75
487.74,-0.61,-3.34,-0.61,-3.34,3.35,3.34,3.50,2.74,2.74,2.73
492.62,-0.63,-3.35,-0.63,-3.35,3.36,3.33,3.50,2.73,2.73,2.72
497.55,-0.66,-3.37,-0.66,-3.37,3.38,3.31,3.50,2.72,2.72,2.71
502.52,-0.70,-3.40,-0.70,-3.40,3.41,3.30,3.50,2.70,2.70,2.70
507.55,-0.74,-3.43,-0.75,-3.43,3.43,3.28,3.49,2.69,2.68,2.69
512.62,-0.79,-3.46,-0.79,-3.46,3.45,3.27,3.48,2.66,2.66,2.67
