frequency,raw,error,smoothed,error_smoothed,equalization,parametric_eq,fixed_band_eq,equalized_raw,equalized_smoothed,target
20.00,4.13,1.53,4.13,1.54,-1.54,-1.46,-1.22,2.59,2.59,2.60
20.20,4.16,1.58,4.16,1.58,-1.58,-1.48,-1.25,2.58,2.58,2.58
20.40,4.19,1.62,4.19,1.62,-1.62,-1.50,-1.29,2.58,2.58,2.57
20.61,4.22,1.65,4.22,1.66,-1.65,-1.53,-1.32,2.57,2.57,2.57
20.81,4.24,1.69,4.25,1.70,-1.69,-1.55,-1.36,2.55,2.56,2.55
21.02,4.27,1.73,4.27,1.73,-1.73,-1.57,-1.39,2.55,2.55,2.54
21.23,4.30,1.77,4.30,1.76,-1.76,-1.60,-1.43,2.54,2.54,2.53
21.44,4.32,1.79,4.33,1.80,-1.80,-1.62,-1.47,2.53,2.53,2.54
21.66,4.35,1.82,4.35,1.83,-1.83,-1.64,-1.51,2.52,2.52,2.53
21.87,4.38,1.87,4.38,1.86,-1.86,-1.67,-1.55,2.52,2.52,2.52
22.09,4.40,1.90,4.41,1.90,-1.90,-1.69,-1.59,2.51,2.51,2.51
22.31,4.43,1.93,4.43,1.93,-1.93,-1.72,-1.64,2.51,2.51,2.51
22.54,4.46,1.97,4.46,1.96,-1.96,-1.74,-1.68,2.50,2.50,2.50
22.76,4.49,1.99,4.49,1.99,-2.00,-1.77,-1.73,2.50,2.50,2.51
22.99,4.52,2.03,4.52,2.03,-2.03,-1.79,-1.78,2.50,2.50,2.50
23.22,4.55,2.07,4.55,2.06,-2.06,-1.82,-1.82,2.49,2.49,2.49
23.45,4.57,2.09,4.58,2.09,-2.09,-1.84,-1.87,2.49,2.49,2.48
23.69,4.60,2.12,4.61,2.12,-2.12,-1.87,-1.92,2.49,2.49,2.48
23.92,4.63,2.15,4.63,2.15,-2.15,-1.89,-1.97,2.49,2.49,2.48
24.16,4.66,2.18,4.66,2.17,-2.18,-1.92,-2.02,2.49,2.49,2.48
24.40,4.68,2.19,4.69,2.20,-2.20,-1.95,-2.08,2.48,2.48,2.49
24.65,4.71,2.22,4.71,2.23,-2.23,-1.97,-2.13,2.48,2.48,2.49
24.89,4.74,2.26,4.74,2.26,-2.26,-2.00,-2.18,2.48,2.48,2.48
25.14,4.76,2.29,4.77,2.30,-2.29,-2.03,-2.24,2.47,2.48,2.47
25.39,4.79,2.33,4.79,2.33,-2.32,-2.05,-2.29,2.47,2.47,2.47
25.65,4.82,2.37,4.82,2.36,-2.35,-2.08,-2.35,2.47,2.47,2.46
25.91,4.84,2.39,4.85,2.39,-2.38,-2.11,-2.40,2.46,2.46,2.46
26.16,4.87,2.41,4.87,2.41,-2.41,-2.14,-2.46,2.46,2.46,2.47
26.43,4.89,2.44,4.90,2.44,-2.44,-2.17,-2.51,2.45,2.45,2.46
26.69,4.92,2.47,4.92,2.47,-2.47,-2.19,-2.57,2.45,2.45,2.45
26.96,4.95,2.50,4.95,2.50,-2.50,-2.22,-2.62,2.45,2.45,2.45
27.23,4.97,2.53,4.98,2.53,-2.53,-2.25,-2.68,2.45,2.45,2.44
27.50,5.00,2.56,5.00,2.56,-2.56,-2.28,-2.73,2.45,2.45,2.44
27.77,5.03,2.58,5.03,2.58,-2.58,-2.31,-2.78,2.45,2.45,2.45
28.05,5.05,2.60,5.06,2.61,-2.61,-2.34,-2.83,2.44,2.45,2.45
28.33,5.08,2.64,5.08,2.63,-2.64,-2.37,-2.88,2.45,2.45,2.45
28.62,5.11,2.67,5.11,2.66,-2.66,-2.40,-2.92,2.45,2.45,2.45
28.90,5.13,2.68,5.14,2.69,-2.68,-2.43,-2.97,2.45,2.45,2.46
29.19,5.16,2.71,5.16,2.71,-2.71,-2.46,-3.01,2.46,2.45,2.45
29.48,5.18,2.73,5.18,2.73,-2.73,-2.49,-3.05,2.46,2.46,2.45
29.78,5.20,2.75,5.21,2.75,-2.75,-2.52,-3.09,2.45,2.46,2.45
30.08,5.23,2.76,5.23,2.77,-2.77,-2.55,-3.12,2.46,2.46,2.47
30.38,5.25,2.80,5.25,2.79,-2.80,-2.58,-3.15,2.46,2.46,2.46
30.68,5.27,2.82,5.28,2.82,-2.82,-2.61,-3.18,2.45,2.46,2.46
30.99,5.30,2.85,5.30,2.85,-2.85,-2.64,-3.21,2.46,2.45,2.45
31.30,5.32,2.87,5.32,2.87,-2.87,-2.67,-3.23,2.45,2.45,2.45
31.61,5.34,2.89,5.34,2.90,-2.90,-2.70,-3.25,2.45,2.45,2.45
31.93,5.36,2.93,5.36,2.92,-2.92,-2.74,-3.27,2.44,2.44,2.44
32.24,5.38,2.95,5.38,2.95,-2.95,-2.77,-3.28,2.43,2.43,2.44
32.57,5.40,2.98,5.40,2.98,-2.97,-2.80,-3.29,2.43,2.43,2.42
32.89,5.42,3.00,5.42,3.00,-3.00,-2.83,-3.30,2.42,2.42,2.42
33.22,5.44,3.02,5.44,3.02,-3.02,-2.86,-3.31,2.42,2.42,2.42
33.55,5.46,3.05,5.46,3.05,-3.05,-2.89,-3.31,2.41,2.41,2.42
33.89,5.47,3.07,5.48,3.07,-3.07,-2.93,-3.32,2.40,2.40,2.40
34.23,5.49,3.10,5.50,3.10,-3.10,-2.96,-3.32,2.39,2.40,2.39
34.57,5.51,3.13,5.51,3.12,-3.13,-2.99,-3.32,2.39,2.39,2.39
34.92,5.53,3.16,5.53,3.15,-3.15,-3.02,-3.32,2.38,2.38,2.38
35.27,5.54,3.16,5.55,3.18,-3.18,-3.06,-3.32,2.37,2.37,2.38
35.62,5.56,3.21,5.56,3.21,-3.21,-3.09,-3.31,2.36,2.36,2.35
35.97,5.58,3.24,5.58,3.23,-3.23,-3.12,-3.31,2.35,2.35,2.35
36.33,5.59,3.26,5.60,3.27,-3.26,-3.15,-3.31,2.33,2.33,2.33
36.70,5.61,3.29,5.61,3.29,-3.29,-3.19,-3.31,2.32,2.32,2.32
37.06,5.62,3.32,5.63,3.32,-3.32,-3.22,-3.31,2.30,2.30,2.31
37.43,5.64,3.35,5.64,3.35,-3.35,-3.25,-3.31,2.29,2.29,2.29
37.81,5.65,3.38,5.66,3.38,-3.39,-3.29,-3.31,2.27,2.27,2.28
38.19,5.67,3.42,5.67,3.41,-3.42,-3.32,-3.31,2.26,2.25,2.25
38.57,5.68,3.44,5.69,3.45,-3.45,-3.35,-3.31,2.23,2.24,2.24
38.95,5.70,3.49,5.70,3.49,-3.48,-3.39,-3.32,2.22,2.22,2.21
39.34,5.71,3.52,5.71,3.52,-3.51,-3.42,-3.32,2.20,2.20,2.19
39.74,5.71,3.54,5.72,3.55,-3.54,-3.45,-3.33,2.17,2.18,2.18
40.14,5.72,3.57,5.72,3.57,-3.57,-3.49,-3.34,2.15,2.15,2.15
40.54,5.73,3.60,5.73,3.60,-3.60,-3.52,-3.35,2.14,2.13,2.14
40.94,5.73,3.62,5.74,3.63,-3.62,-3.55,-3.37,2.11,2.11,2.11
41.35,5.74,3.65,5.74,3.65,-3.65,-3.59,-3.38,2.09,2.09,2.09
41.76,5.75,3.68,5.75,3.67,-3.68,-3.62,-3.40,2.08,2.07,2.08
42.18,5.75,3.69,5.76,3.70,-3.70,-3.65,-3.43,2.05,2.05,2.06
42.60,5.76,3.73,5.76,3.73,-3.73,-3.69,-3.45,2.03,2.03,2.04
43.03,5.77,3.76,5.77,3.76,-3.76,-3.72,-3.48,2.02,2.01,2.01
43.46,5.77,3.78,5.78,3.79,-3.78,-3.75,-3.51,1.99,1.99,1.99
43.90,5.78,3.82,5.78,3.81,-3.81,-3.79,-3.54,1.97,1.97,1.97
44.33,5.78,3.84,5.78,3.84,-3.84,-3.82,-3.58,1.95,1.95,1.95
44.78,5.78,3.86,5.78,3.86,-3.86,-3.85,-3.62,1.92,1.92,1.92
45.23,5.78,3.88,5.78,3.89,-3.89,-3.89,-3.66,1.90,1.89,1.90
45.68,5.77,3.91,5.78,3.91,-3.91,-3.92,-3.70,1.86,1.86,1.86
46.13,5.77,3.95,5.77,3.94,-3.94,-3.95,-3.75,1.83,1.83,1.83
46.60,5.76,3.97,5.77,3.97,-3.97,-3.99,-3.80,1.80,1.80,1.80
47.06,5.76,4.00,5.76,4.00,-4.00,-4.02,-3.85,1.77,1.76,1.77
47.53,5.75,4.02,5.76,4.02,-4.03,-4.05,-3.90,1.72,1.73,1.74
48.01,5.75,4.07,5.75,4.06,-4.06,-4.08,-3.96,1.69,1.69,1.69
48.49,5.75,4.10,5.75,4.10,-4.10,-4.12,-4.02,1.66,1.65,1.66
48.97,5.75,4.14,5.75,4.14,-4.13,-4.15,-4.08,1.62,1.62,1.62
49.46,5.75,4.17,5.75,4.17,-4.17,-4.18,-4.14,1.58,1.58,1.59
49.96,5.75,4.22,5.75,4.21,-4.20,-4.21,-4.21,1.55,1.55,1.54
50.46,5.75,4.24,5.75,4.24,-4.24,-4.25,-4.28,1.51,1.51,1.51
50.96,5.75,4.27,5.75,4.27,-4.27,-4.28,-4.34,1.48,1.48,1.48
51.47,5.75,4.31,5.75,4.31,-4.31,-4.31,-4.41,1.45,1.45,1.45
51.99,5.75,4.34,5.75,4.34,-4.34,-4.34,-4.48,1.42,1.42,1.42
52.51,5.75,4.37,5.75,4.37,-4.37,-4.37,-4.55,1.38,1.38,1.38
53.03,5.75,4.40,5.75,4.40,-4.41,-4.41,-4.63,1.35,1.35,1.36
53.56,5.75,4.44,5.75,4.44,-4.44,-4.44,-4.70,1.31,1.31,1.31
54.10,5.75,4.48,5.75,4.47,-4.48,-4.47,-4.77,1.28,1.28,1.28
54.64,5.75,4.51,5.75,4.52,-4.51,-4.50,-4.84,1.24,1.24,1.24
55.18,5.75,4.56,5.75,4.55,-4.55,-4.53,-4.91,1.21,1.21,1.20
55.74,5.75,4.59,5.75,4.59,-4.58,-4.56,-4.97,1.17,1.17,1.16
56.29,5.75,4.61,5.75,4.62,-4.61,-4.59,-5.04,1.14,1.14,1.14
56.86,5.75,4.64,5.75,4.65,-4.64,-4.62,-5.10,1.11,1.11,1.12
57.42,5.75,4.68,5.75,4.67,-4.67,-4.65,-5.16,1.09,1.09,1.08
58.00,5.75,4.71,5.75,4.70,-4.70,-4.68,-5.22,1.06,1.06,1.05
58.58,5.75,4.72,5.75,4.72,-4.72,-4.71,-5.27,1.03,1.03,1.04
59.16,5.75,4.75,5.75,4.75,-4.75,-4.74,-5.32,1.00,1.00,1.01
59.76,5.75,4.78,5.75,4.78,-4.79,-4.77,-5.36,0.96,0.96,0.98
60.35,5.75,4.82,5.75,4.82,-4.83,-4.80,-5.40,0.93,0.93,0.94
60.96,5.75,4.86,5.75,4.86,-4.87,-4.83,-5.43,0.89,0.89,0.89
61.57,5.75,4.91,5.75,4.91,-4.91,-4.86,-5.46,0.85,0.85,0.84
62.18,5.75,4.96,5.75,4.96,-4.95,-4.88,-5.49,0.80,0.80,0.80
62.80,5.75,5.00,5.75,5.00,-4.99,-4.91,-5.51,0.76,0.76,0.75
63.43,5.75,5.05,5.75,5.04,-5.04,-4.94,-5.52,0.72,0.72,0.71
64.07,5.75,5.08,5.75,5.08,-5.08,-4.97,-5.53,0.67,0.67,0.67
64.71,5.75,5.12,5.75,5.12,-5.12,-5.00,-5.53,0.63,0.63,0.63
65.35,5.75,5.16,5.76,5.16,-5.17,-5.02,-5.53,0.59,0.59,0.60
66.01,5.76,5.20,5.76,5.20,-5.21,-5.05,-5.52,0.56,0.56,0.56
66.67,5.77,5.24,5.77,5.25,-5.25,-5.08,-5.51,0.52,0.52,0.53
67.33,5.77,5.29,5.77,5.29,-5.29,-5.10,-5.49,0.48,0.48,0.48
68.01,5.77,5.33,5.78,5.34,-5.33,-5.13,-5.47,0.44,0.45,0.44
68.69,5.78,5.38,5.78,5.38,-5.37,-5.15,-5.45,0.41,0.41,0.40
69.37,5.78,5.42,5.78,5.41,-5.41,-5.18,-5.43,0.38,0.37,0.37
70.07,5.77,5.44,5.77,5.44,-5.44,-5.20,-5.40,0.33,0.33,0.33
70.77,5.75,5.46,5.76,5.47,-5.48,-5.23,-5.37,0.28,0.28,0.29
71.48,5.74,5.50,5.74,5.50,-5.51,-5.25,-5.34,0.24,0.24,0.25
72.19,5.73,5.53,5.73,5.53,-5.53,-5.27,-5.31,0.20,0.20,0.20
72.91,5.71,5.55,5.71,5.56,-5.55,-5.30,-5.28,0.16,0.16,0.16
73.64,5.69,5.58,5.70,5.58,-5.57,-5.32,-5.25,0.12,0.13,0.12
74.38,5.67,5.60,5.67,5.59,-5.59,-5.34,-5.22,0.09,0.09,0.08
75.12,5.65,5.60,5.65,5.60,-5.60,-5.37,-5.19,0.06,0.05,0.05
75.87,5.62,5.60,5.62,5.61,-5.61,-5.39,-5.16,0.02,0.02,0.02
76.63,5.59,5.61,5.60,5.61,-5.61,-5.41,-5.13,-0.02,-0.02,-0.01
77.40,5.57,5.62,5.57,5.61,-5.62,-5.43,-5.11,-0.04,-0.05,-0.04
78.17,5.54,5.62,5.55,5.62,-5.62,-5.45,-5.08,-0.08,-0.08,-0.08
78.95,5.52,5.62,5.53,5.63,-5.63,-5.47,-5.06,-0.11,-0.10,-0.10
79.74,5.51,5.64,5.51,5.64,-5.64,-5.49,-5.04,-0.12,-0.13,-0.12
80.54,5.49,5.65,5.49,5.65,-5.65,-5.51,-5.03,-0.15,-0.15,-0.16
81.35,5.47,5.66,5.47,5.66,-5.66,-5.53,-5.01,-0.18,-0.18,-0.18
82.16,5.45,5.66,5.45,5.67,-5.67,-5.55,-5.01,-0.21,-0.21,-0.21
82.98,5.43,5.68,5.43,5.68,-5.68,-5.57,-5.00,-0.25,-0.25,-0.25
83.81,5.41,5.70,5.41,5.69,-5.69,-5.58,-5.00,-0.28,-0.28,-0.29
84.65,5.38,5.70,5.39,5.71,-5.70,-5.60,-5.00,-0.32,-0.32,-0.31
85.50,5.36,5.72,5.36,5.71,-5.72,-5.62,-5.00,-0.35,-0.35,-0.35
86.35,5.34,5.73,5.34,5.73,-5.73,-5.63,-5.01,-0.39,-0.39,-0.38
87.22,5.32,5.74,5.32,5.74,-5.74,-5.65,-5.02,-0.42,-0.42,-0.41
88.09,5.30,5.76,5.30,5.75,-5.75,-5.66,-5.04,-0.45,-0.45,-0.46
88.97,5.27,5.76,5.27,5.77,-5.76,-5.68,-5.06,-0.49,-0.49,-0.49
89.86,5.24,5.78,5.25,5.78,-5.77,-5.69,-5.08,-0.53,-0.53,-0.53
90.76,5.22,5.79,5.22,5.78,-5.79,-5.71,-5.11,-0.56,-0.57,-0.56
91.66,5.19,5.79,5.20,5.80,-5.80,-5.72,-5.14,-0.60,-0.60,-0.60
92.58,5.17,5.81,5.17,5.81,-5.81,-5.73,-5.17,-0.64,-0.64,-0.63
93.51,5.15,5.82,5.15,5.82,-5.83,-5.75,-5.21,-0.67,-0.67,-0.67
94.44,5.13,5.84,5.13,5.84,-5.84,-5.76,-5.25,-0.71,-0.71,-0.70
95.39,5.11,5.86,5.11,5.86,-5.86,-5.77,-5.30,-0.74,-0.75,-0.75
96.34,5.08,5.88,5.08,5.87,-5.88,-5.78,-5.34,-0.79,-0.79,-0.80
97.30,5.05,5.89,5.06,5.89,-5.89,-5.79,-5.40,-0.84,-0.83,-0.83
98.28,5.04,5.91,5.04,5.91,-5.91,-5.80,-5.45,-0.87,-0.87,-0.87
99.26,5.02,5.94,5.02,5.93,-5.93,-5.81,-5.51,-0.91,-0.91,-0.92
100.25,4.99,5.95,5.00,5.94,-5.94,-5.82,-5.57,-0.95,-0.95,-0.95
101.25,4.97,5.94,4.97,5.95,-5.96,-5.83,-5.63,-0.98,-0.98,-0.97
102.27,4.95,5.96,4.95,5.96,-5.97,-5.84,-5.69,-1.01,-1.01,-1.01
103.29,4.93,5.98,4.94,5.97,-5.97,-5.84,-5.76,-1.04,-1.04,-1.05
104.32,4.91,5.98,4.91,5.98,-5.97,-5.85,-5.83,-1.06,-1.06,-1.06
105.37,4.88,5.99,4.88,5.98,-5.96,-5.86,-5.89,-1.08,-1.09,-1.10
106.42,4.83,5.96,4.84,5.97,-5.96,-5.86,-5.96,-1.12,-1.12,-1.13
107.48,4.78,5.95,4.78,5.95,-5.95,-5.87,-6.03,-1.16,-1.16,-1.17
108.56,4.73,5.93,4.73,5.93,-5.94,-5.87,-6.10,-1.20,-1.20,-1.20
109.64,4.68,5.92,4.68,5.91,-5.93,-5.88,-6.16,-1.24,-1.24,-1.23
110.74,4.64,5.90,4.64,5.91,-5.92,-5.88,-6.23,-1.28,-1.28,-1.26
111.85,4.60,5.90,4.61,5.91,-5.93,-5.88,-6.29,-1.32,-1.31,-1.30
112.97,4.59,5.93,4.59,5.92,-5.93,-5.89,-6.35,-1.34,-1.34,-1.33
114.10,4.57,5.93,4.57,5.94,-5.94,-5.89,-6.41,-1.36,-1.37,-1.36
115.24,4.55,5.96,4.55,5.96,-5.94,-5.89,-6.46,-1.39,-1.39,-1.41
116.39,4.52,5.98,4.53,5.97,-5.95,-5.89,-6.51,-1.43,-1.43,-1.45
117.55,4.49,5.97,4.49,5.98,-5.96,-5.89,-6.55,-1.47,-1.47,-1.48
118.73,4.45,5.98,4.45,5.97,-5.97,-5.89,-6.59,-1.51,-1.52,-1.52
119.92,4.40,5.95,4.41,5.96,-5.97,-5.89,-6.62,-1.57,-1.56,-1.55
121.12,4.37,5.95,4.38,5.96,-5.97,-5.89,-6.64,-1.60,-1.59,-1.57
122.33,4.36,5.97,4.36,5.96,-5.97,-5.89,-6.66,-1.61,-1.61,-1.61
123.55,4.34,5.98,4.34,5.97,-5.97,-5.89,-6.67,-1.63,-1.63,-1.64
124.79,4.31,5.98,4.31,5.98,-5.97,-5.88,-6.67,-1.66,-1.66,-1.66
126.03,4.27,5.98,4.28,5.98,-5.97,-5.88,-6.67,-1.69,-1.69,-1.70
127.29,4.24,5.98,4.24,5.97,-5.97,-5.88,-6.66,-1.72,-1.73,-1.73
128.57,4.19,5.96,4.19,5.96,-5.96,-5.87,-6.64,-1.77,-1.77,-1.76
129.85,4.14,5.95,4.14,5.95,-5.95,-5.87,-6.61,-1.81,-1.81,-1.80
131.15,4.08,5.93,4.10,5.94,-5.94,-5.86,-6.58,-1.86,-1.85,-1.84
132.46,4.05,5.94,4.05,5.93,-5.93,-5.85,-6.54,-1.88,-1.89,-1.88
133.79,4.01,5.93,4.01,5.92,-5.92,-5.85,-6.50,-1.91,-1.92,-1.92
135.12,3.95,5.91,3.96,5.91,-5.91,-5.84,-6.45,-1.96,-1.95,-1.96
136.48,3.92,5.90,3.92,5.90,-5.90,-5.83,-6.39,-1.98,-1.98,-1.97
137.84,3.88,5.89,3.89,5.90,-5.89,-5.82,-6.33,-2.01,-2.01,-2.01
139.22,3.85,5.91,3.84,5.88,-5.88,-5.81,-6.27,-2.03,-2.04,-2.05
140.61,3.79,5.87,3.79,5.87,-5.87,-5.81,-6.20,-2.07,-2.08,-2.07
142.02,3.72,5.83,3.74,5.85,-5.85,-5.80,-6.14,-2.13,-2.11,-2.11
143.44,3.70,5.84,3.70,5.83,-5.83,-5.79,-6.07,-2.13,-2.14,-2.14
144.87,3.66,5.81,3.66,5.82,-5.82,-5.77,-6.00,-2.15,-2.16,-2.15
146.32,3.62,5.80,3.62,5.80,-5.80,-5.76,-5.92,-2.17,-2.18,-2.18
147.78,3.57,5.77,3.58,5.78,-5.78,-5.75,-5.85,-2.21,-2.20,-2.20
149.26,3.53,5.76,3.54,5.76,-5.76,-5.74,-5.78,-2.23,-2.23,-2.23
150.75,3.49,5.75,3.49,5.74,-5.74,-5.73,-5.71,-2.25,-2.25,-2.26
152.26,3.45,5.73,3.45,5.73,-5.73,-5.71,-5.64,-2.27,-2.27,-2.27
153.78,3.40,5.70,3.41,5.71,-5.71,-5.70,-5.57,-2.31,-2.30,-2.30
155.32,3.37,5.70,3.37,5.69,-5.70,-5.68,-5.50,-2.32,-2.33,-2.32
156.88,3.32,5.67,3.33,5.68,-5.68,-5.67,-5.43,-2.36,-2.35,-2.35
158.44,3.29,5.67,3.29,5.67,-5.67,-5.65,-5.37,-2.38,-2.38,-2.38
160.03,3.25,5.66,3.25,5.66,-5.66,-5.64,-5.31,-2.41,-2.41,-2.40
161.63,3.21,5.65,3.22,5.66,-5.65,-5.62,-5.25,-2.44,-2.43,-2.43
163.24,3.18,5.66,3.17,5.64,-5.64,-5.60,-5.20,-2.46,-2.47,-2.48
164.88,3.12,5.63,3.13,5.64,-5.63,-5.59,-5.15,-2.51,-2.50,-2.50
166.53,3.08,5.62,3.08,5.62,-5.62,-5.57,-5.10,-2.53,-2.53,-2.53
168.19,3.04,5.61,3.04,5.60,-5.60,-5.55,-5.05,-2.56,-2.57,-2.56
169.87,2.98,5.58,2.99,5.59,-5.59,-5.53,-5.01,-2.61,-2.60,-2.60
171.57,2.94,5.57,2.94,5.57,-5.58,-5.51,-4.97,-2.63,-2.63,-2.63
173.29,2.90,5.57,2.90,5.56,-5.56,-5.49,-4.94,-2.66,-2.67,-2.66
175.02,2.84,5.54,2.85,5.55,-5.55,-5.47,-4.91,-2.70,-2.70,-2.70
176.77,2.80,5.54,2.80,5.53,-5.53,-5.45,-4.88,-2.73,-2.73,-2.73
178.54,2.75,5.51,2.76,5.52,-5.51,-5.43,-4.86,-2.76,-2.76,-2.76
180.32,2.71,5.51,2.71,5.50,-5.50,-5.41,-4.84,-2.79,-2.79,-2.80
182.13,2.66,5.50,2.65,5.48,-5.49,-5.39,-4.83,-2.82,-2.83,-2.83
183.95,2.58,5.45,2.60,5.47,-5.47,-5.36,-4.81,-2.89,-2.88,-2.86
185.79,2.54,5.45,2.55,5.45,-5.46,-5.34,-4.81,-2.92,-2.91,-2.90
187.65,2.51,5.45,2.51,5.44,-5.45,-5.32,-4.80,-2.94,-2.94,-2.94
189.52,2.47,5.45,2.47,5.44,-5.44,-5.30,-4.80,-2.96,-2.97,-2.98
191.42,2.42,5.43,2.43,5.43,-5.43,-5.27,-4.80,-3.00,-3.00,-3.00
193.33,2.38,5.42,2.38,5.42,-5.41,-5.25,-4.80,-3.03,-3.03,-3.03
195.27,2.33,5.40,2.33,5.40,-5.40,-5.22,-4.81,-3.07,-3.07,-3.07
197.22,2.27,5.38,2.28,5.38,-5.39,-5.20,-4.82,-3.11,-3.10,-3.11
199.19,2.23,5.36,2.23,5.37,-5.37,-5.17,-4.84,-3.13,-3.13,-3.13
201.18,2.19,5.36,2.19,5.35,-5.34,-5.15,-4.85,-3.15,-3.15,-3.16
203.19,2.14,5.32,2.15,5.32,-5.32,-5.12,-4.87,-3.18,-3.17,-3.18
205.23,2.10,5.31,2.10,5.30,-5.29,-5.09,-4.89,-3.19,-3.20,-3.20
207.28,2.04,5.26,2.05,5.27,-5.27,-5.07,-4.91,-3.23,-3.22,-3.22
209.35,1.99,5.24,1.99,5.24,-5.24,-5.04,-4.93,-3.25,-3.25,-3.25
211.44,1.93,5.21,1.94,5.21,-5.22,-5.01,-4.96,-3.29,-3.28,-3.27
213.56,1.89,5.18,1.89,5.18,-5.19,-4.99,-4.98,-3.30,-3.30,-3.29
215.69,1.85,5.16,1.85,5.16,-5.17,-4.96,-5.00,-3.31,-3.32,-3.31
217.85,1.80,5.14,1.81,5.14,-5.14,-4.93,-5.03,-3.33,-3.33,-3.33
220.03,1.77,5.13,1.77,5.12,-5.11,-4.90,-5.05,-3.33,-3.34,-3.36
222.23,1.71,5.09,1.71,5.09,-5.08,-4.87,-5.07,-3.36,-3.36,-3.38
224.45,1.65,5.05,1.65,5.05,-5.05,-4.84,-5.09,-3.39,-3.39,-3.40
226.70,1.59,5.00,1.59,5.00,-5.01,-4.81,-5.11,-3.42,-3.42,-3.41
228.96,1.53,4.95,1.54,4.97,-4.98,-4.79,-5.13,-3.44,-3.43,-3.42
231.25,1.50,4.94,1.50,4.93,-4.94,-4.76,-5.14,-3.43,-3.44,-3.44
233.57,1.45,4.90,1.45,4.91,-4.90,-4.73,-5.15,-3.45,-3.45,-3.45
235.90,1.40,4.87,1.41,4.87,-4.86,-4.70,-5.16,-3.46,-3.46,-3.47
238.26,1.36,4.84,1.36,4.83,-4.83,-4.66,-5.16,-3.47,-3.47,-3.48
240.64,1.31,4.78,1.32,4.79,-4.80,-4.63,-5.16,-3.48,-3.48,-3.47
243.05,1.27,4.75,1.28,4.75,-4.76,-4.60,-5.15,-3.49,-3.49,-3.47
245.48,1.24,4.74,1.24,4.73,-4.72,-4.57,-5.14,-3.48,-3.49,-3.49
247.93,1.19,4.69,1.20,4.69,-4.69,-4.54,-5.13,-3.49,-3.48,-3.50
250.41,1.17,4.66,1.16,4.65,-4.65,-4.51,-5.10,-3.47,-3.48,-3.49
252.92,1.11,4.60,1.12,4.61,-4.61,-4.48,-5.08,-3.49,-3.49,-3.48
255.45,1.07,4.56,1.08,4.56,-4.57,-4.45,-5.05,-3.49,-3.49,-3.49
258.00,1.03,4.52,1.03,4.52,-4.52,-4.41,-5.01,-3.49,-3.49,-3.49
260.58,0.98,4.48,0.98,4.47,-4.48,-4.38,-4.97,-3.49,-3.49,-3.49
263.19,0.93,4.42,0.94,4.43,-4.43,-4.35,-4.93,-3.49,-3.49,-3.49
265.82,0.88,4.38,0.89,4.38,-4.38,-4.32,-4.88,-3.49,-3.49,-3.50
268.48,0.84,4.34,0.84,4.33,-4.33,-4.28,-4.82,-3.48,-3.49,-3.49
271.16,0.79,4.29,0.78,4.28,-4.28,-4.25,-4.76,-3.48,-3.49,-3.50
273.87,0.71,4.21,0.73,4.22,-4.23,-4.22,-4.70,-3.51,-3.50,-3.49
276.61,0.67,4.17,0.67,4.17,-4.17,-4.19,-4.64,-3.50,-3.50,-3.50
279.38,0.61,4.13,0.62,4.12,-4.12,-4.15,-4.57,-3.50,-3.50,-3.51
282.17,0.57,4.07,0.57,4.07,-4.06,-4.12,-4.50,-3.49,-3.49,-3.50
284.99,0.53,4.02,0.52,4.02,-4.01,-4.09,-4.43,-3.48,-3.49,-3.49
287.84,0.46,3.95,0.47,3.96,-3.96,-4.05,-4.36,-3.50,-3.49,-3.49
290.72,0.41,3.91,0.42,3.91,-3.92,-4.02,-4.28,-3.50,-3.50,-3.50
293.63,0.37,3.87,0.37,3.86,-3.88,-3.99,-4.21,-3.50,-3.50,-3.49
296.57,0.34,3.82,0.34,3.83,-3.84,-3.95,-4.13,-3.50,-3.50,-3.48
299.53,0.32,3.81,0.32,3.80,-3.81,-3.92,-4.06,-3.48,-3.48,-3.48
302.53,0.30,3.78,0.31,3.78,-3.78,-3.89,-3.98,-3.47,-3.47,-3.47
305.55,0.29,3.76,0.29,3.76,-3.75,-3.85,-3.91,-3.46,-3.46,-3.47
308.61,0.27,3.74,0.27,3.73,-3.73,-3.82,-3.83,-3.45,-3.46,-3.46
311.69,0.24,3.70,0.25,3.71,-3.70,-3.78,-3.76,-3.46,-3.45,-3.45
314.81,0.23,3.68,0.23,3.68,-3.68,-3.75,-3.69,-3.45,-3.45,-3.45
317.96,0.21,3.65,0.21,3.66,-3.65,-3.72,-3.62,-3.44,-3.44,-3.44
321.14,0.19,3.63,0.19,3.63,-3.62,-3.68,-3.55,-3.43,-3.43,-3.43
324.35,0.16,3.60,0.16,3.59,-3.59,-3.65,-3.48,-3.43,-3.43,-3.44
327.59,0.13,3.54,0.14,3.56,-3.56,-3.62,-3.42,-3.42,-3.42,-3.41
330.87,0.11,3.53,0.11,3.52,-3.52,-3.58,-3.35,-3.41,-3.42,-3.41
334.18,0.08,3.50,0.08,3.49,-3.49,-3.55,-3.29,-3.41,-3.41,-3.41
337.52,0.04,3.44,0.05,3.45,-3.45,-3.52,-3.23,-3.41,-3.40,-3.40
340.90,0.03,3.42,0.03,3.42,-3.42,-3.48,-3.17,-3.38,-3.39,-3.39
344.30,0.00,3.38,0.00,3.38,-3.38,-3.45,-3.12,-3.38,-3.38,-3.38
347.75,-0.03,3.35,-0.02,3.35,-3.34,-3.42,-3.07,-3.37,-3.37,-3.37
351.23,-0.06,3.31,-0.06,3.30,-3.31,-3.38,-3.01,-3.36,-3.36,-3.36
354.74,-0.09,3.26,-0.09,3.27,-3.27,-3.35,-2.97,-3.35,-3.36,-3.35
358.28,-0.13,3.22,-0.12,3.23,-3.23,-3.32,-2.92,-3.36,-3.35,-3.35
361.87,-0.15,3.20,-0.15,3.19,-3.19,-3.28,-2.88,-3.34,-3.34,-3.35
365.49,-0.18,3.16,-0.18,3.16,-3.16,-3.25,-2.83,-3.33,-3.33,-3.33
369.14,-0.21,3.12,-0.20,3.12,-3.12,-3.22,-2.79,-3.33,-3.32,-3.32
372.83,-0.23,3.09,-0.23,3.08,-3.08,-3.19,-2.76,-3.31,-3.32,-3.32
376.56,-0.27,3.05,-0.26,3.05,-3.05,-3.15,-2.72,-3.31,-3.31,-3.32
380.33,-0.30,3.01,-0.30,3.01,-3.01,-3.12,-2.69,-3.31,-3.31,-3.31
384.13,-0.33,2.97,-0.33,2.97,-2.98,-3.09,-2.65,-3.31,-3.31,-3.30
387.97,-0.35,2.94,-0.35,2.94,-2.95,-3.06,-2.62,-3.29,-3.29,-3.29
391.85,-0.37,2.91,-0.36,2.92,-2.92,-3.03,-2.60,-3.28,-3.28,-3.27
395.77,-0.38,2.90,-0.38,2.89,-2.89,-2.99,-2.57,-3.26,-3.27,-3.27
399.73,-0.40,2.87,-0.40,2.86,-2.86,-2.96,-2.55,-3.26,-3.26,-3.26
403.72,-0.42,2.83,-0.42,2.83,-2.83,-2.93,-2.52,-3.25,-3.25,-3.25
407.76,-0.44,2.80,-0.43,2.80,-2.81,-2.90,-2.50,-3.24,-3.24,-3.24
411.84,-0.46,2.77,-0.45,2.77,-2.78,-2.87,-2.48,-3.23,-3.23,-3.23
415.96,-0.47,2.75,-0.47,2.75,-2.74,-2.84,-2.47,-3.21,-3.22,-3.22
420.12,-0.50,2.72,-0.50,2.72,-2.71,-2.81,-2.45,-3.21,-3.20,-3.22
424.32,-0.53,2.68,-0.52,2.68,-2.67,-2.78,-2.43,-3.20,-3.20,-3.21
428.56,-0.56,2.64,-0.56,2.63,-2.63,-2.75,-2.42,-3.19,-3.19,-3.19
432.85,-0.60,2.58,-0.59,2.59,-2.59,-2.72,-2.41,-3.19,-3.19,-3.17
437.18,-0.63,2.56,-0.63,2.55,-2.55,-2.69,-2.39,-3.18,-3.18,-3.18
441.55,-0.66,2.52,-0.66,2.51,-2.51,-2.66,-2.38,-3.17,-3.17,-3.17
445.96,-0.69,2.48,-0.69,2.48,-2.48,-2.63,-2.37,-3.16,-3.16,-3.16
450.42,-0.72,2.44,-0.71,2.44,-2.44,-2.60,-2.36,-3.16,-3.16,-3.16
454.93,-0.74,2.41,-0.73,2.41,-2.42,-2.57,-2.35,-3.16,-3.15,-3.15
459.48,-0.75,2.39,-0.75,2.39,-2.40,-2.54,-2.34,-3.15,-3.14,-3.14
464.07,-0.75,2.37,-0.75,2.38,-2.38,-2.52,-2.33,-3.13,-3.13,-3.12
468.71,-0.75,2.37,-0.74,2.37,-2.37,-2.49,-2.32,-3.12,-3.12,-3.12
473.40,-0.74,2.37,-0.74,2.37,-2.37,-2.46,-2.31,-3.10,-3.10,-3.11
478.13,-0.74,2.36,-0.73,2.37,-2.36,-2.43,-2.30,-3.10,-3.09,-3.10
482.91,-0.73,2.36,-0.73,2.36,-2.36,-2.41,-2.29,-3.08,-3.08,-3.09
487.74,-0.73,2.35,-0.73,2.35,-2.35,-2.38,-2.29,-3.08,-3.08,-3.08
492.62,-0.73,2.34,-0.73,2.35,-2.34,-2.35,-2.28,-3.07,-3.07,-3.07
