frequency,raw,error,smoothed,error_smoothed,equalization,parametric_eq,fixed_band_eq,equalized_raw,equalized_smoothed,target
20.00,2.62,1.26,2.62,1.26,-1.25,-2.17,-1.08,1.37,1.37,1.36
20.20,2.66,1.26,2.66,1.26,-1.25,-2.18,-1.11,1.41,1.41,1.40
20.40,2.70,1.26,2.70,1.26,-1.26,-2.18,-1.15,1.44,1.44,1.44
20.61,2.74,1.28,2.74,1.27,-1.27,-2.19,-1.18,1.47,1.47,1.46
20.81,2.78,1.28,2.78,1.28,-1.28,-2.19,-1.21,1.50,1.50,1.50
21.02,2.82,1.28,2.82,1.29,-1.30,-2.20,-1.25,1.52,1.53,1.54
21.23,2.87,1.32,2.87,1.31,-1.32,-2.20,-1.28,1.55,1.55,1.55
21.44,2.91,1.34,2.91,1.34,-1.34,-2.21,-1.32,1.57,1.57,1.57
21.66,2.95,1.37,2.96,1.38,-1.37,-2.21,-1.36,1.58,1.58,1.58
21.87,3.00,1.42,3.00,1.41,-1.41,-2.22,-1.40,1.59,1.59,1.58
22.09,3.04,1.45,3.04,1.45,-1.45,-2.22,-1.44,1.60,1.59,1.59
22.31,3.07,1.48,3.08,1.48,-1.49,-2.23,-1.48,1.59,1.59,1.59
22.54,3.11,1.52,3.11,1.52,-1.53,-2.24,-1.52,1.58,1.58,1.59
22.76,3.15,1.57,3.15,1.57,-1.57,-2.24,-1.56,1.58,1.58,1.58
22.99,3.19,1.62,3.19,1.62,-1.61,-2.25,-1.61,1.58,1.58,1.57
23.22,3.22,1.65,3.22,1.66,-1.65,-2.26,-1.65,1.57,1.57,1.57
23.45,3.26,1.70,3.26,1.70,-1.69,-2.26,-1.70,1.57,1.57,1.56
23.69,3.29,1.73,3.29,1.73,-1.74,-2.27,-1.75,1.55,1.56,1.56
23.92,3.33,1.77,3.33,1.77,-1.78,-2.28,-1.79,1.55,1.55,1.56
24.16,3.37,1.80,3.38,1.81,-1.83,-2.28,-1.84,1.54,1.55,1.57
24.40,3.43,1.86,3.43,1.87,-1.87,-2.29,-1.89,1.56,1.55,1.57
24.65,3.48,1.92,3.48,1.92,-1.92,-2.30,-1.94,1.56,1.56,1.56
24.89,3.53,1.98,3.53,1.97,-1.97,-2.31,-2.00,1.56,1.56,1.56
25.14,3.57,2.02,3.57,2.01,-2.01,-2.31,-2.05,1.56,1.56,1.55
25.39,3.60,2.05,3.61,2.05,-2.05,-2.32,-2.10,1.56,1.56,1.55
25.65,3.63,2.09,3.63,2.09,-2.07,-2.33,-2.15,1.56,1.56,1.54
25.91,3.66,2.13,3.65,2.12,-2.09,-2.34,-2.20,1.57,1.56,1.53
26.16,3.66,2.13,3.66,2.13,-2.10,-2.35,-2.26,1.56,1.55,1.53
26.43,3.65,2.12,3.65,2.12,-2.12,-2.35,-2.31,1.53,1.53,1.53
26.69,3.64,2.11,3.64,2.11,-2.14,-2.36,-2.36,1.50,1.50,1.53
26.96,3.63,2.11,3.65,2.12,-2.16,-2.37,-2.41,1.47,1.49,1.52
27.23,3.68,2.16,3.68,2.16,-2.19,-2.38,-2.46,1.49,1.49,1.52
27.50,3.73,2.21,3.73,2.21,-2.23,-2.39,-2.51,1.50,1.50,1.52
27.77,3.79,2.28,3.79,2.28,-2.28,-2.40,-2.56,1.52,1.51,1.51
28.05,3.84,2.33,3.84,2.33,-2.32,-2.41,-2.60,1.52,1.52,1.51
28.33,3.88,2.39,3.89,2.39,-2.37,-2.42,-2.65,1.52,1.52,1.50
28.62,3.92,2.43,3.92,2.43,-2.40,-2.43,-2.69,1.52,1.52,1.49
28.90,3.96,2.47,3.95,2.46,-2.43,-2.44,-2.73,1.53,1.52,1.49
29.19,3.97,2.48,3.96,2.47,-2.46,-2.45,-2.77,1.51,1.51,1.49
29.48,3.96,2.46,3.96,2.47,-2.47,-2.47,-2.81,1.49,1.49,1.50
29.78,3.95,2.46,3.96,2.46,-2.49,-2.48,-2.84,1.46,1.47,1.49
30.08,3.96,2.46,3.96,2.47,-2.49,-2.49,-2.87,1.47,1.47,1.50
30.38,3.98,2.50,3.98,2.50,-2.50,-2.50,-2.90,1.48,1.48,1.48
30.68,4.00,2.52,4.00,2.53,-2.51,-2.52,-2.92,1.49,1.49,1.48
30.99,4.03,2.57,4.02,2.55,-2.53,-2.53,-2.94,1.50,1.49,1.47
31.30,4.03,2.57,4.03,2.56,-2.56,-2.54,-2.96,1.47,1.46,1.46
31.61,4.03,2.57,4.03,2.58,-2.60,-2.56,-2.97,1.43,1.43,1.46
31.93,4.03,2.59,4.04,2.60,-2.64,-2.57,-2.98,1.39,1.40,1.44
32.24,4.08,2.65,4.09,2.65,-2.68,-2.59,-2.99,1.41,1.41,1.43
32.57,4.14,2.71,4.15,2.72,-2.70,-2.60,-3.00,1.44,1.44,1.43
32.89,4.21,2.79,4.19,2.78,-2.73,-2.62,-3.00,1.49,1.46,1.42
33.22,4.21,2.82,4.20,2.80,-2.74,-2.63,-3.00,1.47,1.46,1.39
33.55,4.17,2.78,4.18,2.79,-2.76,-2.65,-3.00,1.41,1.42,1.39
33.89,4.14,2.77,4.15,2.77,-2.78,-2.67,-2.99,1.36,1.36,1.37
34.23,4.13,2.76,4.13,2.76,-2.81,-2.69,-2.98,1.32,1.32,1.37
34.57,4.13,2.78,4.12,2.77,-2.84,-2.70,-2.98,1.29,1.29,1.35
34.92,4.13,2.80,4.15,2.81,-2.86,-2.72,-2.97,1.27,1.29,1.33
35.27,4.19,2.86,4.20,2.88,-2.89,-2.74,-2.95,1.30,1.32,1.33
35.62,4.27,2.96,4.27,2.95,-2.92,-2.76,-2.94,1.35,1.35,1.31
35.97,4.34,3.04,4.31,3.01,-2.94,-2.78,-2.93,1.40,1.37,1.30
36.33,4.31,3.02,4.31,3.02,-2.97,-2.80,-2.91,1.34,1.34,1.30
36.70,4.27,2.99,4.28,3.00,-2.98,-2.83,-2.90,1.29,1.30,1.28
37.06,4.23,2.96,4.24,2.97,-2.98,-2.85,-2.88,1.25,1.26,1.27
37.43,4.23,2.95,4.23,2.96,-2.98,-2.87,-2.87,1.25,1.25,1.28
37.81,4.23,2.97,4.23,2.96,-2.98,-2.90,-2.86,1.25,1.24,1.26
38.19,4.23,2.98,4.23,2.97,-2.99,-2.92,-2.84,1.24,1.24,1.25
38.57,4.23,2.97,4.23,2.98,-3.00,-2.94,-2.83,1.23,1.22,1.26
38.95,4.23,2.99,4.25,3.00,-3.02,-2.97,-2.82,1.21,1.23,1.25
39.34,4.29,3.05,4.29,3.05,-3.05,-2.99,-2.81,1.24,1.24,1.24
39.74,4.35,3.12,4.34,3.11,-3.08,-3.02,-2.80,1.27,1.26,1.23
40.14,4.38,3.15,4.37,3.14,-3.10,-3.05,-2.79,1.28,1.27,1.23
40.54,4.36,3.14,4.36,3.14,-3.12,-3.07,-2.79,1.24,1.24,1.22
40.94,4.33,3.11,4.34,3.13,-3.13,-3.10,-2.78,1.20,1.22,1.22
41.35,4.33,3.13,4.33,3.13,-3.13,-3.12,-2.78,1.20,1.20,1.20
41.76,4.33,3.14,4.33,3.13,-3.14,-3.14,-2.78,1.19,1.19,1.19
42.18,4.33,3.14,4.33,3.15,-3.14,-3.17,-2.78,1.19,1.19,1.19
42.60,4.33,3.16,4.33,3.16,-3.16,-3.19,-2.79,1.17,1.17,1.17
43.03,4.33,3.16,4.32,3.16,-3.19,-3.21,-2.79,1.14,1.13,1.17
43.46,4.33,3.19,4.32,3.18,-3.23,-3.23,-2.80,1.10,1.09,1.14
43.90,4.33,3.21,4.36,3.24,-3.28,-3.25,-2.81,1.05,1.08,1.12
44.33,4.41,3.31,4.43,3.33,-3.32,-3.26,-2.82,1.10,1.11,1.10
44.78,4.52,3.44,4.49,3.41,-3.35,-3.28,-2.84,1.17,1.14,1.08
45.23,4.54,3.48,4.51,3.45,-3.38,-3.29,-2.85,1.16,1.13,1.06
45.68,4.47,3.42,4.49,3.44,-3.41,-3.31,-2.87,1.06,1.08,1.05
46.13,4.43,3.40,4.45,3.42,-3.43,-3.32,-2.89,1.01,1.02,1.03
46.60,4.43,3.41,4.43,3.40,-3.44,-3.33,-2.91,0.99,0.99,1.02
47.06,4.43,3.41,4.43,3.41,-3.45,-3.34,-2.94,0.99,0.98,1.02
47.53,4.43,3.42,4.43,3.42,-3.45,-3.34,-2.96,0.99,0.99,1.01
48.01,4.43,3.43,4.43,3.43,-3.44,-3.35,-2.99,0.99,0.99,1.01
48.49,4.43,3.44,4.43,3.44,-3.43,-3.36,-3.02,1.00,1.00,0.99
48.97,4.43,3.46,4.44,3.47,-3.42,-3.36,-3.05,1.01,1.02,0.97
49.46,4.43,3.47,4.44,3.48,-3.42,-3.37,-3.09,1.01,1.02,0.96
49.96,4.43,3.48,4.39,3.43,-3.41,-3.38,-3.12,1.02,0.98,0.95
50.46,4.33,3.37,4.32,3.37,-3.39,-3.38,-3.16,0.94,0.93,0.96
50.96,4.22,3.27,4.28,3.33,-3.37,-3.39,-3.20,0.85,0.91,0.95
51.47,4.27,3.33,4.27,3.33,-3.36,-3.39,-3.23,0.91,0.91,0.94
51.99,4.33,3.40,4.30,3.36,-3.36,-3.40,-3.27,0.97,0.93,0.93
52.51,4.33,3.40,4.33,3.40,-3.39,-3.41,-3.31,0.94,0.94,0.93
53.03,4.33,3.40,4.32,3.39,-3.43,-3.41,-3.35,0.90,0.89,0.93
53.56,4.33,3.41,4.34,3.41,-3.48,-3.42,-3.40,0.85,0.86,0.93
54.10,4.36,3.45,4.41,3.49,-3.53,-3.43,-3.44,0.83,0.88,0.92
54.64,4.52,3.61,4.51,3.60,-3.56,-3.44,-3.48,0.96,0.95,0.91
55.18,4.62,3.72,4.59,3.68,-3.58,-3.45,-3.52,1.04,1.01,0.90
55.74,4.61,3.72,4.59,3.69,-3.59,-3.46,-3.56,1.02,1.00,0.89
56.29,4.52,3.63,4.51,3.62,-3.59,-3.47,-3.60,0.93,0.91,0.89
56.86,4.37,3.50,4.41,3.54,-3.58,-3.48,-3.63,0.79,0.83,0.87
57.42,4.33,3.47,4.34,3.49,-3.55,-3.50,-3.67,0.78,0.79,0.86
58.00,4.33,3.49,4.33,3.48,-3.51,-3.51,-3.71,0.82,0.82,0.84
58.58,4.33,3.50,4.32,3.49,-3.46,-3.52,-3.74,0.87,0.86,0.83
59.16,4.31,3.49,4.29,3.47,-3.43,-3.54,-3.77,0.88,0.86,0.82
59.76,4.22,3.43,4.23,3.43,-3.42,-3.55,-3.80,0.80,0.80,0.79
60.35,4.17,3.40,4.17,3.40,-3.45,-3.57,-3.82,0.72,0.72,0.77
60.96,4.12,3.38,4.15,3.41,-3.49,-3.58,-3.85,0.63,0.66,0.75
61.57,4.18,3.48,4.17,3.46,-3.53,-3.60,-3.87,0.65,0.64,0.70
62.18,4.23,3.57,4.20,3.54,-3.57,-3.62,-3.88,0.66,0.64,0.66
62.80,4.23,3.60,4.26,3.64,-3.59,-3.63,-3.90,0.64,0.67,0.63
63.43,4.29,3.70,4.31,3.72,-3.61,-3.65,-3.91,0.68,0.70,0.59
64.07,4.35,3.80,4.32,3.76,-3.63,-3.67,-3.92,0.72,0.69,0.56
64.71,4.27,3.75,4.22,3.70,-3.64,-3.69,-3.93,0.63,0.58,0.52
65.35,4.10,3.61,4.08,3.59,-3.64,-3.71,-3.93,0.45,0.44,0.49
66.01,3.84,3.39,3.97,3.52,-3.64,-3.72,-3.93,0.20,0.34,0.45
66.67,3.97,3.56,3.95,3.54,-3.63,-3.74,-3.93,0.34,0.33,0.41
67.33,4.03,3.65,3.98,3.60,-3.62,-3.76,-3.93,0.41,0.36,0.38
68.01,4.03,3.69,4.00,3.66,-3.62,-3.78,-3.93,0.41,0.39,0.34
68.69,3.93,3.63,3.97,3.67,-3.63,-3.80,-3.92,0.30,0.34,0.30
69.37,3.91,3.65,3.93,3.67,-3.65,-3.82,-3.91,0.26,0.28,0.26
70.07,3.93,3.71,3.89,3.67,-3.68,-3.84,-3.91,0.25,0.21,0.22
70.77,3.86,3.67,3.88,3.69,-3.70,-3.87,-3.90,0.16,0.18,0.19
71.48,3.83,3.69,3.84,3.70,-3.70,-3.89,-3.89,0.13,0.14,0.14
72.19,3.81,3.71,3.79,3.69,-3.68,-3.91,-3.88,0.13,0.10,0.10
72.91,3.74,3.69,3.74,3.69,-3.66,-3.93,-3.87,0.08,0.08,0.05
73.64,3.67,3.67,3.70,3.70,-3.65,-3.95,-3.87,0.02,0.06,0.00
74.38,3.63,3.67,3.61,3.65,-3.64,-3.97,-3.86,-0.01,-0.03,-0.04
75.12,3.59,3.68,3.51,3.60,-3.64,-4.00,-3.85,-0.05,-0.13,-0.09
75.87,3.35,3.48,3.45,3.57,-3.65,-4.02,-3.85,-0.30,-0.20,-0.13
76.63,3.41,3.57,3.43,3.59,-3.66,-4.04,-3.84,-0.25,-0.23,-0.16
77.40,3.49,3.69,3.45,3.65,-3.67,-4.06,-3.84,-0.18,-0.22,-0.20
78.17,3.53,3.77,3.52,3.76,-3.69,-4.09,-3.84,-0.16,-0.17,-0.24
78.95,3.53,3.80,3.54,3.81,-3.72,-4.11,-3.84,-0.18,-0.17,-0.27
79.74,3.53,3.83,3.53,3.83,-3.76,-4.13,-3.85,-0.23,-0.23,-0.30
80.54,3.51,3.84,3.46,3.79,-3.82,-4.16,-3.86,-0.31,-0.36,-0.32
81.35,3.43,3.79,3.43,3.79,-3.87,-4.18,-3.86,-0.44,-0.44,-0.36
82.16,3.36,3.75,3.49,3.87,-3.92,-4.20,-3.88,-0.56,-0.44,-0.39
82.98,3.61,4.02,3.57,3.98,-3.99,-4.23,-3.89,-0.38,-0.42,-0.41
83.81,3.77,4.22,3.66,4.10,-4.07,-4.25,-3.91,-0.30,-0.41,-0.45
84.65,3.68,4.16,3.74,4.22,-4.18,-4.27,-3.93,-0.50,-0.44,-0.48
85.50,3.73,4.23,3.77,4.28,-4.31,-4.29,-3.95,-0.58,-0.54,-0.50
86.35,3.87,4.41,3.80,4.34,-4.44,-4.32,-3.98,-0.56,-0.63,-0.54
87.22,3.93,4.50,3.97,4.54,-4.55,-4.34,-4.01,-0.62,-0.58,-0.57
88.09,4.03,4.63,4.13,4.73,-4.66,-4.36,-4.04,-0.63,-0.53,-0.60
88.97,4.39,5.02,4.21,4.85,-4.76,-4.39,-4.07,-0.37,-0.55,-0.63
89.86,4.24,4.90,4.24,4.91,-4.87,-4.41,-4.11,-0.62,-0.62,-0.66
90.76,4.15,4.85,4.24,4.93,-4.96,-4.43,-4.15,-0.81,-0.73,-0.70
91.66,4.20,4.93,4.22,4.95,-5.05,-4.45,-4.19,-0.85,-0.83,-0.72
92.58,4.33,5.09,4.31,5.07,-5.12,-4.47,-4.24,-0.79,-0.82,-0.76
93.51,4.42,5.21,4.40,5.19,-5.17,-4.49,-4.29,-0.75,-0.77,-0.79
94.44,4.44,5.25,4.45,5.27,-5.20,-4.51,-4.34,-0.76,-0.74,-0.81
95.39,4.44,5.28,4.44,5.28,-5.21,-4.53,-4.40,-0.77,-0.78,-0.84
96.34,4.40,5.28,4.36,5.24,-5.22,-4.55,-4.46,-0.82,-0.85,-0.88
97.30,4.26,5.17,4.30,5.20,-5.20,-4.57,-4.52,-0.94,-0.90,-0.91
98.28,4.17,5.10,4.23,5.16,-5.16,-4.59,-4.58,-0.99,-0.93,-0.93
99.26,4.21,5.16,4.13,5.09,-5.10,-4.60,-4.65,-0.89,-0.97,-0.95
100.25,4.06,5.04,4.04,5.01,-5.04,-4.62,-4.71,-0.98,-1.00,-0.98
101.25,3.87,4.88,3.94,4.95,-4.96,-4.63,-4.78,-1.09,-1.02,-1.01
102.27,3.83,4.87,3.85,4.89,-4.90,-4.64,-4.85,-1.07,-1.05,-1.04
103.29,3.81,4.89,3.76,4.83,-4.84,-4.65,-4.92,-1.02,-1.08,-1.08
104.32,3.71,4.81,3.68,4.79,-4.77,-4.65,-5.00,-1.06,-1.09,-1.10
105.37,3.51,4.65,3.58,4.72,-4.71,-4.65,-5.07,-1.20,-1.13,-1.14
106.42,3.50,4.67,3.48,4.65,-4.65,-4.64,-5.14,-1.15,-1.18,-1.17
107.48,3.41,4.62,3.38,4.59,-4.60,-4.64,-5.22,-1.19,-1.22,-1.21
108.56,3.29,4.54,3.32,4.56,-4.55,-4.62,-5.29,-1.26,-1.24,-1.25
109.64,3.22,4.50,3.22,4.50,-4.50,-4.60,-5.36,-1.28,-1.28,-1.28
110.74,3.16,4.47,3.14,4.46,-4.46,-4.58,-5.43,-1.30,-1.31,-1.31
111.85,3.07,4.41,3.07,4.41,-4.41,-4.55,-5.50,-1.34,-1.35,-1.34
112.97,3.01,4.40,3.04,4.42,-4.38,-4.53,-5.56,-1.37,-1.35,-1.39
114.10,2.96,4.37,3.00,4.41,-4.38,-4.50,-5.62,-1.42,-1.38,-1.40
115.24,3.05,4.49,2.91,4.35,-4.39,-4.49,-5.68,-1.33,-1.48,-1.44
116.39,2.83,4.30,2.86,4.33,-4.40,-4.48,-5.73,-1.57,-1.54,-1.47
117.55,2.71,4.21,2.92,4.41,-4.43,-4.51,-5.78,-1.72,-1.52,-1.50
118.73,3.06,4.58,2.95,4.47,-4.48,-4.54,-5.83,-1.42,-1.53,-1.52
119.92,3.21,4.74,3.06,4.59,-4.55,-4.60,-5.86,-1.34,-1.49,-1.53
121.12,2.98,4.54,3.14,4.69,-4.63,-4.67,-5.90,-1.65,-1.49,-1.55
122.33,3.15,4.72,3.13,4.70,-4.72,-4.75,-5.92,-1.57,-1.59,-1.57
123.55,3.23,4.80,3.18,4.76,-4.82,-4.83,-5.95,-1.58,-1.63,-1.57
124.79,3.25,4.85,3.31,4.90,-4.91,-4.92,-5.96,-1.66,-1.60,-1.60
126.03,3.42,5.03,3.40,5.02,-4.99,-5.00,-5.97,-1.57,-1.59,-1.61
127.29,3.50,5.13,3.50,5.13,-5.08,-5.08,-5.97,-1.58,-1.58,-1.63
128.57,3.59,5.24,3.53,5.17,-5.17,-5.15,-5.97,-1.58,-1.64,-1.65
129.85,3.56,5.22,3.57,5.23,-5.26,-5.22,-5.96,-1.70,-1.70,-1.66
131.15,3.51,5.19,3.68,5.35,-5.36,-5.28,-5.95,-1.85,-1.68,-1.68
132.46,3.86,5.55,3.73,5.42,-5.45,-5.34,-5.93,-1.59,-1.72,-1.69
133.79,3.95,5.64,3.82,5.52,-5.53,-5.40,-5.90,-1.58,-1.71,-1.69
135.12,3.71,5.43,3.96,5.67,-5.62,-5.44,-5.87,-1.90,-1.66,-1.72
136.48,4.05,5.77,3.99,5.72,-5.71,-5.49,-5.84,-1.66,-1.72,-1.72
137.84,4.19,5.93,4.01,5.76,-5.81,-5.54,-5.80,-1.61,-1.79,-1.74
139.22,4.01,5.78,4.12,5.88,-5.89,-5.58,-5.76,-1.88,-1.77,-1.77
140.61,4.02,5.81,4.17,5.94,-5.96,-5.62,-5.72,-1.94,-1.80,-1.79
142.02,4.38,6.17,4.23,6.02,-6.03,-5.65,-5.68,-1.65,-1.80,-1.79
143.44,4.34,6.14,4.31,6.12,-6.07,-5.69,-5.63,-1.73,-1.76,-1.80
144.87,4.26,6.09,4.33,6.16,-6.10,-5.72,-5.58,-1.84,-1.77,-1.83
146.32,4.25,6.11,4.25,6.11,-6.11,-5.75,-5.53,-1.86,-1.86,-1.86
147.78,4.25,6.13,4.23,6.11,-6.11,-5.78,-5.49,-1.86,-1.89,-1.88
149.26,4.16,6.08,4.18,6.10,-6.10,-5.81,-5.44,-1.93,-1.91,-1.92
150.75,4.11,6.08,4.07,6.04,-6.07,-5.84,-5.39,-1.96,-2.00,-1.97
152.26,3.96,5.98,3.96,5.98,-6.04,-5.86,-5.35,-2.07,-2.08,-2.02
153.78,3.79,5.86,3.86,5.94,-5.97,-5.89,-5.30,-2.18,-2.11,-2.07
155.32,3.80,5.93,3.77,5.90,-5.89,-5.91,-5.26,-2.09,-2.12,-2.13
156.88,3.69,5.88,3.68,5.87,-5.77,-5.94,-5.22,-2.08,-2.10,-2.19
158.44,3.53,5.79,3.52,5.78,-5.63,-5.96,-5.19,-2.10,-2.11,-2.26
160.03,3.31,5.63,3.29,5.61,-5.49,-5.98,-5.15,-2.18,-2.20,-2.32
161.63,2.99,5.36,3.02,5.40,-5.36,-6.00,-5.12,-2.37,-2.34,-2.37
163.24,2.79,5.22,2.75,5.17,-5.26,-6.01,-5.09,-2.47,-2.51,-2.43
164.88,2.54,5.00,2.56,5.02,-5.20,-6.03,-5.07,-2.66,-2.64,-2.46
166.53,2.44,4.94,2.51,5.01,-5.18,-6.05,-5.04,-2.74,-2.67,-2.50
168.19,2.59,5.12,2.58,5.11,-5.23,-6.06,-5.02,-2.64,-2.65,-2.53
169.87,2.80,5.36,2.76,5.31,-5.34,-6.08,-5.01,-2.54,-2.58,-2.56
171.57,2.95,5.52,2.98,5.55,-5.50,-6.09,-5.00,-2.55,-2.52,-2.57
173.29,3.17,5.75,3.15,5.73,-5.69,-6.10,-4.99,-2.52,-2.54,-2.58
175.02,3.34,5.93,3.33,5.92,-5.87,-6.11,-4.99,-2.53,-2.54,-2.59
176.77,3.44,6.03,3.52,6.11,-6.03,-6.12,-4.99,-2.59,-2.51,-2.59
178.54,3.70,6.30,3.65,6.24,-6.14,-6.13,-4.99,-2.44,-2.49,-2.60
180.32,3.77,6.36,3.71,6.30,-6.23,-6.14,-5.00,-2.46,-2.51,-2.58
182.13,3.69,6.27,3.72,6.30,-6.27,-6.15,-5.01,-2.58,-2.55,-2.58
183.95,3.63,6.21,3.66,6.25,-6.29,-6.16,-5.02,-2.66,-2.63,-2.58
185.79,3.64,6.23,3.64,6.23,-6.30,-6.17,-5.04,-2.66,-2.67,-2.59
187.65,3.65,6.25,3.65,6.25,-6.30,-6.17,-5.06,-2.65,-2.65,-2.60
189.52,3.67,6.28,3.67,6.28,-6.29,-6.18,-5.09,-2.62,-2.62,-2.60
191.42,3.68,6.30,3.68,6.30,-6.29,-6.18,-5.12,-2.61,-2.61,-2.62
193.33,3.69,6.32,3.68,6.31,-6.30,-6.19,-5.15,-2.61,-2.62,-2.63
195.27,3.67,6.31,3.66,6.31,-6.30,-6.19,-5.19,-2.63,-2.64,-2.64
197.22,3.63,6.29,3.66,6.32,-6.30,-6.20,-5.23,-2.67,-2.64,-2.66
199.19,3.63,6.32,3.65,6.33,-6.29,-6.20,-5.27,-2.66,-2.65,-2.68
201.18,3.67,6.37,3.61,6.31,-6.28,-6.20,-5.31,-2.61,-2.67,-2.70
203.19,3.55,6.26,3.56,6.27,-6.27,-6.20,-5.35,-2.72,-2.71,-2.71
205.23,3.45,6.19,3.49,6.22,-6.26,-6.20,-5.40,-2.81,-2.76,-2.74
207.28,3.45,6.19,3.44,6.19,-6.25,-6.20,-5.45,-2.80,-2.81,-2.74
209.35,3.45,6.22,3.44,6.20,-6.24,-6.19,-5.50,-2.79,-2.80,-2.77
211.44,3.44,6.22,3.45,6.23,-6.22,-6.18,-5.55,-2.78,-2.77,-2.78
213.56,3.44,6.23,3.44,6.24,-6.20,-6.16,-5.60,-2.76,-2.75,-2.79
215.69,3.44,6.24,3.41,6.22,-6.17,-6.15,-5.65,-2.73,-2.76,-2.80
217.85,3.36,6.17,3.38,6.19,-6.14,-6.12,-5.70,-2.78,-2.76,-2.81
220.03,3.29,6.12,3.29,6.11,-6.11,-6.09,-5.75,-2.82,-2.82,-2.83
222.23,3.24,6.08,3.18,6.00,-6.06,-6.05,-5.79,-2.82,-2.88,-2.84
224.45,3.05,5.87,3.17,6.00,-6.00,-6.02,-5.83,-2.95,-2.84,-2.82
226.70,3.10,5.92,3.14,5.96,-5.95,-5.97,-5.87,-2.85,-2.82,-2.82
228.96,3.27,6.09,3.05,5.86,-5.90,-5.92,-5.91,-2.63,-2.85,-2.82
231.25,2.93,5.73,3.03,5.83,-5.85,-5.86,-5.94,-2.92,-2.82,-2.80
233.57,2.84,5.63,3.00,5.80,-5.80,-5.80,-5.97,-2.96,-2.79,-2.79
235.90,3.10,5.88,2.97,5.75,-5.75,-5.74,-5.99,-2.65,-2.77,-2.78
238.26,3.06,5.81,3.00,5.75,-5.69,-5.68,-6.01,-2.63,-2.69,-2.75
240.64,2.89,5.62,2.95,5.67,-5.63,-5.61,-6.02,-2.74,-2.68,-2.73
243.05,2.82,5.51,2.83,5.52,-5.56,-5.54,-6.02,-2.74,-2.73,-2.69
245.48,2.76,5.43,2.80,5.47,-5.49,-5.47,-6.02,-2.73,-2.69,-2.67
247.93,2.78,5.43,2.76,5.41,-5.41,-5.40,-6.01,-2.63,-2.65,-2.64
250.41,2.81,5.44,2.70,5.33,-5.34,-5.33,-5.99,-2.53,-2.63,-2.63
252.92,2.55,5.15,2.67,5.27,-5.26,-5.25,-5.97,-2.71,-2.59,-2.59
255.45,2.58,5.15,2.60,5.18,-5.18,-5.18,-5.93,-2.60,-2.58,-2.57
258.00,2.64,5.19,2.51,5.06,-5.10,-5.10,-5.89,-2.46,-2.59,-2.55
260.58,2.43,4.97,2.52,5.05,-5.02,-5.02,-5.85,-2.59,-2.50,-2.54
263.19,2.38,4.89,2.46,4.98,-4.94,-4.94,-5.79,-2.56,-2.47,-2.51
265.82,2.53,5.03,2.37,4.86,-4.86,-4.85,-5.73,-2.33,-2.49,-2.50
268.48,2.26,4.73,2.29,4.76,-4.78,-4.77,-5.67,-2.52,-2.49,-2.47
271.16,2.12,4.57,2.19,4.64,-4.68,-4.67,-5.60,-2.56,-2.49,-2.44
273.87,2.10,4.53,2.12,4.54,-4.57,-4.58,-5.53,-2.47,-2.45,-2.43
276.61,2.13,4.53,2.11,4.51,-4.45,-4.48,-5.44,-2.32,-2.34,-2.40
279.38,2.11,4.49,2.06,4.44,-4.33,-4.38,-5.36,-2.22,-2.27,-2.38
282.17,1.91,4.27,1.93,4.28,-4.23,-4.28,-5.27,-2.32,-2.31,-2.36
284.99,1.76,4.08,1.74,4.07,-4.14,-4.17,-5.19,-2.38,-2.40,-2.32
287.84,1.59,3.89,1.63,3.93,-4.06,-4.07,-5.09,-2.47,-2.42,-2.29
290.72,1.56,3.82,1.63,3.89,-3.97,-3.98,-5.00,-2.40,-2.34,-2.26
293.63,1.74,3.97,1.68,3.91,-3.88,-3.90,-4.90,-2.13,-2.20,-2.23
296.57,1.73,3.92,1.71,3.91,-3.80,-3.82,-4.81,-2.07,-2.09,-2.19
299.53,1.70,3.88,1.67,3.84,-3.75,-3.77,-4.71,-2.05,-2.08,-2.18
302.53,1.53,3.68,1.57,3.71,-3.72,-3.73,-4.62,-2.19,-2.15,-2.15
305.55,1.48,3.59,1.49,3.61,-3.70,-3.71,-4.52,-2.22,-2.21,-2.11
308.61,1.49,3.58,1.47,3.57,-3.67,-3.69,-4.43,-2.18,-2.20,-2.09
311.69,1.49,3.57,1.55,3.62,-3.63,-3.69,-4.33,-2.14,-2.08,-2.08
314.81,1.65,3.69,1.63,3.68,-3.60,-3.68,-4.24,-1.95,-1.98,-2.04
317.96,1.72,3.75,1.66,3.68,-3.59,-3.67,-4.15,-1.87,-1.94,-2.03
321.14,1.63,3.64,1.62,3.63,-3.60,-3.66,-4.06,-1.97,-1.99,-2.01
324.35,1.51,3.51,1.55,3.55,-3.61,-3.65,-3.97,-2.10,-2.06,-2.00
327.59,1.48,3.47,1.56,3.55,-3.62,-3.63,-3.88,-2.14,-2.06,-1.99
330.87,1.65,3.63,1.62,3.60,-3.63,-3.61,-3.80,-1.98,-2.01,-1.98
334.18,1.77,3.74,1.68,3.65,-3.62,-3.58,-3.72,-1.85,-1.94,-1.97
337.52,1.67,3.63,1.71,3.67,-3.61,-3.55,-3.64,-1.94,-1.90,-1.96
340.90,1.66,3.60,1.69,3.63,-3.61,-3.52,-3.56,-1.95,-1.92,-1.94
344.30,1.68,3.61,1.66,3.59,-3.60,-3.49,-3.48,-1.92,-1.94,-1.93
347.75,1.65,3.58,1.66,3.59,-3.59,-3.45,-3.41,-1.94,-1.92,-1.93
351.23,1.65,3.57,1.64,3.55,-3.56,-3.42,-3.34,-1.91,-1.92,-1.92
354.74,1.60,3.52,1.59,3.50,-3.52,-3.38,-3.27,-1.92,-1.93,-1.92
358.28,1.52,3.43,1.55,3.46,-3.47,-3.34,-3.21,-1.95,-1.92,-1.91
361.87,1.50,3.41,1.51,3.42,-3.42,-3.30,-3.15,-1.92,-1.91,-1.91
365.49,1.51,3.41,1.48,3.39,-3.37,-3.26,-3.09,-1.86,-1.89,-1.90
369.14,1.44,3.34,1.43,3.34,-3.32,-3.22,-3.03,-1.88,-1.89,-1.90
372.83,1.35,3.26,1.36,3.26,-3.26,-3.18,-2.97,-1.91,-1.90,-1.90
376.56,1.27,3.18,1.29,3.19,-3.20,-3.14,-2.92,-1.93,-1.91,-1.91
380.33,1.24,3.13,1.23,3.13,-3.14,-3.09,-2.87,-1.90,-1.91,-1.89
384.13,1.20,3.10,1.17,3.07,-3.08,-3.05,-2.82,-1.88,-1.91,-1.90
387.97,1.10,3.00,1.12,3.02,-3.02,-3.01,-2.78,-1.92,-1.90,-1.90
391.85,1.06,2.96,1.07,2.97,-2.97,-2.97,-2.73,-1.91,-1.89,-1.90
395.77,1.04,2.93,1.02,2.92,-2.91,-2.93,-2.69,-1.87,-1.89,-1.89
399.73,0.98,2.87,0.98,2.88,-2.86,-2.89,-2.65,-1.88,-1.88,-1.89
403.72,0.91,2.81,0.92,2.82,-2.81,-2.84,-2.61,-1.90,-1.89,-1.90
407.76,0.86,2.76,0.85,2.75,-2.76,-2.80,-2.58,-1.90,-1.92,-1.90
411.84,0.78,2.67,0.80,2.70,-2.71,-2.76,-2.54,-1.93,-1.92,-1.89
415.96,0.74,2.65,0.76,2.66,-2.66,-2.72,-2.51,-1.92,-1.90,-1.90
420.12,0.74,2.65,0.72,2.62,-2.61,-2.68,-2.48,-1.87,-1.89,-1.91
424.32,0.68,2.58,0.68,2.58,-2.56,-2.64,-2.45,-1.88,-1.88,-1.90
428.56,0.63,2.53,0.64,2.53,-2.51,-2.60,-2.42,-1.88,-1.88,-1.90
432.85,0.59,2.47,0.58,2.46,-2.47,-2.56,-2.39,-1.88,-1.89,-1.88
437.18,0.55,2.41,0.56,2.41,-2.44,-2.53,-2.36,-1.88,-1.88,-1.86
441.55,0.54,2.36,0.56,2.38,-2.40,-2.49,-2.34,-1.86,-1.84,-1.82
445.96,0.58,2.37,0.58,2.37,-2.37,-2.45,-2.31,-1.79,-1.79,-1.79
450.42,0.63,2.39,0.61,2.36,-2.35,-2.41,-2.29,-1.72,-1.74,-1.76
454.93,0.64,2.34,0.64,2.34,-2.35,-2.38,-2.27,-1.70,-1.71,-1.70
459.48,0.64,2.30,0.66,2.32,-2.34,-2.34,-2.25,-1.70,-1.68,-1.66
464.07,0.70,2.30,0.70,2.31,-2.33,-2.30,-2.22,-1.63,-1.63,-1.60
468.71,0.76,2.31,0.76,2.32,-2.31,-2.27,-2.20,-1.55,-1.55,-1.55
473.40,0.83,2.33,0.82,2.33,-2.28,-2.23,-2.18,-1.45,-1.46,-1.50
478.13,0.86,2.31,0.86,2.31,-2.24,-2.20,-2.16,-1.38,-1.39,-1.45
482.91,0.85,2.26,0.84,2.25,-2.21,-2.17,-2.14,-1.35,-1.37,-1.41
487.74,0.80,2.16,0.78,2.15,-2.16,-2.13,-2.12,-1.36,-1.38,-1.36
492.62,0.70,2.03,0.74,2.06,-2.12,-2.10,-2.09,-1.42,-1.38,-1.32
497.55,0.71,2.01,0.72,2.01,-2.07,-2.07,-2.07,-1.36,-1.35,-1.30
