frequency,raw
20.00,5.06
20.20,5.11
20.40,5.15
20.61,5.19
20.81,5.22
21.02,5.26
21.23,5.30
21.44,5.34
21.66,5.38
21.87,5.41
22.09,5.45
22.31,5.47
22.54,5.50
22.76,5.52
22.99,5.55
23.22,5.58
23.45,5.61
23.69,5.64
23.92,5.65
24.16,5.68
24.40,5.70
24.65,5.73
24.89,5.74
25.14,5.77
25.39,5.79
25.65,5.81
25.91,5.83
26.16,5.85
26.43,5.87
26.69,5.89
26.96,5.91
27.23,5.93
27.50,5.95
27.77,5.97
28.05,5.99
28.33,6.01
28.62,6.02
28.90,6.05
29.19,6.06
29.48,6.07
29.78,6.09
30.08,6.10
30.38,6.13
30.68,6.14
30.99,6.15
31.30,6.16
31.61,6.18
31.93,6.19
32.24,6.20
32.57,6.22
32.89,6.23
33.22,6.23
33.55,6.25
33.89,6.25
34.23,6.25
34.57,6.26
34.92,6.26
35.27,6.27
35.62,6.28
35.97,6.29
36.33,6.29
36.70,6.30
37.06,6.30
37.43,6.33
37.81,6.35
38.19,6.37
38.57,6.40
38.95,6.42
39.34,6.45
39.74,6.47
40.14,6.50
40.54,6.52
40.94,6.55
41.35,6.57
41.76,6.60
42.18,6.63
42.60,6.66
43.03,6.67
43.46,6.69
43.90,6.71
44.33,6.74
44.78,6.76
45.23,6.78
45.68,6.80
46.13,6.82
46.60,6.84
47.06,6.85
47.53,6.88
48.01,6.89
48.49,6.89
48.97,6.90
49.46,6.90
49.96,6.91
50.46,6.92
50.96,6.93
51.47,6.92
51.99,6.93
52.51,6.93
53.03,6.93
53.56,6.92
54.10,6.91
54.64,6.90
55.18,6.90
55.74,6.89
56.29,6.88
56.86,6.88
57.42,6.88
58.00,6.87
58.58,6.87
59.16,6.87
59.76,6.87
60.35,6.88
60.96,6.89
61.57,6.89
62.18,6.89
62.80,6.88
63.43,6.88
64.07,6.87
64.71,6.86
65.35,6.84
66.01,6.82
66.67,6.80
67.33,6.78
68.01,6.76
68.69,6.74
69.37,6.71
70.07,6.69
70.77,6.67
71.48,6.63
72.19,6.60
72.91,6.58
73.64,6.57
74.38,6.54
75.12,6.52
75.87,6.50
76.63,6.49
77.40,6.49
78.17,6.47
78.95,6.48
79.74,6.49
80.54,6.49
81.35,6.49
82.16,6.49
82.98,6.49
83.81,6.49
84.65,6.48
85.50,6.48
86.35,6.48
87.22,6.48
88.09,6.48
88.97,6.48
89.86,6.48
90.76,6.48
91.66,6.48
92.58,6.48
93.51,6.48
94.44,6.48
95.39,6.48
96.34,6.48
97.30,6.47
98.28,6.47
99.26,6.47
100.25,6.47
101.25,6.47
102.27,6.47
103.29,6.47
104.32,6.46
105.37,6.46
106.42,6.46
107.48,6.45
108.56,6.46
109.64,6.46
110.74,6.47
111.85,6.47
112.97,6.45
114.10,6.43
115.24,6.41
116.39,6.39
117.55,6.35
118.73,6.32
119.92,6.28
121.12,6.24
122.33,6.21
123.55,6.18
124.79,6.14
126.03,6.10
127.29,6.08
128.57,6.06
129.85,6.05
131.15,6.05
132.46,6.05
133.79,6.06
135.12,6.06
136.48,6.06
137.84,6.06
139.22,6.06
140.61,6.07
142.02,6.07
143.44,6.07
144.87,6.07
146.32,6.06
147.78,6.05
149.26,6.04
150.75,6.00
152.26,5.98
153.78,5.94
155.32,5.90
156.88,5.86
158.44,5.83
160.03,5.79
161.63,5.77
163.24,5.73
164.88,5.70
166.53,5.68
168.19,5.67
169.87,5.66
171.57,5.67
173.29,5.68
175.02,5.70
176.77,5.69
178.54,5.68
180.32,5.67
182.13,5.65
183.95,5.62
185.79,5.59
187.65,5.56
189.52,5.53
191.42,5.50
193.33,5.46
195.27,5.43
197.22,5.40
199.19,5.37
201.18,5.34
203.19,5.32
205.23,5.31
207.28,5.32
209.35,5.33
211.44,5.33
213.56,5.32
215.69,5.30
217.85,5.27
220.03,5.24
222.23,5.21
224.45,5.18
226.70,5.14
228.96,5.09
231.25,5.07
233.57,5.04
235.90,5.00
238.26,4.99
240.64,4.96
243.05,4.94
245.48,4.92
247.93,4.90
250.41,4.88
252.92,4.85
255.45,4.82
258.00,4.79
260.58,4.74
263.19,4.71
265.82,4.68
268.48,4.65
271.16,4.63
273.87,4.59
276.61,4.55
279.38,4.52
282.17,4.48
284.99,4.46
287.84,4.42
290.72,4.40
293.63,4.37
296.57,4.35
299.53,4.31
302.53,4.28
305.55,4.25
308.61,4.20
311.69,4.16
314.81,4.12
317.96,4.09
321.14,4.06
324.35,4.03
327.59,4.01
330.87,3.98
334.18,3.93
337.52,3.89
340.90,3.84
344.30,3.79
347.75,3.75
351.23,3.71
354.74,3.68
358.28,3.65
361.87,3.63
365.49,3.59
369.14,3.55
372.83,3.50
376.56,3.44
380.33,3.40
384.13,3.36
387.97,3.33
391.85,3.30
395.77,3.27
399.73,3.23
403.72,3.19
407.76,3.13
411.84,3.09
415.96,3.04
420.12,2.99
424.32,2.95
428.56,2.89
432.85,2.85
437.18,2.80
441.55,2.75
445.96,2.70
450.42,2.64
454.93,2.58
459.48,2.52
464.07,2.47
468.71,2.44
473.40,2.40
478.13,2.35
482.91,2.29
487.74,2.24
492.62,2.19
497.55,2.15
502.52,2.11
507.55,2.06
512.62,2.00
517.75,1.92
522.93,1.86
528.16,1.82
533.44,1.77
538.77,1.71
544.16,1.64
549.60,1.58
555.10,1.52
560.65,1.46
566.25,1.41
571.92,1.34
577.64,1.28
583.41,1.22
589.25,1.16
595.14,1.08
601.09,1.03
607.10,0.97
613.17,0.91
619.30,0.85
625.50,0.78
631.75,0.72
638.07,0.65
644.45,0.60
650.89,0.53
657.40,0.47
663.98,0.40
670.62,0.33
677.32,0.27
684.10,0.22
690.94,0.15
697.85,0.07
704.83,0.00
711.87,-0.06
718.99,-0.12
726.18,-0.18
733.44,-0.25
740.78,-0.33
748.19,-0.39
755.67,-0.45
763.23,-0.53
770.86,-0.60
778.57,-0.68
786.35,-0.74
794.22,-0.79
802.16,-0.87
810.18,-0.94
818.28,-1.02
826.46,-1.07
834.73,-1.13
843.08,-1.21
851.51,-1.28
860.02,-1.33
868.62,-1.38
877.31,-1.45
886.08,-1.51
894.94,-1.56
903.89,-1.61
912.93,-1.65
922.06,-1.69
931.28,-1.74
940.59,-1.79
950.00,-1.81
959.50,-1.84
969.09,-1.88
978.78,-1.90
988.57,-1.92
998.46,-1.93
1008.44,-1.94
1018.53,-1.94
1028.71,-1.94
1039.00,-1.93
1049.39,-1.91
1059.88,-1.90
1070.48,-1.89
1081.19,-1.87
1092.00,-1.85
1102.92,-1.82
1113.95,-1.80
1125.09,-1.77
1136.34,-1.73
1147.70,-1.70
1159.18,-1.67
1170.77,-1.65
1182.48,-1.63
1194.30,-1.60
1206.25,-1.57
1218.31,-1.54
1230.49,-1.50
1242.80,-1.48
1255.22,-1.46
1267.78,-1.44
1280.45,-1.41
1293.26,-1.38
1306.19,-1.38
1319.25,-1.38
1332.45,-1.39
1345.77,-1.39
1359.23,-1.39
1372.82,-1.40
1386.55,-1.40
1400.41,-1.41
1414.42,-1.40
1428.56,-1.40
1442.85,-1.40
1457.28,-1.40
1471.85,-1.41
1486.57,-1.43
1501.43,-1.45
1516.45,-1.47
1531.61,-1.48
1546.93,-1.49
1562.40,-1.51
1578.02,-1.52
1593.80,-1.54
1609.74,-1.56
1625.84,-1.58
1642.10,-1.59
1658.52,-1.60
1675.10,-1.60
1691.85,-1.57
1708.77,-1.54
1725.86,-1.50
1743.12,-1.46
1760.55,-1.43
1778.15,-1.39
1795.94,-1.35
1813.90,-1.31
1832.03,-1.25
1850.36,-1.18
1868.86,-1.11
1887.55,-1.04
1906.42,-0.97
1925.49,-0.89
1944.74,-0.81
1964.19,-0.73
1983.83,-0.66
2003.67,-0.57
2023.71,-0.46
2043.94,-0.36
2064.38,-0.24
2085.03,-0.13
2105.88,-0.00
2126.94,0.13
2148.20,0.26
2169.69,0.40
2191.38,0.55
2213.30,0.71
2235.43,0.86
2257.78,1.01
2280.36,1.16
2303.17,1.30
2326.20,1.43
2349.46,1.55
2372.95,1.66
2396.68,1.77
2420.65,1.87
2444.86,1.97
2469.31,2.07
2494.00,2.17
2518.94,2.27
2544.13,2.36
2569.57,2.43
2595.27,2.48
2621.22,2.53
2647.43,2.59
2673.90,2.63
2700.64,2.66
2727.65,2.66
2754.93,2.65
2782.48,2.65
2810.30,2.62
2838.40,2.59
2866.79,2.54
2895.46,2.49
2924.41,2.45
2953.65,2.41
2983.19,2.35
3013.02,2.30
3043.15,2.22
3073.58,2.14
3104.32,2.05
3135.36,1.95
3166.72,1.85
3198.38,1.77
3230.37,1.65
3262.67,1.54
3295.30,1.41
3328.25,1.27
3361.53,1.12
3395.15,0.97
3429.10,0.80
3463.39,0.64
3498.03,0.47
3533.01,0.32
3568.34,0.13
3604.02,-0.04
3640.06,-0.20
3676.46,-0.37
3713.22,-0.55
3750.36,-0.71
3787.86,-0.86
3825.74,-1.02
3864.00,-1.16
3902.64,-1.30
3941.66,-1.43
3981.08,-1.56
4020.89,-1.68
4061.10,-1.81
4101.71,-1.93
4142.73,-2.02
4184.15,-2.10
4226.00,-2.18
4268.26,-2.23
4310.94,-2.28
4354.05,-2.32
4397.59,-2.32
4441.56,-2.32
4485.98,-2.30
4530.84,-2.27
4576.15,-2.21
4621.91,-2.14
4668.13,-2.04
4714.81,-1.94
4761.96,-1.83
4809.58,-1.70
4857.67,-1.58
4906.25,-1.44
4955.31,-1.30
5004.87,-1.15
5054.91,-0.99
5105.46,-0.85
5156.52,-0.69
5208.08,-0.55
5260.16,-0.39
5312.77,-0.26
5365.89,-0.11
5419.55,0.04
5473.75,0.20
5528.49,0.35
5583.77,0.50
5639.61,0.66
5696.00,0.80
5752.96,0.94
5810.49,1.08
5868.60,1.22
5927.28,1.35
5986.56,1.48
6046.42,1.63
6106.89,1.78
6167.96,1.95
6229.64,2.10
6291.93,2.25
6354.85,2.40
6418.40,2.57
6482.58,2.75
6547.41,2.93
6612.88,3.12
6679.01,3.32
6745.80,3.52
6813.26,3.71
6881.39,3.92
6950.21,4.13
7019.71,4.36
7089.91,4.61
7160.81,4.88
7232.41,5.17
7304.74,5.49
7377.79,5.82
7451.56,6.15
7526.08,6.50
7601.34,6.83
7677.35,7.14
7754.13,7.42
7831.67,7.67
7909.98,7.87
7989.08,8.03
8068.98,8.14
8149.67,8.18
8231.16,8.17
8313.47,8.12
8396.61,8.02
8480.57,7.88
8565.38,7.70
8651.03,7.47
8737.54,7.22
8824.92,6.96
8913.17,6.69
9002.30,6.42
9092.32,6.15
9183.25,5.89
9275.08,5.67
9367.83,5.46
9461.51,5.25
9556.12,5.07
9651.68,4.91
9748.20,4.77
9845.68,4.62
9944.14,4.49
10043.58,4.36
10144.02,4.24
10245.46,4.12
10347.91,3.99
10451.39,3.82
10555.91,3.66
10661.46,3.49
10768.08,3.33
10875.76,3.16
10984.52,3.01
11094.36,2.90
11205.31,2.79
11317.36,2.71
11430.53,2.64
11544.84,2.59
11660.29,2.57
11776.89,2.52
11894.66,2.50
12013.60,2.48
12133.74,2.48
12255.08,2.49
12377.63,2.51
12501.41,2.53
12626.42,2.54
12752.68,2.56
12880.21,2.59
13009.01,2.63
13139.10,2.66
13270.49,2.67
13403.20,2.66
13537.23,2.62
13672.60,2.50
13809.33,2.28
13947.42,1.95
14086.90,1.53
14227.77,1.00
14370.04,0.40
14513.74,-0.29
14658.88,-1.05
14805.47,-1.86
14953.52,-2.67
15103.06,-3.49
15254.09,-4.28
15406.63,-5.05
15560.70,-5.76
15716.30,-6.39
15873.47,-6.97
16032.20,-7.51
16192.52,-8.05
16354.45,-8.60
16517.99,-9.21
16683.17,-9.94
16850.01,-10.84
17018.51,-11.91
17188.69,-13.18
17360.58,-14.63
17534.18,-16.25
17709.53,-18.02
17886.62,-19.87
18065.49,-21.76
18246.14,-23.14
18428.60,-24.31
18612.89,-25.40
18799.02,-26.40
18987.01,-27.32
19176.88,-28.17
19368.65,-28.93
19562.33,-29.61
19757.96,-30.20
19955.54,-30.71
