frequency,raw,error,smoothed,error_smoothed,equalization,parametric_eq,fixed_band_eq,equalized_raw,equalized_smoothed,target
20.00,6.97,7.50,6.97,7.50,-7.50,-7.91,-3.64,-0.54,-0.54,-0.54
20.20,6.97,7.47,6.97,7.47,-7.47,-7.91,-3.74,-0.50,-0.50,-0.50
20.40,6.97,7.43,6.97,7.43,-7.43,-7.91,-3.84,-0.46,-0.46,-0.46
20.61,6.98,7.42,6.98,7.41,-7.40,-7.91,-3.95,-0.43,-0.43,-0.44
20.81,6.99,7.39,6.99,7.38,-7.38,-7.91,-4.05,-0.39,-0.39,-0.40
21.02,7.00,7.36,7.00,7.36,-7.36,-7.92,-4.17,-0.36,-0.36,-0.36
21.23,7.01,7.35,7.01,7.35,-7.35,-7.92,-4.28,-0.34,-0.34,-0.34
21.44,7.02,7.34,7.02,7.34,-7.34,-7.92,-4.40,-0.32,-0.32,-0.32
21.66,7.04,7.34,7.03,7.34,-7.34,-7.92,-4.52,-0.30,-0.30,-0.30
21.87,7.05,7.34,7.05,7.33,-7.34,-7.92,-4.64,-0.29,-0.29,-0.29
22.09,7.07,7.34,7.07,7.34,-7.34,-7.92,-4.77,-0.28,-0.27,-0.27
22.31,7.09,7.35,7.09,7.35,-7.36,-7.92,-4.90,-0.27,-0.26,-0.26
22.54,7.12,7.38,7.11,7.37,-7.37,-7.92,-5.04,-0.25,-0.26,-0.26
22.76,7.14,7.39,7.14,7.39,-7.39,-7.93,-5.18,-0.25,-0.25,-0.25
22.99,7.16,7.41,7.16,7.41,-7.41,-7.93,-5.32,-0.25,-0.25,-0.25
23.22,7.20,7.44,7.19,7.44,-7.44,-7.93,-5.46,-0.24,-0.24,-0.24
23.45,7.23,7.46,7.23,7.46,-7.46,-7.93,-5.61,-0.24,-0.23,-0.23
23.69,7.27,7.49,7.27,7.49,-7.49,-7.93,-5.76,-0.23,-0.22,-0.22
23.92,7.32,7.52,7.31,7.52,-7.52,-7.93,-5.92,-0.20,-0.21,-0.20
24.16,7.36,7.54,7.36,7.55,-7.55,-7.93,-6.07,-0.19,-0.19,-0.18
24.40,7.40,7.57,7.40,7.58,-7.58,-7.94,-6.23,-0.18,-0.17,-0.17
24.65,7.44,7.61,7.44,7.60,-7.60,-7.94,-6.40,-0.16,-0.16,-0.18
24.89,7.47,7.62,7.47,7.63,-7.62,-7.94,-6.56,-0.15,-0.15,-0.16
25.14,7.50,7.64,7.50,7.64,-7.64,-7.94,-6.73,-0.14,-0.14,-0.15
25.39,7.52,7.66,7.52,7.65,-7.65,-7.94,-6.90,-0.13,-0.13,-0.14
25.65,7.53,7.66,7.53,7.66,-7.66,-7.94,-7.08,-0.13,-0.13,-0.13
25.91,7.55,7.67,7.55,7.67,-7.67,-7.94,-7.25,-0.13,-0.12,-0.12
26.16,7.57,7.68,7.57,7.68,-7.68,-7.95,-7.42,-0.12,-0.11,-0.11
26.43,7.60,7.70,7.59,7.69,-7.70,-7.95,-7.60,-0.10,-0.10,-0.10
26.69,7.62,7.70,7.62,7.71,-7.71,-7.95,-7.77,-0.09,-0.09,-0.08
26.96,7.65,7.72,7.65,7.72,-7.72,-7.95,-7.94,-0.07,-0.07,-0.07
27.23,7.68,7.74,7.68,7.74,-7.73,-7.95,-8.11,-0.06,-0.06,-0.06
27.50,7.71,7.75,7.71,7.75,-7.75,-7.95,-8.28,-0.04,-0.04,-0.04
27.77,7.73,7.77,7.73,7.77,-7.76,-7.95,-8.44,-0.04,-0.04,-0.04
28.05,7.75,7.77,7.75,7.78,-7.78,-7.96,-8.60,-0.03,-0.03,-0.02
28.33,7.77,7.79,7.77,7.79,-7.80,-7.96,-8.75,-0.03,-0.02,-0.03
28.62,7.80,7.81,7.80,7.81,-7.81,-7.96,-8.90,-0.01,-0.01,-0.01
28.90,7.83,7.83,7.83,7.83,-7.83,-7.96,-9.03,-0.00,-0.00,0.00
29.19,7.86,7.85,7.86,7.84,-7.85,-7.96,-9.16,0.01,0.01,0.01
29.48,7.89,7.86,7.89,7.86,-7.86,-7.96,-9.28,0.03,0.03,0.03
29.78,7.92,7.88,7.92,7.88,-7.88,-7.97,-9.39,0.04,0.04,0.04
30.08,7.94,7.89,7.94,7.89,-7.89,-7.97,-9.48,0.05,0.05,0.05
30.38,7.96,7.90,7.96,7.90,-7.90,-7.97,-9.56,0.06,0.06,0.06
30.68,7.98,7.91,7.98,7.91,-7.91,-7.97,-9.62,0.07,0.07,0.07
30.99,7.99,7.91,7.99,7.91,-7.90,-7.97,-9.68,0.08,0.08,0.07
31.30,7.99,7.91,7.99,7.91,-7.90,-7.97,-9.72,0.09,0.09,0.08
31.61,7.99,7.89,7.99,7.89,-7.88,-7.98,-9.74,0.10,0.10,0.10
31.93,7.98,7.88,7.98,7.87,-7.87,-7.98,-9.75,0.11,0.11,0.10
32.24,7.96,7.85,7.96,7.85,-7.85,-7.98,-9.75,0.11,0.11,0.11
32.57,7.95,7.83,7.95,7.83,-7.84,-7.98,-9.73,0.11,0.11,0.12
32.89,7.94,7.80,7.94,7.81,-7.82,-7.98,-9.70,0.12,0.12,0.13
33.22,7.94,7.81,7.94,7.80,-7.81,-7.98,-9.66,0.13,0.13,0.13
33.55,7.95,7.80,7.95,7.80,-7.81,-7.98,-9.61,0.14,0.14,0.15
33.89,7.97,7.82,7.96,7.81,-7.81,-7.99,-9.55,0.16,0.15,0.15
34.23,7.98,7.81,7.98,7.82,-7.82,-7.99,-9.48,0.16,0.16,0.17
34.57,8.01,7.84,8.00,7.84,-7.84,-7.99,-9.40,0.17,0.17,0.17
34.92,8.03,7.86,8.03,7.85,-7.86,-7.99,-9.32,0.17,0.17,0.17
35.27,8.06,7.88,8.06,7.88,-7.88,-7.99,-9.23,0.18,0.18,0.18
35.62,8.09,7.91,8.09,7.91,-7.91,-7.99,-9.14,0.18,0.18,0.18
35.97,8.12,7.94,8.12,7.93,-7.94,-7.99,-9.04,0.18,0.18,0.18
36.33,8.15,7.95,8.15,7.96,-7.96,-7.99,-8.95,0.18,0.18,0.19
36.70,8.18,7.99,8.18,7.99,-8.00,-8.00,-8.85,0.18,0.18,0.19
37.06,8.21,8.03,8.21,8.02,-8.02,-8.00,-8.75,0.18,0.19,0.18
37.43,8.24,8.05,8.24,8.06,-8.05,-8.00,-8.66,0.19,0.19,0.19
37.81,8.27,8.08,8.27,8.08,-8.08,-8.00,-8.56,0.19,0.19,0.18
38.19,8.29,8.11,8.29,8.10,-8.10,-8.00,-8.47,0.19,0.19,0.18
38.57,8.30,8.11,8.30,8.12,-8.12,-8.00,-8.38,0.18,0.18,0.19
38.95,8.31,8.13,8.31,8.13,-8.13,-8.00,-8.29,0.18,0.18,0.17
39.34,8.31,8.14,8.31,8.14,-8.14,-8.00,-8.21,0.17,0.17,0.17
39.74,8.31,8.15,8.31,8.14,-8.14,-8.00,-8.13,0.17,0.17,0.16
40.14,8.30,8.13,8.30,8.14,-8.14,-8.00,-8.06,0.16,0.16,0.16
40.54,8.29,8.14,8.29,8.14,-8.14,-8.01,-7.99,0.15,0.15,0.15
40.94,8.29,8.13,8.29,8.13,-8.14,-8.01,-7.92,0.15,0.15,0.16
41.35,8.29,8.14,8.29,8.14,-8.14,-8.01,-7.86,0.15,0.15,0.15
41.76,8.29,8.14,8.29,8.14,-8.14,-8.01,-7.80,0.15,0.15,0.15
42.18,8.29,8.13,8.29,8.14,-8.13,-8.01,-7.75,0.15,0.15,0.15
42.60,8.29,8.14,8.29,8.13,-8.14,-8.01,-7.71,0.15,0.15,0.15
43.03,8.29,8.13,8.29,8.13,-8.14,-8.01,-7.67,0.15,0.15,0.16
43.46,8.29,8.14,8.29,8.14,-8.14,-8.01,-7.63,0.15,0.15,0.15
43.90,8.29,8.14,8.29,8.14,-8.14,-8.01,-7.60,0.15,0.15,0.15
44.33,8.29,8.15,8.29,8.15,-8.15,-8.01,-7.58,0.14,0.14,0.14
44.78,8.29,8.15,8.29,8.15,-8.15,-8.01,-7.56,0.14,0.14,0.14
45.23,8.29,8.15,8.29,8.15,-8.15,-8.01,-7.55,0.14,0.14,0.14
45.68,8.29,8.15,8.29,8.15,-8.15,-8.01,-7.54,0.14,0.14,0.14
46.13,8.29,8.15,8.29,8.15,-8.14,-8.01,-7.54,0.15,0.15,0.14
46.60,8.29,8.13,8.29,8.14,-8.14,-8.01,-7.55,0.15,0.15,0.15
47.06,8.29,8.14,8.29,8.14,-8.14,-8.00,-7.56,0.15,0.15,0.15
47.53,8.29,8.14,8.29,8.13,-8.14,-8.00,-7.57,0.15,0.15,0.15
48.01,8.29,8.12,8.29,8.13,-8.14,-8.00,-7.59,0.15,0.15,0.16
48.49,8.29,8.13,8.29,8.13,-8.14,-8.00,-7.62,0.15,0.15,0.16
48.97,8.29,8.15,8.29,8.15,-8.15,-8.00,-7.64,0.14,0.14,0.14
49.46,8.29,8.16,8.29,8.16,-8.15,-8.00,-7.68,0.13,0.13,0.13
49.96,8.29,8.17,8.29,8.16,-8.16,-8.00,-7.71,0.12,0.12,0.12
50.46,8.29,8.16,8.29,8.17,-8.17,-7.99,-7.76,0.11,0.12,0.13
50.96,8.30,8.18,8.30,8.18,-8.19,-7.99,-7.80,0.11,0.11,0.12
51.47,8.31,8.21,8.30,8.19,-8.20,-7.99,-7.85,0.11,0.11,0.10
51.99,8.31,8.21,8.31,8.21,-8.20,-7.99,-7.90,0.11,0.11,0.10
52.51,8.31,8.21,8.31,8.21,-8.21,-7.98,-7.95,0.10,0.10,0.10
53.03,8.31,8.21,8.30,8.21,-8.21,-7.98,-8.00,0.10,0.09,0.09
53.56,8.29,8.20,8.29,8.21,-8.21,-7.98,-8.06,0.08,0.08,0.08
54.10,8.28,8.21,8.28,8.21,-8.21,-7.98,-8.12,0.07,0.07,0.06
54.64,8.26,8.21,8.26,8.20,-8.20,-7.97,-8.17,0.06,0.06,0.05
55.18,8.23,8.19,8.23,8.19,-8.19,-7.97,-8.23,0.04,0.04,0.04
55.74,8.20,8.18,8.20,8.17,-8.17,-7.97,-8.28,0.03,0.03,0.02
56.29,8.17,8.15,8.17,8.15,-8.16,-7.96,-8.34,0.01,0.01,0.02
56.86,8.14,8.14,8.14,8.14,-8.14,-7.96,-8.39,-0.00,-0.00,-0.00
57.42,8.11,8.13,8.11,8.13,-8.12,-7.95,-8.43,-0.01,-0.01,-0.02
58.00,8.08,8.11,8.08,8.11,-8.11,-7.95,-8.48,-0.03,-0.03,-0.04
58.58,8.05,8.10,8.05,8.10,-8.09,-7.94,-8.52,-0.04,-0.04,-0.05
59.16,8.02,8.08,8.02,8.08,-8.09,-7.94,-8.55,-0.07,-0.07,-0.06
59.76,8.00,8.08,7.99,8.07,-8.08,-7.94,-8.58,-0.09,-0.09,-0.08
60.35,7.97,8.07,7.97,8.07,-8.09,-7.93,-8.61,-0.12,-0.12,-0.10
60.96,7.96,8.08,7.96,8.09,-8.10,-7.92,-8.62,-0.15,-0.14,-0.13
61.57,7.96,8.12,7.96,8.11,-8.12,-7.92,-8.63,-0.17,-0.17,-0.16
62.18,7.96,8.14,7.96,8.15,-8.15,-7.91,-8.64,-0.19,-0.19,-0.19
62.80,7.97,8.18,7.97,8.18,-8.18,-7.91,-8.64,-0.21,-0.21,-0.21
63.43,7.98,8.22,7.98,8.21,-8.20,-7.90,-8.63,-0.22,-0.22,-0.24
64.07,7.98,8.24,7.98,8.24,-8.22,-7.90,-8.61,-0.25,-0.25,-0.27
64.71,7.97,8.25,7.97,8.25,-8.24,-7.89,-8.59,-0.27,-0.28,-0.28
65.35,7.95,8.26,7.95,8.26,-8.25,-7.89,-8.56,-0.31,-0.31,-0.31
66.01,7.92,8.25,7.92,8.26,-8.26,-7.88,-8.52,-0.34,-0.34,-0.33
66.67,7.90,8.26,7.90,8.26,-8.26,-7.87,-8.48,-0.36,-0.36,-0.36
67.33,7.87,8.26,7.87,8.25,-8.26,-7.87,-8.44,-0.39,-0.39,-0.39
68.01,7.84,8.25,7.84,8.25,-8.25,-7.86,-8.39,-0.41,-0.41,-0.41
68.69,7.81,8.25,7.81,8.25,-8.24,-7.86,-8.33,-0.43,-0.43,-0.44
69.37,7.78,8.24,7.78,8.24,-8.24,-7.85,-8.28,-0.46,-0.46,-0.46
70.07,7.75,8.23,7.75,8.23,-8.23,-7.84,-8.22,-0.48,-0.48,-0.48
70.77,7.72,8.22,7.72,8.22,-8.22,-7.84,-8.16,-0.51,-0.51,-0.50
71.48,7.69,8.22,7.69,8.22,-8.22,-7.83,-8.10,-0.53,-0.53,-0.53
72.19,7.67,8.22,7.67,8.22,-8.22,-7.83,-8.03,-0.55,-0.55,-0.55
72.91,7.65,8.22,7.65,8.22,-8.23,-7.82,-7.97,-0.58,-0.58,-0.58
73.64,7.63,8.23,7.63,8.23,-8.23,-7.82,-7.91,-0.61,-0.60,-0.60
74.38,7.62,8.23,7.62,8.24,-8.25,-7.81,-7.85,-0.63,-0.62,-0.61
75.12,7.63,8.26,7.63,8.26,-8.26,-7.81,-7.79,-0.64,-0.64,-0.63
75.87,7.64,8.28,7.64,8.28,-8.28,-7.81,-7.73,-0.64,-0.64,-0.64
76.63,7.65,8.30,7.65,8.30,-8.30,-7.80,-7.68,-0.65,-0.65,-0.65
77.40,7.66,8.32,7.66,8.32,-8.31,-7.80,-7.63,-0.65,-0.65,-0.66
78.17,7.66,8.34,7.66,8.33,-8.32,-7.80,-7.58,-0.66,-0.66,-0.68
78.95,7.65,8.33,7.65,8.33,-8.32,-7.80,-7.54,-0.67,-0.67,-0.68
79.74,7.63,8.31,7.63,8.32,-8.31,-7.80,-7.50,-0.69,-0.68,-0.69
80.54,7.61,8.30,7.61,8.30,-8.30,-7.80,-7.46,-0.70,-0.70,-0.70
81.35,7.58,8.28,7.58,8.28,-8.29,-7.80,-7.43,-0.71,-0.71,-0.71
82.16,7.55,8.27,7.55,8.26,-8.27,-7.80,-7.40,-0.72,-0.72,-0.72
82.98,7.52,8.24,7.52,8.24,-8.24,-7.80,-7.38,-0.73,-0.73,-0.72
83.81,7.49,8.23,7.49,8.22,-8.22,-7.81,-7.36,-0.73,-0.73,-0.74
84.65,7.46,8.20,7.46,8.20,-8.20,-7.81,-7.35,-0.74,-0.74,-0.74
85.50,7.43,8.17,7.43,8.18,-8.18,-7.82,-7.35,-0.75,-0.75,-0.74
86.35,7.40,8.16,7.40,8.15,-8.15,-7.83,-7.34,-0.76,-0.76,-0.76
87.22,7.37,8.13,7.37,8.13,-8.14,-7.84,-7.35,-0.77,-0.76,-0.76
88.09,7.35,8.12,7.35,8.12,-8.12,-7.85,-7.36,-0.77,-0.77,-0.78
88.97,7.33,8.10,7.33,8.11,-8.11,-7.86,-7.37,-0.78,-0.78,-0.77
89.86,7.31,8.09,7.31,8.09,-8.10,-7.87,-7.39,-0.79,-0.79,-0.79
90.76,7.30,8.10,7.30,8.09,-8.09,-7.88,-7.42,-0.80,-0.80,-0.80
91.66,7.29,8.08,7.29,8.10,-8.10,-7.90,-7.45,-0.81,-0.80,-0.80
92.58,7.30,8.11,7.29,8.10,-8.10,-7.92,-7.49,-0.81,-0.81,-0.81
93.51,7.30,8.11,7.30,8.11,-8.12,-7.93,-7.53,-0.82,-0.82,-0.81
94.44,7.31,8.12,7.31,8.13,-8.13,-7.96,-7.58,-0.82,-0.82,-0.82
95.39,7.32,8.14,7.32,8.15,-8.15,-7.98,-7.63,-0.83,-0.83,-0.82
96.34,7.33,8.18,7.33,8.17,-8.17,-8.00,-7.68,-0.84,-0.84,-0.85
97.30,7.34,8.20,7.34,8.19,-8.18,-8.03,-7.74,-0.85,-0.85,-0.86
98.28,7.34,8.20,7.34,8.21,-8.20,-8.05,-7.81,-0.86,-0.86,-0.86
99.26,7.34,8.22,7.34,8.22,-8.21,-8.08,-7.88,-0.87,-0.87,-0.88
100.25,7.33,8.22,7.33,8.22,-8.22,-8.11,-7.95,-0.89,-0.89,-0.89
101.25,7.31,8.22,7.31,8.22,-8.22,-8.14,-8.03,-0.91,-0.91,-0.91
102.27,7.29,8.22,7.29,8.22,-8.22,-8.17,-8.11,-0.93,-0.93,-0.93
103.29,7.27,8.22,7.27,8.21,-8.21,-8.21,-8.19,-0.94,-0.95,-0.95
104.32,7.24,8.20,7.24,8.21,-8.21,-8.24,-8.27,-0.97,-0.97,-0.96
105.37,7.21,8.20,7.21,8.20,-8.20,-8.28,-8.36,-1.00,-0.99,-0.99
106.42,7.18,8.19,7.18,8.19,-8.20,-8.31,-8.45,-1.02,-1.02,-1.01
107.48,7.16,8.20,7.16,8.20,-8.20,-8.35,-8.53,-1.04,-1.05,-1.04
108.56,7.13,8.20,7.13,8.20,-8.20,-8.38,-8.62,-1.08,-1.07,-1.08
109.64,7.11,8.21,7.11,8.21,-8.21,-8.42,-8.70,-1.10,-1.10,-1.10
110.74,7.08,8.22,7.08,8.22,-8.22,-8.45,-8.78,-1.14,-1.14,-1.14
111.85,7.05,8.22,7.05,8.23,-8.22,-8.48,-8.86,-1.18,-1.18,-1.17
112.97,7.02,8.24,7.02,8.23,-8.24,-8.51,-8.93,-1.22,-1.22,-1.22
114.10,6.99,8.24,6.99,8.24,-8.25,-8.54,-9.00,-1.26,-1.26,-1.26
115.24,6.96,8.25,6.96,8.26,-8.26,-8.56,-9.06,-1.30,-1.30,-1.29
116.39,6.94,8.28,6.93,8.27,-8.27,-8.59,-9.11,-1.33,-1.34,-1.34
117.55,6.90,8.28,6.90,8.28,-8.28,-8.60,-9.15,-1.38,-1.38,-1.38
118.73,6.87,8.29,6.87,8.29,-8.29,-8.62,-9.19,-1.42,-1.42,-1.42
119.92,6.84,8.30,6.84,8.30,-8.30,-8.63,-9.21,-1.46,-1.46,-1.46
121.12,6.81,8.30,6.81,8.30,-8.29,-8.63,-9.23,-1.49,-1.49,-1.49
122.33,6.77,8.30,6.77,8.30,-8.29,-8.63,-9.23,-1.52,-1.52,-1.53
123.55,6.72,8.27,6.72,8.28,-8.28,-8.62,-9.22,-1.56,-1.56,-1.56
124.79,6.67,8.26,6.66,8.25,-8.26,-8.60,-9.19,-1.59,-1.59,-1.59
126.03,6.60,8.22,6.60,8.23,-8.23,-8.58,-9.16,-1.63,-1.63,-1.62
127.29,6.54,8.20,6.54,8.20,-8.20,-8.55,-9.10,-1.66,-1.66,-1.66
128.57,6.47,8.17,6.47,8.16,-8.16,-8.51,-9.04,-1.69,-1.70,-1.70
129.85,6.39,8.11,6.39,8.12,-8.12,-8.46,-8.96,-1.73,-1.73,-1.72
131.15,6.32,8.07,6.32,8.07,-8.07,-8.41,-8.88,-1.75,-1.75,-1.76
132.46,6.24,8.02,6.24,8.02,-8.02,-8.34,-8.77,-1.78,-1.78,-1.78
133.79,6.16,7.96,6.16,7.96,-7.96,-8.27,-8.67,-1.80,-1.80,-1.80
135.12,6.07,7.90,6.07,7.90,-7.90,-8.19,-8.55,-1.83,-1.83,-1.83
136.48,5.98,7.83,5.98,7.83,-7.83,-8.11,-8.42,-1.85,-1.85,-1.85
137.84,5.88,7.75,5.88,7.76,-7.75,-8.01,-8.28,-1.87,-1.88,-1.87
139.22,5.77,7.68,5.77,7.68,-7.67,-7.91,-8.15,-1.90,-1.90,-1.91
140.61,5.67,7.60,5.67,7.59,-7.59,-7.81,-8.00,-1.92,-1.92,-1.93
142.02,5.56,7.50,5.56,7.50,-7.50,-7.70,-7.85,-1.94,-1.94,-1.94
143.44,5.44,7.40,5.44,7.41,-7.41,-7.58,-7.69,-1.97,-1.97,-1.96
144.87,5.32,7.31,5.32,7.31,-7.31,-7.46,-7.53,-1.99,-1.99,-1.99
146.32,5.20,7.22,5.20,7.21,-7.21,-7.34,-7.37,-2.02,-2.02,-2.02
147.78,5.08,7.11,5.08,7.11,-7.12,-7.22,-7.21,-2.04,-2.04,-2.03
149.26,4.95,7.01,4.95,7.01,-7.02,-7.09,-7.05,-2.07,-2.07,-2.06
150.75,4.82,6.91,4.82,6.91,-6.91,-6.96,-6.88,-2.10,-2.09,-2.09
152.26,4.69,6.82,4.69,6.81,-6.81,-6.83,-6.72,-2.12,-2.12,-2.13
153.78,4.56,6.71,4.56,6.71,-6.71,-6.70,-6.56,-2.15,-2.15,-2.15
155.32,4.43,6.61,4.42,6.60,-6.60,-6.57,-6.40,-2.17,-2.18,-2.18
156.88,4.28,6.49,4.28,6.49,-6.50,-6.45,-6.24,-2.22,-2.21,-2.21
158.44,4.14,6.38,4.14,6.38,-6.39,-6.32,-6.09,-2.25,-2.25,-2.24
160.03,4.00,6.28,4.00,6.28,-6.27,-6.19,-5.93,-2.28,-2.28,-2.28
161.63,3.86,6.17,3.86,6.17,-6.16,-6.07,-5.79,-2.30,-2.30,-2.31
163.24,3.71,6.06,3.71,6.05,-6.04,-5.95,-5.64,-2.34,-2.34,-2.35
164.88,3.56,5.93,3.56,5.93,-5.93,-5.84,-5.49,-2.37,-2.37,-2.37
166.53,3.40,5.81,3.40,5.81,-5.81,-5.72,-5.35,-2.41,-2.41,-2.41
168.19,3.25,5.69,3.25,5.69,-5.70,-5.61,-5.21,-2.45,-2.45,-2.44
169.87,3.10,5.58,3.10,5.58,-5.59,-5.50,-5.08,-2.49,-2.49,-2.48
171.57,2.96,5.47,2.96,5.47,-5.48,-5.39,-4.95,-2.52,-2.52,-2.51
173.29,2.82,5.38,2.81,5.37,-5.37,-5.29,-4.82,-2.55,-2.56,-2.56
175.02,2.67,5.27,2.67,5.27,-5.27,-5.19,-4.69,-2.60,-2.60,-2.60
176.77,2.52,5.16,2.52,5.17,-5.17,-5.09,-4.57,-2.66,-2.65,-2.65
178.54,2.38,5.08,2.38,5.08,-5.08,-5.00,-4.45,-2.70,-2.70,-2.70
180.32,2.25,4.99,2.24,4.99,-4.99,-4.91,-4.33,-2.74,-2.74,-2.75
182.13,2.11,4.90,2.10,4.90,-4.90,-4.81,-4.22,-2.79,-2.79,-2.79
183.95,1.96,4.80,1.96,4.80,-4.80,-4.72,-4.11,-2.85,-2.84,-2.85
185.79,1.82,4.71,1.82,4.71,-4.71,-4.63,-4.01,-2.89,-2.89,-2.89
187.65,1.68,4.62,1.68,4.62,-4.62,-4.55,-3.90,-2.94,-2.94,-2.94
189.52,1.55,4.53,1.55,4.53,-4.53,-4.46,-3.80,-2.98,-2.98,-2.99
191.42,1.41,4.44,1.41,4.43,-4.43,-4.37,-3.71,-3.02,-3.02,-3.03
193.33,1.26,4.33,1.26,4.33,-4.33,-4.27,-3.61,-3.07,-3.07,-3.07
195.27,1.11,4.22,1.11,4.23,-4.23,-4.18,-3.52,-3.12,-3.12,-3.11
197.22,0.96,4.12,0.96,4.13,-4.13,-4.08,-3.43,-3.17,-3.17,-3.16
199.19,0.82,4.03,0.82,4.03,-4.03,-3.99,-3.35,-3.21,-3.21,-3.22
201.18,0.68,3.93,0.67,3.93,-3.92,-3.89,-3.26,-3.24,-3.25,-3.26
203.19,0.53,3.82,0.53,3.82,-3.82,-3.79,-3.18,-3.29,-3.29,-3.29
205.23,0.38,3.71,0.38,3.71,-3.71,-3.68,-3.10,-3.33,-3.33,-3.33
207.28,0.24,3.60,0.23,3.60,-3.61,-3.57,-3.03,-3.37,-3.37,-3.36
209.35,0.09,3.49,0.09,3.50,-3.50,-3.46,-2.95,-3.41,-3.41,-3.41
211.44,-0.05,3.40,-0.05,3.40,-3.39,-3.35,-2.88,-3.45,-3.44,-3.46
213.56,-0.19,3.29,-0.19,3.29,-3.29,-3.24,-2.81,-3.48,-3.48,-3.48
215.69,-0.33,3.18,-0.34,3.18,-3.18,-3.13,-2.74,-3.52,-3.52,-3.51
217.85,-0.48,3.07,-0.48,3.08,-3.08,-3.02,-2.68,-3.56,-3.55,-3.55
220.03,-0.61,2.98,-0.61,2.98,-2.97,-2.91,-2.61,-3.59,-3.58,-3.59
222.23,-0.74,2.88,-0.74,2.87,-2.87,-2.80,-2.55,-3.61,-3.61,-3.62
224.45,-0.87,2.76,-0.88,2.76,-2.76,-2.69,-2.49,-3.63,-3.64,-3.63
226.70,-1.01,2.64,-1.01,2.65,-2.65,-2.58,-2.43,-3.66,-3.66,-3.65
228.96,-1.13,2.55,-1.13,2.54,-2.54,-2.47,-2.37,-3.67,-3.67,-3.68
231.25,-1.25,2.43,-1.25,2.43,-2.43,-2.37,-2.31,-3.68,-3.69,-3.69
233.57,-1.37,2.33,-1.38,2.33,-2.32,-2.26,-2.25,-3.69,-3.70,-3.70
235.90,-1.50,2.21,-1.50,2.21,-2.21,-2.16,-2.20,-3.71,-3.71,-3.71
238.26,-1.62,2.10,-1.62,2.10,-2.10,-2.06,-2.14,-3.72,-3.72,-3.72
240.64,-1.73,1.99,-1.73,1.99,-1.99,-1.97,-2.09,-3.73,-3.73,-3.72
243.05,-1.83,1.88,-1.84,1.88,-1.89,-1.87,-2.04,-3.72,-3.73,-3.72
245.48,-1.94,1.78,-1.94,1.78,-1.79,-1.78,-1.99,-3.73,-3.72,-3.72
247.93,-2.03,1.68,-2.03,1.69,-1.68,-1.69,-1.94,-3.72,-3.72,-3.72
250.41,-2.12,1.60,-2.12,1.59,-1.59,-1.60,-1.89,-3.71,-3.71,-3.72
252.92,-2.20,1.49,-2.21,1.49,-1.49,-1.52,-1.84,-3.69,-3.70,-3.70
255.45,-2.29,1.39,-2.29,1.40,-1.40,-1.44,-1.79,-3.69,-3.69,-3.68
258.00,-2.37,1.30,-2.37,1.30,-1.30,-1.35,-1.74,-3.68,-3.68,-3.68
260.58,-2.45,1.22,-2.45,1.21,-1.22,-1.28,-1.70,-3.67,-3.67,-3.67
263.19,-2.53,1.12,-2.53,1.13,-1.13,-1.20,-1.65,-3.66,-3.66,-3.65
265.82,-2.60,1.05,-2.60,1.04,-1.05,-1.12,-1.60,-3.65,-3.64,-3.65
268.48,-2.66,0.96,-2.66,0.96,-0.97,-1.05,-1.56,-3.63,-3.63,-3.62
271.16,-2.72,0.88,-2.72,0.89,-0.89,-0.98,-1.51,-3.61,-3.61,-3.61
273.87,-2.78,0.82,-2.78,0.81,-0.81,-0.91,-1.47,-3.59,-3.59,-3.60
276.61,-2.84,0.74,-2.84,0.74,-0.74,-0.84,-1.42,-3.58,-3.58,-3.58
279.38,-2.90,0.67,-2.90,0.67,-0.67,-0.77,-1.38,-3.57,-3.57,-3.58
282.17,-2.96,0.60,-2.96,0.60,-0.60,-0.70,-1.34,-3.56,-3.56,-3.56
284.99,-3.02,0.52,-3.02,0.53,-0.53,-0.64,-1.29,-3.55,-3.55,-3.54
287.84,-3.07,0.46,-3.07,0.46,-0.47,-0.58,-1.25,-3.54,-3.54,-3.54
290.72,-3.12,0.40,-3.12,0.40,-0.41,-0.52,-1.21,-3.53,-3.52,-3.52
293.63,-3.16,0.35,-3.16,0.35,-0.35,-0.46,-1.17,-3.51,-3.51,-3.51
296.57,-3.20,0.29,-3.21,0.29,-0.29,-0.40,-1.13,-3.49,-3.49,-3.49
299.53,-3.25,0.24,-3.25,0.23,-0.23,-0.34,-1.09,-3.48,-3.48,-3.49
302.53,-3.30,0.18,-3.30,0.18,-0.17,-0.28,-1.04,-3.47,-3.47,-3.48
305.55,-3.35,0.11,-3.35,0.12,-0.11,-0.23,-1.00,-3.47,-3.46,-3.46
308.61,-3.39,0.06,-3.39,0.06,-0.06,-0.18,-0.96,-3.45,-3.45,-3.45
311.69,-3.43,0.00,-3.43,0.00,-0.00,-0.12,-0.93,-3.43,-3.43,-3.44
314.81,-3.47,-0.05,-3.48,-0.05,0.05,-0.07,-0.89,-3.42,-3.42,-3.42
317.96,-3.52,-0.11,-3.52,-0.11,0.10,-0.02,-0.85,-3.42,-3.41,-3.41
321.14,-3.56,-0.16,-3.56,-0.16,0.15,0.02,-0.81,-3.41,-3.41,-3.40
324.35,-3.59,-0.20,-3.59,-0.20,0.19,0.07,-0.77,-3.40,-3.40,-3.39
327.59,-3.62,-0.23,-3.62,-0.23,0.23,0.11,-0.73,-3.39,-3.39,-3.39
330.87,-3.64,-0.26,-3.64,-0.26,0.27,0.15,-0.69,-3.37,-3.38,-3.38
334.18,-3.66,-0.29,-3.66,-0.29,0.30,0.20,-0.66,-3.36,-3.37,-3.37
337.52,-3.68,-0.31,-3.68,-0.32,0.32,0.23,-0.62,-3.36,-3.36,-3.37
340.90,-3.70,-0.35,-3.70,-0.34,0.34,0.27,-0.58,-3.36,-3.36,-3.35
344.30,-3.72,-0.37,-3.72,-0.37,0.36,0.30,-0.54,-3.36,-3.36,-3.36
347.75,-3.73,-0.38,-3.73,-0.38,0.37,0.34,-0.51,-3.36,-3.36,-3.35
351.23,-3.73,-0.38,-3.73,-0.38,0.38,0.37,-0.47,-3.35,-3.35,-3.35
354.74,-3.73,-0.38,-3.73,-0.38,0.38,0.39,-0.43,-3.35,-3.35,-3.35
358.28,-3.72,-0.38,-3.72,-0.38,0.38,0.42,-0.40,-3.34,-3.34,-3.34
361.87,-3.72,-0.38,-3.72,-0.38,0.38,0.44,-0.36,-3.34,-3.34,-3.34
365.49,-3.71,-0.37,-3.71,-0.37,0.37,0.46,-0.32,-3.34,-3.34,-3.34
369.14,-3.71,-0.36,-3.71,-0.36,0.37,0.48,-0.29,-3.34,-3.34,-3.35
372.83,-3.71,-0.36,-3.71,-0.36,0.36,0.49,-0.25,-3.35,-3.35,-3.36
376.56,-3.71,-0.35,-3.71,-0.36,0.36,0.50,-0.21,-3.35,-3.35,-3.36
380.33,-3.71,-0.36,-3.71,-0.36,0.35,0.51,-0.18,-3.36,-3.36,-3.35
384.13,-3.71,-0.35,-3.71,-0.35,0.35,0.52,-0.14,-3.36,-3.36,-3.36
387.97,-3.71,-0.35,-3.71,-0.35,0.35,0.52,-0.11,-3.36,-3.36,-3.36
391.85,-3.71,-0.34,-3.71,-0.35,0.35,0.53,-0.07,-3.37,-3.37,-3.37
395.77,-3.71,-0.35,-3.71,-0.34,0.34,0.52,-0.04,-3.37,-3.37,-3.36
399.73,-3.71,-0.34,-3.71,-0.34,0.34,0.52,-0.01,-3.37,-3.37,-3.37
403.72,-3.71,-0.34,-3.71,-0.34,0.34,0.51,0.03,-3.37,-3.37,-3.37
407.76,-3.71,-0.34,-3.71,-0.34,0.34,0.50,0.06,-3.37,-3.37,-3.37
411.84,-3.71,-0.35,-3.71,-0.34,0.34,0.49,0.09,-3.37,-3.37,-3.37
415.96,-3.71,-0.35,-3.71,-0.34,0.34,0.48,0.12,-3.37,-3.37,-3.37
420.12,-3.71,-0.34,-3.71,-0.34,0.35,0.46,0.15,-3.37,-3.37,-3.37
424.32,-3.71,-0.34,-3.72,-0.34,0.35,0.44,0.18,-3.36,-3.37,-3.37
428.56,-3.72,-0.34,-3.72,-0.35,0.35,0.42,0.21,-3.37,-3.37,-3.38
432.85,-3.73,-0.35,-3.73,-0.35,0.35,0.40,0.24,-3.38,-3.38,-3.38
437.18,-3.73,-0.35,-3.73,-0.36,0.35,0.37,0.26,-3.38,-3.38,-3.38
441.55,-3.73,-0.36,-3.73,-0.36,0.35,0.35,0.29,-3.38,-3.38,-3.37
445.96,-3.72,-0.35,-3.72,-0.35,0.34,0.32,0.31,-3.38,-3.38,-3.37
450.42,-3.71,-0.33,-3.71,-0.34,0.33,0.29,0.33,-3.38,-3.38,-3.38
454.93,-3.69,-0.32,-3.69,-0.31,0.32,0.26,0.35,-3.37,-3.37,-3.37
459.48,-3.66,-0.29,-3.67,-0.29,0.30,0.23,0.37,-3.36,-3.37,-3.37
464.07,-3.64,-0.27,-3.64,-0.27,0.28,0.19,0.38,-3.36,-3.36,-3.37
468.71,-3.62,-0.26,-3.62,-0.25,0.25,0.16,0.39,-3.37,-3.37,-3.36
