frequency,raw,error,smoothed,error_smoothed,equalization,parametric_eq,fixed_band_eq,equalized_raw,equalized_smoothed,target
20.00,-18.49,-20.84,-18.49,-20.84,6.00,5.93,2.58,-12.49,-12.49,2.35
20.20,-18.33,-20.68,-18.33,-20.68,6.00,5.94,2.66,-12.33,-12.33,2.35
20.40,-18.17,-20.53,-18.17,-20.53,6.00,5.94,2.73,-12.17,-12.17,2.36
20.61,-18.01,-20.38,-18.01,-20.38,6.00,5.94,2.81,-12.01,-12.01,2.37
20.81,-17.85,-20.22,-17.85,-20.22,6.00,5.95,2.89,-11.85,-11.85,2.37
21.02,-17.69,-20.07,-17.69,-20.07,6.00,5.95,2.97,-11.69,-11.69,2.38
21.23,-17.54,-19.92,-17.54,-19.92,6.00,5.95,3.05,-11.54,-11.54,2.38
21.44,-17.38,-19.77,-17.38,-19.77,6.00,5.95,3.14,-11.38,-11.38,2.39
21.66,-17.23,-19.63,-17.23,-19.62,6.00,5.95,3.23,-11.23,-11.23,2.40
21.87,-17.07,-19.47,-17.07,-19.47,6.00,5.96,3.32,-11.07,-11.07,2.40
22.09,-16.91,-19.32,-16.91,-19.32,6.00,5.96,3.41,-10.91,-10.91,2.41
22.31,-16.75,-19.17,-16.75,-19.16,6.00,5.96,3.51,-10.75,-10.75,2.42
22.54,-16.59,-19.01,-16.59,-19.01,6.00,5.96,3.61,-10.59,-10.59,2.42
22.76,-16.43,-18.86,-16.43,-18.86,6.00,5.96,3.71,-10.43,-10.43,2.43
22.99,-16.27,-18.71,-16.27,-18.71,6.00,5.96,3.82,-10.27,-10.27,2.44
23.22,-16.12,-18.57,-16.12,-18.57,6.00,5.96,3.92,-10.12,-10.12,2.45
23.45,-15.97,-18.43,-15.97,-18.43,6.00,5.96,4.03,-9.97,-9.97,2.46
23.69,-15.82,-18.29,-15.82,-18.29,6.00,5.96,4.14,-9.82,-9.82,2.47
23.92,-15.67,-18.15,-15.67,-18.15,6.00,5.96,4.26,-9.67,-9.67,2.48
24.16,-15.52,-18.01,-15.52,-18.01,6.00,5.97,4.37,-9.52,-9.52,2.49
24.40,-15.36,-17.86,-15.36,-17.87,6.00,5.97,4.49,-9.36,-9.36,2.50
24.65,-15.21,-17.73,-15.21,-17.73,6.00,5.97,4.61,-9.21,-9.21,2.52
24.89,-15.06,-17.59,-15.05,-17.58,6.00,5.97,4.73,-9.06,-9.05,2.53
25.14,-14.90,-17.44,-14.90,-17.44,6.00,5.97,4.86,-8.90,-8.90,2.54
25.39,-14.75,-17.30,-14.75,-17.30,6.00,5.97,4.98,-8.75,-8.75,2.55
25.65,-14.60,-17.16,-14.60,-17.16,6.00,5.97,5.11,-8.60,-8.60,2.56
25.91,-14.45,-17.03,-14.45,-17.02,6.00,5.97,5.23,-8.45,-8.45,2.58
26.16,-14.29,-16.88,-14.29,-16.88,6.00,5.97,5.36,-8.29,-8.29,2.59
26.43,-14.14,-16.74,-14.14,-16.74,6.00,5.97,5.48,-8.14,-8.14,2.60
26.69,-13.99,-16.60,-13.99,-16.60,6.00,5.97,5.61,-7.99,-7.99,2.61
26.96,-13.84,-16.47,-13.84,-16.47,6.00,5.97,5.73,-7.84,-7.84,2.63
27.23,-13.68,-16.32,-13.68,-16.32,6.00,5.97,5.85,-7.68,-7.68,2.64
27.50,-13.52,-16.18,-13.52,-16.18,6.00,5.98,5.97,-7.52,-7.52,2.66
27.77,-13.36,-16.03,-13.36,-16.03,6.00,5.98,6.09,-7.36,-7.36,2.67
28.05,-13.20,-15.89,-13.20,-15.89,6.00,5.98,6.20,-7.20,-7.20,2.69
28.33,-13.05,-15.75,-13.05,-15.75,6.00,5.98,6.31,-7.05,-7.05,2.70
28.62,-12.90,-15.62,-12.90,-15.61,6.00,5.98,6.42,-6.90,-6.90,2.72
28.90,-12.74,-15.47,-12.75,-15.48,6.00,5.98,6.52,-6.74,-6.75,2.73
29.19,-12.61,-15.36,-12.61,-15.36,6.00,5.98,6.61,-6.61,-6.61,2.75
29.48,-12.48,-15.24,-12.48,-15.24,6.00,5.98,6.70,-6.48,-6.48,2.76
29.78,-12.35,-15.13,-12.35,-15.13,6.00,5.98,6.77,-6.35,-6.35,2.78
30.08,-12.21,-15.00,-12.21,-15.00,6.00,5.98,6.85,-6.21,-6.21,2.79
30.38,-12.06,-14.87,-12.06,-14.87,6.00,5.98,6.91,-6.06,-6.06,2.81
30.68,-11.91,-14.73,-11.91,-14.73,6.00,5.98,6.96,-5.91,-5.91,2.82
30.99,-11.76,-14.60,-11.77,-14.60,6.00,5.98,7.01,-5.76,-5.77,2.84
31.30,-11.63,-14.48,-11.63,-14.48,6.00,5.98,7.05,-5.63,-5.63,2.85
31.61,-11.50,-14.37,-11.50,-14.37,6.00,5.98,7.07,-5.50,-5.50,2.87
31.93,-11.38,-14.26,-11.38,-14.27,6.00,5.98,7.09,-5.38,-5.38,2.88
32.24,-11.27,-14.17,-11.27,-14.17,6.00,5.98,7.10,-5.27,-5.27,2.90
32.57,-11.17,-14.08,-11.17,-14.08,6.00,5.97,7.10,-5.17,-5.17,2.91
32.89,-11.06,-13.99,-11.06,-13.99,6.00,5.97,7.10,-5.06,-5.06,2.93
33.22,-10.96,-13.90,-10.96,-13.90,6.00,5.97,7.09,-4.96,-4.96,2.94
33.55,-10.85,-13.81,-10.85,-13.81,6.00,5.97,7.07,-4.85,-4.85,2.96
33.89,-10.74,-13.71,-10.74,-13.71,6.00,5.97,7.04,-4.74,-4.74,2.97
34.23,-10.63,-13.62,-10.62,-13.61,6.00,5.97,7.01,-4.63,-4.62,2.99
34.57,-10.52,-13.52,-10.52,-13.52,6.00,5.96,6.97,-4.52,-4.52,3.00
34.92,-10.42,-13.43,-10.44,-13.45,6.00,5.96,6.93,-4.42,-4.44,3.01
35.27,-10.39,-13.42,-10.40,-13.43,6.00,5.96,6.89,-4.39,-4.40,3.03
35.62,-10.38,-13.42,-10.38,-13.42,6.00,5.96,6.84,-4.38,-4.38,3.04
35.97,-10.38,-13.43,-10.35,-13.40,6.00,5.95,6.79,-4.38,-4.35,3.05
36.33,-10.28,-13.34,-10.27,-13.33,6.00,5.95,6.74,-4.28,-4.27,3.06
36.70,-10.17,-13.24,-10.18,-13.25,6.00,5.95,6.69,-4.17,-4.18,3.07
37.06,-10.08,-13.16,-10.10,-13.18,6.00,5.94,6.64,-4.08,-4.10,3.08
37.43,-10.07,-13.16,-10.06,-13.15,6.00,5.94,6.59,-4.07,-4.06,3.09
37.81,-10.06,-13.16,-10.05,-13.15,6.00,5.94,6.54,-4.06,-4.05,3.10
38.19,-10.05,-13.16,-10.05,-13.16,6.00,5.93,6.49,-4.05,-4.05,3.11
38.57,-10.05,-13.17,-10.05,-13.17,6.00,5.93,6.45,-4.05,-4.05,3.12
38.95,-10.05,-13.18,-10.05,-13.18,6.00,5.93,6.40,-4.05,-4.05,3.13
39.34,-10.04,-13.18,-10.04,-13.18,6.00,5.92,6.36,-4.04,-4.04,3.14
39.74,-10.02,-13.17,-10.02,-13.16,6.00,5.92,6.33,-4.02,-4.02,3.15
40.14,-9.97,-13.12,-9.95,-13.10,6.00,5.92,6.29,-3.97,-3.95,3.15
40.54,-9.86,-13.02,-9.86,-13.02,6.00,5.91,6.26,-3.86,-3.86,3.16
40.94,-9.75,-12.92,-9.78,-12.95,6.00,5.91,6.23,-3.75,-3.78,3.17
41.35,-9.73,-12.91,-9.73,-12.91,6.00,5.90,6.21,-3.73,-3.73,3.18
41.76,-9.73,-12.92,-9.72,-12.91,6.00,5.90,6.19,-3.73,-3.72,3.19
42.18,-9.73,-12.93,-9.73,-12.93,6.00,5.90,6.18,-3.73,-3.73,3.20
42.60,-9.73,-12.94,-9.73,-12.94,6.00,5.90,6.17,-3.73,-3.73,3.21
43.03,-9.73,-12.95,-9.71,-12.93,6.00,5.89,6.16,-3.73,-3.71,3.22
43.46,-9.66,-12.89,-9.67,-12.90,6.00,5.89,6.16,-3.66,-3.67,3.23
43.90,-9.60,-12.84,-9.60,-12.84,6.00,5.89,6.17,-3.60,-3.60,3.24
44.33,-9.52,-12.78,-9.52,-12.77,6.00,5.89,6.18,-3.52,-3.52,3.26
44.78,-9.45,-12.72,-9.46,-12.73,6.00,5.89,6.19,-3.45,-3.46,3.27
45.23,-9.41,-12.69,-9.42,-12.71,6.00,5.89,6.21,-3.41,-3.42,3.28
45.68,-9.41,-12.71,-9.40,-12.70,6.00,5.89,6.23,-3.41,-3.40,3.30
46.13,-9.40,-12.71,-9.40,-12.71,6.00,5.89,6.26,-3.40,-3.40,3.31
46.60,-9.36,-12.69,-9.36,-12.69,6.00,5.89,6.29,-3.36,-3.36,3.33
47.06,-9.32,-12.66,-9.30,-12.64,6.00,5.89,6.33,-3.32,-3.30,3.34
47.53,-9.20,-12.56,-9.20,-12.56,6.00,5.90,6.37,-3.20,-3.20,3.36
48.01,-9.09,-12.46,-9.11,-12.48,6.00,5.90,6.42,-3.09,-3.11,3.37
48.49,-9.02,-12.41,-9.02,-12.41,6.00,5.91,6.46,-3.02,-3.02,3.39
48.97,-8.95,-12.35,-8.95,-12.35,6.00,5.91,6.52,-2.95,-2.95,3.40
49.46,-8.86,-12.28,-8.87,-12.28,6.00,5.92,6.57,-2.86,-2.87,3.42
49.96,-8.77,-12.20,-8.75,-12.18,6.00,5.93,6.63,-2.77,-2.75,3.43
50.46,-8.61,-12.05,-8.61,-12.05,6.00,5.93,6.70,-2.61,-2.61,3.44
50.96,-8.44,-11.90,-8.48,-11.93,6.00,5.94,6.76,-2.44,-2.48,3.46
51.47,-8.35,-11.82,-8.35,-11.82,6.00,5.95,6.83,-2.35,-2.35,3.47
51.99,-8.26,-11.74,-8.23,-11.71,6.00,5.96,6.90,-2.26,-2.23,3.48
52.51,-8.11,-11.60,-8.11,-11.60,6.00,5.97,6.96,-2.11,-2.11,3.49
53.03,-7.96,-11.46,-7.98,-11.48,6.00,5.98,7.03,-1.96,-1.98,3.50
53.56,-7.85,-11.37,-7.85,-11.37,6.00,5.99,7.10,-1.85,-1.85,3.52
54.10,-7.74,-11.27,-7.74,-11.26,6.00,6.00,7.17,-1.74,-1.74,3.53
54.64,-7.63,-11.17,-7.63,-11.16,6.00,6.01,7.24,-1.63,-1.63,3.54
55.18,-7.51,-11.05,-7.51,-11.06,6.00,6.02,7.30,-1.51,-1.51,3.54
55.74,-7.40,-10.95,-7.39,-10.94,6.00,6.04,7.36,-1.40,-1.39,3.55
56.29,-7.29,-10.85,-7.28,-10.84,6.00,6.05,7.41,-1.29,-1.28,3.56
56.86,-7.18,-10.74,-7.20,-10.76,6.00,6.06,7.46,-1.18,-1.20,3.56
57.42,-7.15,-10.72,-7.15,-10.72,6.00,6.07,7.50,-1.15,-1.15,3.57
58.00,-7.14,-10.71,-7.13,-10.71,6.00,6.08,7.54,-1.14,-1.13,3.57
58.58,-7.14,-10.72,-7.14,-10.72,6.00,6.09,7.56,-1.14,-1.14,3.58
59.16,-7.14,-10.72,-7.14,-10.72,6.00,6.10,7.58,-1.14,-1.14,3.58
59.76,-7.14,-10.72,-7.14,-10.72,6.00,6.11,7.59,-1.14,-1.14,3.58
60.35,-7.14,-10.72,-7.14,-10.72,6.00,6.11,7.58,-1.14,-1.14,3.58
60.96,-7.14,-10.72,-7.14,-10.72,6.00,6.12,7.56,-1.14,-1.14,3.58
61.57,-7.14,-10.72,-7.14,-10.72,6.00,6.13,7.53,-1.14,-1.14,3.58
62.18,-7.14,-10.72,-7.14,-10.72,6.00,6.13,7.49,-1.14,-1.14,3.58
62.80,-7.14,-10.72,-7.14,-10.72,6.00,6.14,7.44,-1.14,-1.14,3.58
63.43,-7.14,-10.72,-7.13,-10.71,6.00,6.14,7.37,-1.14,-1.13,3.58
64.07,-7.14,-10.71,-7.13,-10.70,6.00,6.14,7.29,-1.14,-1.13,3.57
64.71,-7.15,-10.72,-7.20,-10.77,6.00,6.14,7.19,-1.15,-1.20,3.57
65.35,-7.27,-10.84,-7.29,-10.86,6.00,6.14,7.09,-1.27,-1.29,3.57
66.01,-7.46,-11.03,-7.39,-10.96,6.00,6.14,6.97,-1.46,-1.39,3.57
66.67,-7.46,-11.03,-7.46,-11.02,6.00,6.14,6.84,-1.46,-1.46,3.57
67.33,-7.47,-11.04,-7.49,-11.05,6.00,6.13,6.70,-1.47,-1.49,3.57
68.01,-7.49,-11.05,-7.52,-11.08,6.00,6.13,6.55,-1.49,-1.52,3.56
68.69,-7.61,-11.17,-7.61,-11.17,6.00,6.12,6.39,-1.61,-1.61,3.56
69.37,-7.71,-11.27,-7.70,-11.26,6.00,6.12,6.22,-1.71,-1.70,3.56
70.07,-7.78,-11.34,-7.76,-11.32,6.00,6.12,6.05,-1.78,-1.76,3.56
70.77,-7.76,-11.32,-7.75,-11.31,6.00,6.11,5.87,-1.76,-1.75,3.56
71.48,-7.67,-11.23,-7.68,-11.24,6.00,6.11,5.69,-1.67,-1.68,3.56
72.19,-7.56,-11.12,-7.56,-11.13,6.00,6.11,5.50,-1.56,-1.56,3.56
72.91,-7.44,-11.01,-7.45,-11.02,6.00,6.12,5.31,-1.44,-1.45,3.57
73.64,-7.33,-10.90,-7.34,-10.91,6.00,6.12,5.11,-1.33,-1.34,3.57
74.38,-7.22,-10.80,-7.21,-10.79,6.00,6.14,4.92,-1.22,-1.21,3.58
75.12,-7.08,-10.66,-7.05,-10.64,6.00,6.16,4.72,-1.08,-1.05,3.58
75.87,-6.86,-10.45,-6.86,-10.45,6.00,6.18,4.52,-0.86,-0.86,3.59
76.63,-6.64,-10.24,-6.66,-10.26,6.00,6.22,4.31,-0.64,-0.66,3.60
77.40,-6.46,-10.07,-6.49,-10.10,6.00,6.26,4.11,-0.46,-0.49,3.61
78.17,-6.32,-9.94,-6.31,-9.93,6.00,6.30,3.91,-0.32,-0.31,3.62
78.95,-6.12,-9.75,-6.06,-9.69,6.00,6.35,3.71,-0.12,-0.06,3.63
79.74,-5.71,-9.35,-5.70,-9.34,6.01,6.40,3.51,0.30,0.31,3.64
80.54,-5.22,-8.87,-5.25,-8.90,6.03,6.44,3.30,0.82,0.79,3.65
81.35,-4.74,-8.40,-4.77,-8.43,6.06,6.45,3.10,1.32,1.29,3.66
82.16,-4.29,-7.96,-4.27,-7.94,6.07,6.42,2.90,1.78,1.80,3.67
82.98,-3.81,-7.49,-3.74,-7.42,6.05,6.35,2.70,2.24,2.31,3.68
83.81,-3.14,-6.83,-3.19,-6.88,5.98,6.22,2.51,2.84,2.79,3.69
84.65,-2.63,-6.33,-2.67,-6.37,5.86,6.02,2.31,3.23,3.19,3.70
85.50,-2.21,-5.92,-2.20,-5.91,5.69,5.78,2.11,3.48,3.49,3.71
86.35,-1.83,-5.55,-1.81,-5.53,5.46,5.48,1.92,3.64,3.66,3.72
87.22,-1.43,-5.16,-1.42,-5.15,5.19,5.16,1.73,3.76,3.77,3.73
88.09,-1.02,-4.76,-1.05,-4.79,4.87,4.82,1.53,3.84,3.82,3.74
88.97,-0.68,-4.44,-0.68,-4.44,4.50,4.47,1.34,3.82,3.82,3.76
89.86,-0.34,-4.11,-0.32,-4.09,4.12,4.12,1.15,3.78,3.80,3.77
90.76,0.05,-3.73,0.06,-3.73,3.73,3.77,0.96,3.78,3.79,3.78
91.66,0.46,-3.34,0.44,-3.35,3.35,3.43,0.77,3.81,3.79,3.80
92.58,0.83,-2.98,0.81,-3.00,3.00,3.09,0.58,3.83,3.81,3.81
93.51,1.16,-2.66,1.18,-2.64,2.64,2.75,0.40,3.80,3.82,3.82
94.44,1.53,-2.31,1.55,-2.29,2.29,2.41,0.21,3.82,3.84,3.84
95.39,1.93,-1.92,1.90,-1.96,1.95,2.08,0.03,3.88,3.85,3.85
96.34,2.26,-1.61,2.25,-1.62,1.62,1.74,-0.16,3.88,3.87,3.87
97.30,2.55,-1.33,2.60,-1.28,1.30,1.41,-0.34,3.86,3.91,3.88
98.28,2.95,-0.94,2.92,-0.97,0.99,1.07,-0.52,3.94,3.92,3.89
99.26,3.26,-0.64,3.22,-0.68,0.69,0.73,-0.70,3.95,3.91,3.90
100.25,3.49,-0.43,3.51,-0.41,0.39,0.40,-0.88,3.88,3.90,3.92
101.25,3.74,-0.19,3.78,-0.15,0.11,0.06,-1.06,3.85,3.89,3.93
102.27,4.10,0.16,4.09,0.15,-0.17,-0.26,-1.23,3.93,3.92,3.94
103.29,4.42,0.48,4.41,0.46,-0.44,-0.57,-1.41,3.98,3.97,3.94
104.32,4.71,0.76,4.69,0.74,-0.71,-0.86,-1.58,4.00,3.98,3.95
105.37,4.93,0.97,4.93,0.98,-0.98,-1.13,-1.75,3.95,3.96,3.96
106.42,5.16,1.20,5.18,1.22,-1.24,-1.38,-1.91,3.92,3.93,3.96
107.48,5.42,1.46,5.44,1.48,-1.51,-1.61,-2.08,3.91,3.93,3.96
108.56,5.73,1.77,5.72,1.76,-1.77,-1.81,-2.23,3.96,3.95,3.96
109.64,6.00,2.04,5.98,2.02,-2.02,-2.01,-2.39,3.98,3.97,3.96
110.74,6.22,2.26,6.23,2.27,-2.26,-2.20,-2.54,3.96,3.97,3.96
111.85,6.44,2.48,6.45,2.49,-2.49,-2.38,-2.69,3.95,3.96,3.96
112.97,6.66,2.71,6.67,2.72,-2.71,-2.56,-2.83,3.95,3.96,3.95
114.10,6.89,2.94,6.89,2.94,-2.91,-2.74,-2.96,3.97,3.97,3.95
115.24,7.10,3.16,7.08,3.13,-3.11,-2.91,-3.09,3.99,3.97,3.94
116.39,7.23,3.29,7.22,3.29,-3.29,-3.09,-3.21,3.94,3.94,3.94
117.55,7.35,3.42,7.36,3.43,-3.45,-3.27,-3.32,3.90,3.91,3.93
118.73,7.48,3.55,7.51,3.58,-3.62,-3.45,-3.43,3.86,3.90,3.93
119.92,7.69,3.77,7.67,3.75,-3.77,-3.62,-3.52,3.92,3.91,3.92
121.12,7.85,3.93,7.83,3.91,-3.90,-3.79,-3.61,3.95,3.93,3.92
122.33,7.96,4.04,7.97,4.05,-4.03,-3.96,-3.69,3.93,3.94,3.92
123.55,8.08,4.16,8.08,4.16,-4.15,-4.12,-3.77,3.93,3.94,3.92
124.79,8.19,4.27,8.19,4.27,-4.26,-4.28,-3.83,3.93,3.93,3.92
126.03,8.30,4.38,8.29,4.37,-4.36,-4.42,-3.88,3.94,3.93,3.92
127.29,8.38,4.46,8.37,4.45,-4.46,-4.56,-3.93,3.92,3.91,3.92
128.57,8.43,4.51,8.43,4.51,-4.53,-4.69,-3.96,3.90,3.90,3.92
129.85,8.48,4.56,8.50,4.58,-4.60,-4.82,-3.99,3.88,3.90,3.92
131.15,8.58,4.66,8.59,4.67,-4.66,-4.93,-4.01,3.92,3.93,3.92
132.46,8.69,4.77,8.68,4.75,-4.72,-5.03,-4.02,3.97,3.96,3.92
133.79,8.76,4.83,8.73,4.81,-4.78,-5.12,-4.03,3.98,3.95,3.93
135.12,8.76,4.83,8.76,4.83,-4.84,-5.20,-4.03,3.92,3.92,3.93
136.48,8.76,4.83,8.78,4.85,-4.91,-5.28,-4.02,3.85,3.88,3.93
137.84,8.83,4.90,8.85,4.92,-4.96,-5.34,-4.01,3.87,3.88,3.93
139.22,8.94,5.01,8.94,5.01,-5.01,-5.39,-3.99,3.93,3.93,3.93
140.61,9.05,5.12,9.02,5.09,-5.05,-5.43,-3.96,4.00,3.97,3.93
142.02,9.08,5.14,9.08,5.14,-5.09,-5.46,-3.94,3.99,3.99,3.94
143.44,9.08,5.14,9.09,5.15,-5.12,-5.48,-3.91,3.96,3.97,3.94
144.87,9.08,5.14,9.08,5.15,-5.15,-5.50,-3.88,3.93,3.94,3.94
146.32,9.08,5.15,9.08,5.15,-5.16,-5.50,-3.84,3.92,3.92,3.93
147.78,9.08,5.15,9.08,5.15,-5.16,-5.50,-3.81,3.92,3.92,3.93
149.26,9.08,5.15,9.08,5.15,-5.16,-5.49,-3.77,3.92,3.92,3.93
150.75,9.08,5.15,9.08,5.15,-5.16,-5.48,-3.73,3.92,3.92,3.93
152.26,9.08,5.15,9.08,5.15,-5.16,-5.46,-3.69,3.92,3.92,3.93
153.78,9.08,5.16,9.08,5.16,-5.17,-5.43,-3.66,3.91,3.91,3.92
155.32,9.08,5.16,9.08,5.16,-5.17,-5.40,-3.62,3.91,3.91,3.92
156.88,9.08,5.16,9.08,5.16,-5.17,-5.36,-3.58,3.91,3.91,3.92
158.44,9.08,5.16,9.08,5.17,-5.16,-5.32,-3.55,3.92,3.92,3.92
160.03,9.08,5.17,9.09,5.17,-5.14,-5.27,-3.51,3.94,3.95,3.91
161.63,9.08,5.17,9.07,5.16,-5.11,-5.23,-3.48,3.97,3.96,3.91
163.24,9.03,5.13,9.02,5.11,-5.08,-5.18,-3.45,3.95,3.93,3.90
164.88,8.94,5.04,8.93,5.03,-5.05,-5.12,-3.42,3.89,3.88,3.90
166.53,8.82,4.93,8.84,4.95,-5.00,-5.07,-3.40,3.82,3.84,3.89
168.19,8.77,4.89,8.79,4.91,-4.95,-5.01,-3.37,3.82,3.83,3.88
169.87,8.76,4.89,8.76,4.89,-4.90,-4.95,-3.35,3.86,3.86,3.87
171.57,8.76,4.90,8.74,4.88,-4.85,-4.89,-3.34,3.91,3.89,3.86
173.29,8.69,4.84,8.68,4.83,-4.79,-4.83,-3.32,3.90,3.88,3.85
175.02,8.59,4.75,8.59,4.75,-4.74,-4.77,-3.31,3.85,3.85,3.84
176.77,8.47,4.65,8.50,4.68,-4.69,-4.71,-3.30,3.78,3.81,3.82
178.54,8.44,4.63,8.44,4.63,-4.64,-4.65,-3.29,3.80,3.80,3.81
180.32,8.39,4.60,8.37,4.57,-4.58,-4.59,-3.28,3.81,3.79,3.79
182.13,8.30,4.52,8.29,4.51,-4.52,-4.53,-3.28,3.79,3.77,3.78
183.95,8.18,4.42,8.21,4.45,-4.45,-4.47,-3.28,3.73,3.75,3.76
185.79,8.12,4.38,8.14,4.39,-4.39,-4.40,-3.29,3.73,3.74,3.74
187.65,8.10,4.37,8.07,4.34,-4.34,-4.34,-3.29,3.76,3.73,3.73
189.52,8.01,4.30,8.00,4.29,-4.28,-4.28,-3.30,3.73,3.72,3.71
191.42,7.90,4.21,7.91,4.22,-4.22,-4.22,-3.31,3.68,3.70,3.69
193.33,7.81,4.14,7.83,4.16,-4.16,-4.16,-3.32,3.65,3.67,3.67
195.27,7.78,4.12,7.77,4.11,-4.11,-4.10,-3.34,3.67,3.66,3.66
197.22,7.72,4.08,7.69,4.06,-4.06,-4.04,-3.35,3.66,3.64,3.64
199.19,7.61,3.99,7.61,3.99,-4.01,-3.99,-3.37,3.60,3.60,3.62
201.18,7.50,3.91,7.52,3.93,-3.96,-3.93,-3.39,3.54,3.56,3.59
203.19,7.46,3.89,7.48,3.91,-3.91,-3.87,-3.42,3.55,3.57,3.57
205.23,7.46,3.91,7.45,3.90,-3.87,-3.82,-3.44,3.59,3.58,3.55
207.28,7.45,3.92,7.39,3.86,-3.83,-3.76,-3.46,3.62,3.56,3.53
209.35,7.29,3.78,7.30,3.79,-3.79,-3.71,-3.49,3.50,3.51,3.51
211.44,7.16,3.68,7.21,3.73,-3.75,-3.65,-3.52,3.41,3.46,3.48
213.56,7.14,3.68,7.14,3.69,-3.71,-3.60,-3.54,3.43,3.43,3.46
215.69,7.14,3.71,7.12,3.69,-3.67,-3.55,-3.57,3.47,3.44,3.43
217.85,7.08,3.68,7.06,3.66,-3.64,-3.50,-3.59,3.44,3.43,3.40
220.03,6.98,3.60,6.97,3.59,-3.60,-3.45,-3.62,3.38,3.38,3.38
222.23,6.86,3.50,6.88,3.53,-3.55,-3.40,-3.64,3.31,3.33,3.36
224.45,6.81,3.48,6.84,3.51,-3.51,-3.35,-3.66,3.30,3.33,3.33
226.70,6.81,3.50,6.81,3.50,-3.46,-3.31,-3.68,3.35,3.34,3.31
228.96,6.81,3.52,6.74,3.45,-3.42,-3.26,-3.70,3.39,3.32,3.29
231.25,6.64,3.37,6.65,3.38,-3.38,-3.21,-3.72,3.26,3.27,3.27
233.57,6.51,3.25,6.55,3.30,-3.35,-3.17,-3.73,3.17,3.21,3.26
235.90,6.49,3.25,6.49,3.25,-3.31,-3.12,-3.74,3.18,3.18,3.24
238.26,6.49,3.26,6.49,3.25,-3.27,-3.08,-3.74,3.22,3.22,3.23
240.64,6.49,3.27,6.49,3.27,-3.22,-3.04,-3.74,3.27,3.27,3.22
243.05,6.47,3.26,6.45,3.24,-3.18,-2.99,-3.74,3.29,3.27,3.21
245.48,6.39,3.19,6.38,3.18,-3.15,-2.95,-3.74,3.24,3.23,3.20
247.93,6.27,3.08,6.28,3.09,-3.12,-2.91,-3.73,3.15,3.17,3.19
250.41,6.18,3.00,6.20,3.02,-3.07,-2.87,-3.71,3.11,3.13,3.18
252.92,6.16,2.99,6.17,3.00,-3.02,-2.83,-3.69,3.14,3.15,3.17
255.45,6.16,3.00,6.15,2.99,-2.96,-2.79,-3.67,3.20,3.19,3.16
258.00,6.13,2.98,6.11,2.96,-2.90,-2.75,-3.64,3.23,3.21,3.15
260.58,6.04,2.89,6.03,2.88,-2.86,-2.72,-3.61,3.18,3.17,3.15
263.19,5.93,2.79,5.94,2.80,-2.83,-2.68,-3.57,3.10,3.11,3.14
265.82,5.84,2.71,5.87,2.74,-2.80,-2.64,-3.53,3.04,3.06,3.13
268.48,5.84,2.72,5.83,2.71,-2.77,-2.61,-3.49,3.07,3.07,3.12
271.16,5.84,2.73,5.84,2.73,-2.73,-2.57,-3.44,3.11,3.11,3.11
273.87,5.84,2.74,5.85,2.75,-2.68,-2.54,-3.39,3.16,3.16,3.10
276.61,5.84,2.75,5.81,2.72,-2.65,-2.50,-3.34,3.19,3.16,3.09
279.38,5.74,2.66,5.73,2.65,-2.62,-2.47,-3.28,3.12,3.12,3.08
282.17,5.62,2.55,5.64,2.57,-2.59,-2.44,-3.23,3.03,3.04,3.07
284.99,5.54,2.48,5.55,2.49,-2.56,-2.40,-3.17,2.98,2.99,3.06
287.84,5.51,2.46,5.51,2.46,-2.53,-2.37,-3.10,2.98,2.99,3.05
290.72,5.51,2.47,5.51,2.47,-2.48,-2.34,-3.04,3.03,3.03,3.04
293.63,5.51,2.48,5.51,2.48,-2.43,-2.31,-2.98,3.08,3.08,3.03
296.57,5.51,2.49,5.49,2.47,-2.40,-2.28,-2.92,3.11,3.09,3.02
299.53,5.43,2.42,5.42,2.41,-2.37,-2.24,-2.85,3.06,3.05,3.01
302.53,5.33,2.33,5.33,2.33,-2.35,-2.21,-2.79,2.98,2.98,3.00
305.55,5.22,2.24,5.24,2.26,-2.32,-2.18,-2.72,2.90,2.92,2.98
308.61,5.19,2.22,5.20,2.23,-2.29,-2.15,-2.66,2.90,2.90,2.97
311.69,5.19,2.23,5.19,2.23,-2.25,-2.12,-2.59,2.94,2.93,2.96
314.81,5.19,2.25,5.19,2.25,-2.21,-2.10,-2.53,2.98,2.98,2.94
317.96,5.19,2.26,5.18,2.25,-2.18,-2.07,-2.47,3.01,2.99,2.93
321.14,5.13,2.22,5.11,2.20,-2.16,-2.04,-2.41,2.97,2.95,2.91
324.35,5.02,2.12,5.02,2.12,-2.13,-2.01,-2.35,2.89,2.89,2.90
327.59,4.91,2.03,4.93,2.05,-2.10,-1.98,-2.29,2.81,2.83,2.88
330.87,4.87,2.00,4.88,2.01,-2.05,-1.95,-2.23,2.82,2.83,2.87
334.18,4.86,2.01,4.86,2.01,-2.00,-1.93,-2.17,2.86,2.86,2.85
337.52,4.86,2.02,4.83,2.00,-1.96,-1.90,-2.12,2.90,2.88,2.84
340.90,4.78,1.96,4.77,1.94,-1.92,-1.87,-2.06,2.86,2.85,2.82
344.30,4.67,1.86,4.68,1.87,-1.88,-1.85,-2.01,2.79,2.79,2.81
347.75,4.57,1.78,4.59,1.80,-1.85,-1.82,-1.96,2.72,2.75,2.79
351.23,4.54,1.77,4.55,1.78,-1.81,-1.79,-1.91,2.73,2.75,2.77
354.74,4.54,1.78,4.53,1.78,-1.76,-1.77,-1.86,2.78,2.77,2.76
358.28,4.53,1.79,4.50,1.76,-1.72,-1.74,-1.82,2.81,2.78,2.74
361.87,4.44,1.72,4.43,1.71,-1.68,-1.72,-1.77,2.76,2.75,2.72
365.49,4.33,1.62,4.34,1.63,-1.65,-1.69,-1.73,2.68,2.69,2.71
369.14,4.24,1.55,4.26,1.57,-1.61,-1.66,-1.69,2.63,2.65,2.69
372.83,4.22,1.54,4.23,1.55,-1.57,-1.64,-1.65,2.65,2.66,2.68
376.56,4.22,1.56,4.21,1.55,-1.52,-1.61,-1.61,2.70,2.69,2.66
380.33,4.19,1.55,4.17,1.52,-1.47,-1.59,-1.57,2.72,2.70,2.64
384.13,4.09,1.46,4.09,1.46,-1.43,-1.56,-1.53,2.66,2.66,2.63
387.97,3.98,1.37,3.99,1.38,-1.40,-1.54,-1.50,2.58,2.60,2.61
391.85,3.91,1.31,3.92,1.32,-1.38,-1.51,-1.46,2.53,2.54,2.60
395.77,3.89,1.30,3.89,1.30,-1.36,-1.49,-1.43,2.53,2.53,2.59
399.73,3.89,1.31,3.88,1.30,-1.34,-1.46,-1.40,2.55,2.55,2.58
403.72,3.89,1.32,3.89,1.32,-1.31,-1.44,-1.37,2.58,2.58,2.57
407.76,3.89,1.33,3.90,1.34,-1.28,-1.41,-1.34,2.61,2.61,2.56
411.84,3.89,1.35,3.87,1.33,-1.26,-1.39,-1.31,2.63,2.61,2.54
415.96,3.83,1.30,3.81,1.28,-1.24,-1.36,-1.28,2.59,2.57,2.53
420.12,3.72,1.20,3.73,1.21,-1.22,-1.34,-1.25,2.50,2.51,2.52
424.32,3.62,1.11,3.64,1.13,-1.19,-1.31,-1.23,2.43,2.45,2.51
428.56,3.58,1.08,3.58,1.09,-1.16,-1.29,-1.20,2.42,2.43,2.50
432.85,3.57,1.09,3.57,1.09,-1.12,-1.26,-1.17,2.45,2.45,2.48
437.18,3.57,1.10,3.58,1.10,-1.08,-1.24,-1.15,2.49,2.50,2.47
441.55,3.57,1.11,3.56,1.10,-1.04,-1.21,-1.12,2.53,2.52,2.46
445.96,3.53,1.09,3.51,1.07,-1.01,-1.18,-1.10,2.52,2.50,2.44
450.42,3.42,1.00,3.42,1.00,-0.98,-1.16,-1.08,2.44,2.44,2.42
454.93,3.32,0.91,3.33,0.92,-0.96,-1.13,-1.05,2.36,2.37,2.41
459.48,3.25,0.86,3.26,0.88,-0.94,-1.11,-1.03,2.31,2.32,2.39
464.07,3.24,0.87,3.24,0.87,-0.92,-1.08,-1.00,2.32,2.32,2.37
468.71,3.24,0.89,3.23,0.88,-0.90,-1.06,-0.98,2.34,2.33,2.35
473.40,3.24,0.90,3.25,0.91,-0.89,-1.03,-0.96,2.35,2.36,2.34
