frequency,raw,error,smoothed,error_smoothed,equalization,parametric_eq,fixed_band_eq,equalized_raw,equalized_smoothed,target
20.00,-0.41,0.41,-0.41,0.41,-0.41,-1.09,-0.92,-0.82,-0.82,-0.82
20.20,-0.38,0.47,-0.38,0.47,-0.47,-1.11,-0.95,-0.85,-0.85,-0.85
20.40,-0.34,0.53,-0.35,0.53,-0.53,-1.13,-0.97,-0.87,-0.87,-0.87
20.61,-0.31,0.58,-0.31,0.58,-0.58,-1.15,-1.00,-0.89,-0.89,-0.89
20.81,-0.28,0.63,-0.28,0.63,-0.64,-1.17,-1.03,-0.92,-0.92,-0.91
21.02,-0.25,0.68,-0.25,0.68,-0.69,-1.19,-1.06,-0.94,-0.94,-0.93
21.23,-0.21,0.74,-0.21,0.74,-0.74,-1.21,-1.09,-0.95,-0.96,-0.95
21.44,-0.18,0.79,-0.18,0.79,-0.79,-1.23,-1.12,-0.98,-0.97,-0.97
21.66,-0.14,0.85,-0.14,0.85,-0.84,-1.25,-1.15,-0.99,-0.99,-0.99
21.87,-0.11,0.89,-0.11,0.90,-0.89,-1.27,-1.18,-1.01,-1.00,-1.00
22.09,-0.07,0.95,-0.07,0.95,-0.94,-1.30,-1.21,-1.02,-1.02,-1.02
22.31,-0.04,0.99,-0.04,0.99,-0.99,-1.32,-1.25,-1.03,-1.03,-1.03
22.54,-0.00,1.04,-0.00,1.04,-1.04,-1.34,-1.28,-1.04,-1.04,-1.04
22.76,0.03,1.08,0.03,1.08,-1.09,-1.36,-1.32,-1.06,-1.06,-1.05
22.99,0.07,1.13,0.07,1.13,-1.13,-1.39,-1.36,-1.06,-1.06,-1.06
23.22,0.10,1.17,0.10,1.17,-1.17,-1.41,-1.39,-1.08,-1.07,-1.07
23.45,0.14,1.22,0.14,1.22,-1.22,-1.43,-1.43,-1.08,-1.08,-1.08
23.69,0.17,1.26,0.17,1.26,-1.26,-1.46,-1.47,-1.09,-1.09,-1.09
23.92,0.21,1.30,0.21,1.30,-1.30,-1.48,-1.51,-1.09,-1.10,-1.09
24.16,0.24,1.34,0.24,1.34,-1.34,-1.50,-1.55,-1.11,-1.10,-1.10
24.40,0.28,1.38,0.28,1.38,-1.39,-1.53,-1.60,-1.11,-1.11,-1.10
24.65,0.32,1.43,0.31,1.43,-1.43,-1.55,-1.64,-1.11,-1.11,-1.11
24.89,0.35,1.46,0.35,1.47,-1.47,-1.58,-1.68,-1.12,-1.12,-1.11
25.14,0.39,1.51,0.39,1.51,-1.51,-1.60,-1.72,-1.12,-1.12,-1.12
25.39,0.43,1.55,0.42,1.55,-1.55,-1.63,-1.77,-1.12,-1.13,-1.12
25.65,0.46,1.59,0.46,1.59,-1.59,-1.66,-1.81,-1.13,-1.13,-1.13
25.91,0.50,1.63,0.50,1.63,-1.63,-1.68,-1.86,-1.13,-1.13,-1.13
26.16,0.53,1.67,0.53,1.67,-1.67,-1.71,-1.90,-1.14,-1.14,-1.14
26.43,0.57,1.71,0.56,1.71,-1.71,-1.74,-1.95,-1.14,-1.14,-1.14
26.69,0.60,1.75,0.60,1.75,-1.75,-1.76,-1.99,-1.15,-1.15,-1.15
26.96,0.63,1.78,0.63,1.79,-1.79,-1.79,-2.04,-1.16,-1.16,-1.15
27.23,0.67,1.82,0.67,1.82,-1.83,-1.82,-2.08,-1.16,-1.16,-1.15
27.50,0.71,1.87,0.70,1.86,-1.87,-1.85,-2.13,-1.16,-1.16,-1.16
27.77,0.74,1.90,0.74,1.91,-1.91,-1.87,-2.17,-1.17,-1.16,-1.16
28.05,0.78,1.95,0.78,1.95,-1.95,-1.90,-2.21,-1.17,-1.17,-1.17
28.33,0.81,1.98,0.81,1.98,-1.99,-1.93,-2.25,-1.18,-1.17,-1.17
28.62,0.85,2.02,0.85,2.03,-2.02,-1.96,-2.29,-1.18,-1.18,-1.17
28.90,0.89,2.07,0.88,2.06,-2.06,-1.99,-2.33,-1.18,-1.18,-1.18
29.19,0.92,2.10,0.92,2.10,-2.10,-2.02,-2.37,-1.18,-1.18,-1.18
29.48,0.96,2.14,0.96,2.14,-2.14,-2.05,-2.40,-1.18,-1.18,-1.18
29.78,0.99,2.17,0.99,2.17,-2.17,-2.08,-2.44,-1.19,-1.18,-1.18
30.08,1.03,2.21,1.03,2.21,-2.21,-2.11,-2.47,-1.18,-1.18,-1.18
30.38,1.06,2.24,1.06,2.24,-2.24,-2.14,-2.50,-1.19,-1.19,-1.18
30.68,1.09,2.28,1.09,2.28,-2.28,-2.17,-2.53,-1.19,-1.19,-1.19
30.99,1.12,2.31,1.12,2.31,-2.32,-2.20,-2.55,-1.20,-1.20,-1.19
31.30,1.16,2.35,1.15,2.35,-2.35,-2.24,-2.57,-1.19,-1.20,-1.19
31.61,1.19,2.38,1.19,2.39,-2.39,-2.27,-2.59,-1.20,-1.20,-1.19
31.93,1.23,2.43,1.23,2.43,-2.43,-2.30,-2.61,-1.20,-1.20,-1.20
32.24,1.27,2.47,1.26,2.47,-2.47,-2.33,-2.63,-1.20,-1.20,-1.20
32.57,1.30,2.51,1.30,2.51,-2.51,-2.36,-2.65,-1.21,-1.21,-1.21
32.89,1.34,2.55,1.34,2.55,-2.55,-2.40,-2.66,-1.21,-1.21,-1.21
33.22,1.37,2.58,1.37,2.58,-2.59,-2.43,-2.67,-1.22,-1.22,-1.21
33.55,1.41,2.62,1.41,2.62,-2.63,-2.46,-2.68,-1.22,-1.22,-1.21
33.89,1.44,2.66,1.44,2.66,-2.66,-2.50,-2.69,-1.23,-1.22,-1.22
34.23,1.48,2.70,1.48,2.70,-2.70,-2.53,-2.70,-1.22,-1.23,-1.22
34.57,1.51,2.74,1.51,2.74,-2.74,-2.56,-2.70,-1.23,-1.23,-1.23
34.92,1.55,2.78,1.54,2.78,-2.77,-2.60,-2.71,-1.22,-1.23,-1.23
35.27,1.58,2.81,1.57,2.81,-2.81,-2.63,-2.71,-1.23,-1.23,-1.23
35.62,1.60,2.83,1.60,2.84,-2.84,-2.66,-2.72,-1.24,-1.24,-1.23
35.97,1.63,2.87,1.63,2.87,-2.87,-2.70,-2.72,-1.24,-1.24,-1.24
36.33,1.66,2.90,1.66,2.90,-2.90,-2.73,-2.73,-1.24,-1.25,-1.24
36.70,1.69,2.93,1.69,2.93,-2.94,-2.77,-2.73,-1.25,-1.24,-1.24
37.06,1.73,2.97,1.72,2.97,-2.97,-2.80,-2.74,-1.24,-1.25,-1.24
37.43,1.76,3.00,1.76,3.00,-3.01,-2.84,-2.74,-1.25,-1.25,-1.24
37.81,1.79,3.04,1.79,3.04,-3.04,-2.87,-2.75,-1.26,-1.25,-1.25
38.19,1.83,3.08,1.82,3.08,-3.08,-2.91,-2.76,-1.25,-1.26,-1.25
38.57,1.86,3.12,1.86,3.12,-3.12,-2.94,-2.77,-1.26,-1.26,-1.26
38.95,1.90,3.16,1.90,3.16,-3.16,-2.98,-2.78,-1.26,-1.26,-1.26
39.34,1.93,3.20,1.93,3.20,-3.20,-3.01,-2.79,-1.27,-1.27,-1.27
39.74,1.97,3.24,1.96,3.24,-3.24,-3.05,-2.80,-1.27,-1.27,-1.27
40.14,2.00,3.27,2.00,3.28,-3.28,-3.08,-2.82,-1.28,-1.28,-1.27
40.54,2.03,3.31,2.03,3.31,-3.31,-3.12,-2.83,-1.28,-1.28,-1.28
40.94,2.07,3.35,2.06,3.34,-3.34,-3.15,-2.85,-1.27,-1.28,-1.28
41.35,2.09,3.37,2.09,3.37,-3.37,-3.19,-2.87,-1.28,-1.28,-1.28
41.76,2.12,3.40,2.12,3.40,-3.40,-3.22,-2.90,-1.28,-1.28,-1.28
42.18,2.15,3.42,2.15,3.42,-3.42,-3.26,-2.92,-1.28,-1.28,-1.27
42.60,2.18,3.45,2.18,3.45,-3.45,-3.29,-2.95,-1.27,-1.27,-1.27
43.03,2.20,3.47,2.20,3.47,-3.47,-3.33,-2.98,-1.27,-1.27,-1.27
43.46,2.22,3.49,2.22,3.49,-3.49,-3.36,-3.01,-1.27,-1.27,-1.27
43.90,2.24,3.51,2.24,3.51,-3.52,-3.40,-3.05,-1.28,-1.28,-1.27
44.33,2.27,3.53,2.27,3.53,-3.54,-3.43,-3.08,-1.27,-1.27,-1.26
44.78,2.30,3.56,2.30,3.56,-3.57,-3.47,-3.12,-1.27,-1.27,-1.26
45.23,2.34,3.60,2.34,3.60,-3.60,-3.50,-3.16,-1.26,-1.26,-1.26
45.68,2.37,3.63,2.37,3.63,-3.63,-3.53,-3.21,-1.26,-1.26,-1.26
46.13,2.40,3.66,2.39,3.66,-3.66,-3.57,-3.25,-1.26,-1.26,-1.26
46.60,2.42,3.69,2.42,3.69,-3.69,-3.60,-3.30,-1.27,-1.27,-1.27
47.06,2.44,3.71,2.44,3.71,-3.72,-3.64,-3.35,-1.28,-1.27,-1.27
47.53,2.47,3.74,2.47,3.74,-3.75,-3.67,-3.40,-1.28,-1.28,-1.27
48.01,2.50,3.77,2.49,3.77,-3.77,-3.70,-3.46,-1.27,-1.28,-1.27
48.49,2.52,3.80,2.52,3.80,-3.80,-3.73,-3.52,-1.28,-1.28,-1.28
48.97,2.55,3.83,2.55,3.83,-3.82,-3.77,-3.57,-1.27,-1.28,-1.28
49.46,2.57,3.85,2.57,3.85,-3.85,-3.80,-3.63,-1.28,-1.28,-1.28
49.96,2.59,3.87,2.59,3.87,-3.87,-3.83,-3.70,-1.28,-1.28,-1.28
50.46,2.61,3.88,2.61,3.89,-3.89,-3.86,-3.76,-1.29,-1.28,-1.27
50.96,2.64,3.91,2.64,3.91,-3.92,-3.89,-3.82,-1.28,-1.28,-1.27
51.47,2.67,3.94,2.67,3.94,-3.94,-3.93,-3.89,-1.27,-1.28,-1.27
51.99,2.70,3.97,2.70,3.97,-3.97,-3.96,-3.95,-1.27,-1.27,-1.27
52.51,2.73,3.99,2.73,3.99,-3.99,-3.99,-4.02,-1.27,-1.27,-1.26
53.03,2.76,4.02,2.76,4.02,-4.02,-4.02,-4.08,-1.26,-1.26,-1.26
53.56,2.79,4.05,2.79,4.05,-4.05,-4.05,-4.15,-1.26,-1.26,-1.26
54.10,2.82,4.08,2.82,4.08,-4.08,-4.08,-4.22,-1.26,-1.26,-1.26
54.64,2.85,4.11,2.85,4.11,-4.10,-4.10,-4.28,-1.26,-1.26,-1.26
55.18,2.88,4.13,2.87,4.13,-4.13,-4.13,-4.34,-1.25,-1.26,-1.25
55.74,2.90,4.15,2.90,4.15,-4.16,-4.16,-4.40,-1.26,-1.26,-1.25
56.29,2.93,4.18,2.93,4.18,-4.18,-4.19,-4.46,-1.26,-1.26,-1.25
56.86,2.96,4.20,2.96,4.20,-4.21,-4.22,-4.52,-1.25,-1.25,-1.24
57.42,2.99,4.23,2.99,4.23,-4.23,-4.24,-4.57,-1.24,-1.24,-1.24
58.00,3.02,4.26,3.01,4.26,-4.25,-4.27,-4.62,-1.24,-1.24,-1.24
58.58,3.04,4.28,3.04,4.28,-4.27,-4.29,-4.67,-1.24,-1.23,-1.24
59.16,3.06,4.29,3.06,4.30,-4.29,-4.32,-4.71,-1.23,-1.23,-1.23
59.76,3.08,4.31,3.07,4.31,-4.30,-4.34,-4.75,-1.23,-1.23,-1.23
60.35,3.09,4.32,3.09,4.32,-4.31,-4.37,-4.79,-1.23,-1.23,-1.23
60.96,3.10,4.32,3.10,4.32,-4.32,-4.39,-4.82,-1.23,-1.23,-1.22
61.57,3.11,4.33,3.10,4.33,-4.33,-4.42,-4.84,-1.23,-1.23,-1.22
62.18,3.11,4.33,3.11,4.34,-4.34,-4.44,-4.86,-1.24,-1.23,-1.22
62.80,3.13,4.35,3.12,4.35,-4.35,-4.46,-4.88,-1.23,-1.23,-1.22
63.43,3.14,4.36,3.14,4.36,-4.37,-4.48,-4.89,-1.23,-1.23,-1.22
64.07,3.16,4.38,3.16,4.38,-4.38,-4.50,-4.89,-1.23,-1.22,-1.22
64.71,3.18,4.40,3.18,4.40,-4.40,-4.52,-4.89,-1.22,-1.22,-1.22
65.35,3.20,4.42,3.20,4.42,-4.42,-4.54,-4.89,-1.22,-1.22,-1.22
66.01,3.22,4.44,3.22,4.44,-4.43,-4.56,-4.88,-1.21,-1.22,-1.22
66.67,3.23,4.45,3.23,4.45,-4.45,-4.58,-4.87,-1.22,-1.22,-1.22
67.33,3.25,4.47,3.24,4.47,-4.47,-4.60,-4.85,-1.22,-1.22,-1.22
68.01,3.26,4.48,3.26,4.48,-4.48,-4.62,-4.83,-1.23,-1.23,-1.22
68.69,3.27,4.49,3.27,4.50,-4.50,-4.64,-4.81,-1.24,-1.23,-1.22
69.37,3.30,4.52,3.29,4.52,-4.52,-4.65,-4.78,-1.23,-1.23,-1.22
70.07,3.32,4.54,3.32,4.54,-4.54,-4.67,-4.76,-1.23,-1.23,-1.22
70.77,3.34,4.56,3.34,4.57,-4.57,-4.69,-4.73,-1.23,-1.22,-1.22
71.48,3.37,4.59,3.37,4.59,-4.59,-4.70,-4.70,-1.22,-1.22,-1.22
72.19,3.40,4.61,3.39,4.61,-4.61,-4.72,-4.67,-1.21,-1.21,-1.21
72.91,3.42,4.63,3.42,4.63,-4.63,-4.73,-4.64,-1.21,-1.21,-1.21
73.64,3.44,4.65,3.44,4.64,-4.64,-4.75,-4.60,-1.20,-1.20,-1.21
74.38,3.45,4.65,3.45,4.66,-4.65,-4.76,-4.57,-1.21,-1.20,-1.20
75.12,3.46,4.66,3.46,4.66,-4.66,-4.77,-4.54,-1.20,-1.20,-1.20
75.87,3.47,4.67,3.47,4.67,-4.67,-4.78,-4.51,-1.20,-1.20,-1.20
76.63,3.48,4.67,3.48,4.67,-4.67,-4.80,-4.48,-1.20,-1.20,-1.19
77.40,3.49,4.68,3.49,4.68,-4.68,-4.81,-4.46,-1.19,-1.19,-1.19
78.17,3.50,4.68,3.50,4.68,-4.68,-4.82,-4.43,-1.18,-1.18,-1.18
78.95,3.51,4.69,3.51,4.69,-4.69,-4.83,-4.41,-1.18,-1.18,-1.18
79.74,3.52,4.70,3.52,4.70,-4.70,-4.84,-4.39,-1.18,-1.18,-1.18
80.54,3.53,4.70,3.53,4.70,-4.71,-4.85,-4.37,-1.18,-1.18,-1.17
81.35,3.54,4.71,3.54,4.71,-4.72,-4.86,-4.35,-1.19,-1.18,-1.17
82.16,3.56,4.73,3.56,4.73,-4.74,-4.87,-4.34,-1.18,-1.18,-1.17
82.98,3.59,4.76,3.59,4.76,-4.76,-4.88,-4.33,-1.17,-1.17,-1.17
83.81,3.62,4.79,3.62,4.79,-4.78,-4.89,-4.32,-1.17,-1.17,-1.17
84.65,3.65,4.82,3.64,4.81,-4.81,-4.89,-4.32,-1.16,-1.17,-1.17
85.50,3.67,4.83,3.67,4.84,-4.84,-4.90,-4.32,-1.17,-1.17,-1.16
86.35,3.70,4.86,3.70,4.86,-4.87,-4.91,-4.32,-1.17,-1.17,-1.16
87.22,3.74,4.90,3.73,4.89,-4.90,-4.92,-4.33,-1.16,-1.17,-1.16
88.09,3.76,4.92,3.76,4.92,-4.92,-4.92,-4.33,-1.17,-1.16,-1.16
88.97,3.79,4.95,3.79,4.95,-4.95,-4.93,-4.35,-1.16,-1.16,-1.16
89.86,3.81,4.97,3.81,4.97,-4.97,-4.94,-4.36,-1.16,-1.16,-1.16
90.76,3.83,4.99,3.83,4.99,-4.98,-4.94,-4.38,-1.15,-1.15,-1.16
91.66,3.84,5.00,3.83,5.00,-4.99,-4.95,-4.40,-1.15,-1.16,-1.16
92.58,3.84,5.00,3.84,5.00,-4.99,-4.95,-4.43,-1.16,-1.16,-1.16
93.51,3.83,4.99,3.83,5.00,-4.99,-4.96,-4.45,-1.17,-1.16,-1.16
94.44,3.83,4.99,3.82,4.99,-4.99,-4.96,-4.49,-1.16,-1.17,-1.16
95.39,3.82,4.98,3.82,4.98,-4.98,-4.97,-4.52,-1.17,-1.17,-1.16
96.34,3.81,4.97,3.81,4.97,-4.98,-4.97,-4.56,-1.17,-1.17,-1.16
97.30,3.81,4.96,3.81,4.96,-4.97,-4.98,-4.60,-1.16,-1.16,-1.15
98.28,3.81,4.96,3.81,4.96,-4.97,-4.98,-4.64,-1.16,-1.16,-1.15
99.26,3.81,4.96,3.81,4.96,-4.96,-4.98,-4.68,-1.16,-1.16,-1.15
100.25,3.81,4.96,3.81,4.96,-4.96,-4.99,-4.73,-1.15,-1.15,-1.15
101.25,3.81,4.96,3.81,4.96,-4.96,-4.99,-4.78,-1.15,-1.15,-1.15
102.27,3.81,4.96,3.81,4.96,-4.95,-5.00,-4.83,-1.15,-1.14,-1.15
103.29,3.81,4.96,3.81,4.96,-4.95,-5.00,-4.88,-1.14,-1.14,-1.15
104.32,3.81,4.95,3.80,4.95,-4.94,-5.00,-4.94,-1.13,-1.14,-1.14
105.37,3.80,4.94,3.80,4.94,-4.94,-5.01,-4.99,-1.14,-1.14,-1.14
106.42,3.79,4.93,3.79,4.93,-4.94,-5.01,-5.04,-1.15,-1.15,-1.14
107.48,3.79,4.92,3.79,4.93,-4.94,-5.01,-5.10,-1.15,-1.15,-1.13
108.56,3.80,4.93,3.80,4.93,-4.94,-5.02,-5.15,-1.15,-1.15,-1.13
109.64,3.82,4.95,3.82,4.95,-4.96,-5.02,-5.21,-1.14,-1.14,-1.13
110.74,3.84,4.97,3.84,4.97,-4.98,-5.02,-5.26,-1.14,-1.13,-1.13
111.85,3.88,5.00,3.87,5.00,-5.00,-5.03,-5.31,-1.12,-1.13,-1.12
112.97,3.91,5.03,3.91,5.03,-5.03,-5.03,-5.36,-1.12,-1.12,-1.12
114.10,3.94,5.06,3.94,5.06,-5.06,-5.03,-5.41,-1.12,-1.12,-1.12
115.24,3.98,5.10,3.97,5.09,-5.09,-5.03,-5.45,-1.11,-1.12,-1.12
116.39,4.00,5.12,4.00,5.12,-5.12,-5.04,-5.49,-1.12,-1.12,-1.12
117.55,4.03,5.14,4.03,5.15,-5.15,-5.04,-5.53,-1.12,-1.12,-1.11
118.73,4.06,5.17,4.06,5.18,-5.18,-5.04,-5.56,-1.12,-1.12,-1.11
119.92,4.10,5.21,4.09,5.20,-5.20,-5.04,-5.59,-1.11,-1.11,-1.11
121.12,4.13,5.23,4.12,5.23,-5.22,-5.05,-5.61,-1.09,-1.10,-1.10
122.33,4.14,5.24,4.14,5.24,-5.23,-5.05,-5.63,-1.10,-1.09,-1.10
123.55,4.16,5.25,4.15,5.25,-5.24,-5.05,-5.64,-1.08,-1.09,-1.09
124.79,4.16,5.25,4.16,5.25,-5.24,-5.06,-5.65,-1.09,-1.09,-1.09
126.03,4.16,5.25,4.16,5.25,-5.24,-5.06,-5.65,-1.08,-1.09,-1.09
127.29,4.15,5.23,4.15,5.23,-5.24,-5.06,-5.65,-1.09,-1.09,-1.08
128.57,4.14,5.22,4.14,5.22,-5.23,-5.06,-5.64,-1.09,-1.09,-1.08
129.85,4.14,5.21,4.14,5.21,-5.22,-5.07,-5.62,-1.09,-1.09,-1.07
131.15,4.14,5.21,4.14,5.21,-5.22,-5.07,-5.61,-1.08,-1.08,-1.07
132.46,4.14,5.21,4.14,5.21,-5.21,-5.07,-5.58,-1.07,-1.07,-1.07
133.79,4.14,5.21,4.14,5.21,-5.21,-5.08,-5.56,-1.07,-1.07,-1.07
135.12,4.14,5.21,4.14,5.21,-5.21,-5.08,-5.53,-1.07,-1.07,-1.07
136.48,4.14,5.21,4.14,5.21,-5.21,-5.08,-5.49,-1.07,-1.07,-1.07
137.84,4.14,5.20,4.14,5.20,-5.21,-5.09,-5.45,-1.07,-1.07,-1.06
139.22,4.14,5.20,4.14,5.20,-5.20,-5.09,-5.41,-1.07,-1.07,-1.06
140.61,4.14,5.20,4.14,5.20,-5.20,-5.09,-5.37,-1.06,-1.06,-1.06
142.02,4.14,5.20,4.14,5.20,-5.20,-5.09,-5.33,-1.06,-1.06,-1.06
143.44,4.14,5.20,4.14,5.20,-5.20,-5.10,-5.28,-1.06,-1.06,-1.06
144.87,4.14,5.19,4.14,5.20,-5.19,-5.10,-5.24,-1.06,-1.06,-1.05
146.32,4.14,5.19,4.14,5.19,-5.19,-5.10,-5.19,-1.05,-1.05,-1.05
147.78,4.14,5.19,4.14,5.19,-5.19,-5.11,-5.14,-1.05,-1.05,-1.05
149.26,4.14,5.18,4.14,5.19,-5.18,-5.11,-5.10,-1.05,-1.05,-1.04
150.75,4.14,5.18,4.14,5.18,-5.18,-5.11,-5.05,-1.04,-1.04,-1.04
152.26,4.14,5.18,4.14,5.18,-5.18,-5.12,-5.01,-1.04,-1.04,-1.04
153.78,4.14,5.17,4.14,5.18,-5.17,-5.12,-4.97,-1.04,-1.04,-1.03
155.32,4.14,5.17,4.14,5.17,-5.17,-5.12,-4.93,-1.03,-1.03,-1.03
156.88,4.14,5.17,4.14,5.17,-5.17,-5.12,-4.89,-1.03,-1.03,-1.03
158.44,4.14,5.16,4.14,5.16,-5.17,-5.13,-4.85,-1.03,-1.03,-1.02
160.03,4.14,5.16,4.14,5.16,-5.16,-5.13,-4.82,-1.03,-1.03,-1.02
161.63,4.14,5.16,4.14,5.16,-5.16,-5.13,-4.79,-1.02,-1.02,-1.02
163.24,4.14,5.16,4.14,5.16,-5.16,-5.14,-4.76,-1.02,-1.02,-1.02
164.88,4.14,5.16,4.14,5.16,-5.16,-5.14,-4.74,-1.02,-1.02,-1.02
166.53,4.14,5.15,4.14,5.16,-5.15,-5.14,-4.71,-1.02,-1.02,-1.01
168.19,4.14,5.15,4.14,5.15,-5.15,-5.14,-4.70,-1.01,-1.01,-1.01
169.87,4.14,5.15,4.14,5.15,-5.15,-5.15,-4.68,-1.01,-1.01,-1.01
171.57,4.14,5.14,4.14,5.14,-5.15,-5.15,-4.67,-1.01,-1.01,-1.00
173.29,4.14,5.14,4.14,5.14,-5.14,-5.15,-4.66,-1.00,-1.00,-1.00
175.02,4.14,5.14,4.14,5.14,-5.14,-5.15,-4.65,-1.00,-1.00,-1.00
176.77,4.14,5.14,4.14,5.14,-5.14,-5.16,-4.65,-1.00,-1.00,-1.00
178.54,4.14,5.13,4.14,5.13,-5.14,-5.16,-4.66,-1.00,-1.00,-0.99
180.32,4.14,5.13,4.14,5.13,-5.14,-5.16,-4.66,-1.00,-1.00,-0.99
182.13,4.14,5.13,4.14,5.13,-5.14,-5.16,-4.67,-1.00,-1.00,-0.99
183.95,4.14,5.13,4.14,5.13,-5.14,-5.16,-4.68,-1.00,-1.00,-0.99
185.79,4.14,5.14,4.14,5.14,-5.14,-5.17,-4.70,-1.00,-1.00,-1.00
187.65,4.14,5.14,4.14,5.14,-5.14,-5.17,-4.72,-1.00,-1.00,-1.00
189.52,4.14,5.14,4.14,5.14,-5.14,-5.17,-4.74,-1.00,-1.00,-1.00
191.42,4.14,5.14,4.14,5.14,-5.14,-5.17,-4.77,-1.00,-1.00,-1.00
193.33,4.14,5.13,4.14,5.13,-5.14,-5.17,-4.79,-1.00,-1.00,-0.99
195.27,4.14,5.13,4.14,5.13,-5.13,-5.17,-4.83,-1.00,-1.00,-0.99
197.22,4.14,5.13,4.14,5.13,-5.13,-5.17,-4.86,-0.99,-0.99,-0.99
199.19,4.14,5.13,4.14,5.13,-5.13,-5.17,-4.90,-0.99,-0.99,-0.99
201.18,4.14,5.12,4.14,5.13,-5.12,-5.17,-4.94,-0.99,-0.99,-0.98
203.19,4.14,5.12,4.14,5.12,-5.12,-5.17,-4.98,-0.98,-0.98,-0.98
205.23,4.14,5.12,4.14,5.12,-5.12,-5.17,-5.02,-0.98,-0.98,-0.98
207.28,4.14,5.11,4.14,5.12,-5.11,-5.17,-5.06,-0.98,-0.98,-0.97
209.35,4.14,5.11,4.14,5.11,-5.11,-5.17,-5.11,-0.97,-0.97,-0.97
211.44,4.14,5.11,4.14,5.11,-5.11,-5.17,-5.15,-0.97,-0.97,-0.97
213.56,4.14,5.10,4.14,5.10,-5.11,-5.17,-5.20,-0.97,-0.97,-0.96
215.69,4.14,5.10,4.14,5.10,-5.10,-5.17,-5.25,-0.96,-0.96,-0.96
217.85,4.14,5.10,4.14,5.10,-5.10,-5.17,-5.29,-0.96,-0.96,-0.96
220.03,4.14,5.10,4.14,5.10,-5.10,-5.17,-5.34,-0.96,-0.96,-0.96
222.23,4.14,5.09,4.14,5.09,-5.10,-5.16,-5.38,-0.96,-0.96,-0.95
224.45,4.14,5.09,4.14,5.09,-5.09,-5.16,-5.42,-0.96,-0.96,-0.95
226.70,4.14,5.09,4.14,5.09,-5.09,-5.16,-5.46,-0.95,-0.95,-0.95
228.96,4.14,5.09,4.14,5.09,-5.09,-5.16,-5.50,-0.95,-0.95,-0.95
231.25,4.14,5.08,4.14,5.08,-5.08,-5.15,-5.53,-0.95,-0.95,-0.94
233.57,4.14,5.08,4.14,5.08,-5.08,-5.15,-5.56,-0.94,-0.94,-0.94
235.90,4.14,5.07,4.14,5.07,-5.07,-5.15,-5.59,-0.94,-0.94,-0.93
238.26,4.14,5.07,4.14,5.07,-5.07,-5.14,-5.61,-0.93,-0.93,-0.93
240.64,4.14,5.06,4.14,5.06,-5.06,-5.14,-5.62,-0.92,-0.92,-0.92
243.05,4.14,5.05,4.14,5.06,-5.05,-5.13,-5.64,-0.92,-0.92,-0.91
245.48,4.14,5.05,4.14,5.05,-5.05,-5.13,-5.64,-0.91,-0.91,-0.91
247.93,4.14,5.04,4.14,5.04,-5.04,-5.12,-5.64,-0.90,-0.90,-0.90
250.41,4.14,5.03,4.14,5.03,-5.03,-5.12,-5.64,-0.89,-0.89,-0.89
252.92,4.14,5.02,4.14,5.02,-5.03,-5.11,-5.62,-0.89,-0.89,-0.88
255.45,4.14,5.02,4.14,5.02,-5.02,-5.10,-5.61,-0.88,-0.88,-0.88
258.00,4.14,5.01,4.14,5.01,-5.01,-5.10,-5.59,-0.88,-0.88,-0.87
260.58,4.14,5.01,4.14,5.01,-5.01,-5.09,-5.56,-0.87,-0.87,-0.87
263.19,4.14,5.00,4.14,5.00,-5.00,-5.08,-5.52,-0.87,-0.87,-0.86
265.82,4.14,5.00,4.14,5.00,-5.00,-5.07,-5.49,-0.86,-0.86,-0.86
268.48,4.14,4.99,4.14,4.99,-4.99,-5.06,-5.45,-0.86,-0.86,-0.85
271.16,4.14,4.99,4.14,4.99,-4.99,-5.06,-5.40,-0.85,-0.85,-0.85
273.87,4.14,4.99,4.14,4.99,-4.99,-5.05,-5.35,-0.85,-0.85,-0.85
276.61,4.14,4.98,4.14,4.99,-4.98,-5.04,-5.30,-0.85,-0.85,-0.84
279.38,4.14,4.98,4.14,4.98,-4.98,-5.03,-5.24,-0.84,-0.84,-0.84
282.17,4.14,4.98,4.14,4.98,-4.98,-5.02,-5.18,-0.84,-0.84,-0.84
284.99,4.14,4.97,4.14,4.97,-4.98,-5.01,-5.12,-0.84,-0.84,-0.83
287.84,4.14,4.97,4.14,4.97,-4.97,-5.00,-5.06,-0.84,-0.84,-0.83
290.72,4.14,4.97,4.14,4.97,-4.97,-4.98,-5.00,-0.83,-0.83,-0.83
293.63,4.14,4.97,4.14,4.97,-4.97,-4.97,-4.94,-0.83,-0.83,-0.83
296.57,4.14,4.97,4.14,4.97,-4.97,-4.96,-4.87,-0.83,-0.83,-0.83
299.53,4.14,4.97,4.14,4.97,-4.96,-4.95,-4.81,-0.83,-0.83,-0.83
302.53,4.14,4.96,4.14,4.96,-4.96,-4.93,-4.75,-0.83,-0.83,-0.82
305.55,4.14,4.96,4.14,4.96,-4.96,-4.92,-4.69,-0.82,-0.82,-0.82
308.61,4.14,4.95,4.14,4.95,-4.96,-4.91,-4.63,-0.82,-0.82,-0.81
311.69,4.14,4.95,4.14,4.95,-4.96,-4.89,-4.57,-0.82,-0.82,-0.81
314.81,4.15,4.95,4.15,4.95,-4.96,-4.88,-4.51,-0.81,-0.81,-0.80
317.96,4.16,4.96,4.16,4.96,-4.96,-4.86,-4.46,-0.80,-0.80,-0.80
321.14,4.16,4.95,4.16,4.95,-4.95,-4.84,-4.41,-0.79,-0.79,-0.79
324.35,4.16,4.95,4.15,4.95,-4.94,-4.83,-4.36,-0.78,-0.79,-0.79
327.59,4.14,4.93,4.14,4.93,-4.92,-4.81,-4.31,-0.79,-0.78,-0.79
330.87,4.13,4.91,4.13,4.91,-4.90,-4.79,-4.27,-0.78,-0.78,-0.78
334.18,4.11,4.89,4.10,4.88,-4.88,-4.78,-4.23,-0.77,-0.78,-0.78
337.52,4.07,4.84,4.08,4.85,-4.85,-4.76,-4.19,-0.78,-0.77,-0.77
340.90,4.05,4.81,4.05,4.81,-4.82,-4.74,-4.15,-0.77,-0.77,-0.76
344.30,4.02,4.78,4.01,4.78,-4.78,-4.72,-4.12,-0.76,-0.77,-0.76
347.75,3.98,4.74,3.98,4.74,-4.74,-4.70,-4.09,-0.76,-0.76,-0.76
351.23,3.95,4.71,3.95,4.71,-4.71,-4.68,-4.06,-0.76,-0.76,-0.76
354.74,3.92,4.67,3.92,4.67,-4.68,-4.66,-4.04,-0.76,-0.76,-0.75
358.28,3.89,4.64,3.89,4.64,-4.65,-4.64,-4.02,-0.76,-0.76,-0.75
361.87,3.86,4.61,3.86,4.61,-4.62,-4.62,-4.00,-0.76,-0.76,-0.75
365.49,3.84,4.59,3.84,4.60,-4.60,-4.60,-3.99,-0.76,-0.76,-0.75
369.14,3.83,4.58,3.83,4.58,-4.58,-4.58,-3.98,-0.75,-0.76,-0.75
372.83,3.82,4.57,3.81,4.56,-4.57,-4.56,-3.97,-0.75,-0.75,-0.75
376.56,3.80,4.54,3.80,4.55,-4.55,-4.53,-3.97,-0.75,-0.75,-0.74
380.33,3.79,4.53,3.79,4.53,-4.53,-4.51,-3.96,-0.75,-0.74,-0.74
384.13,3.78,4.52,3.78,4.52,-4.51,-4.49,-3.96,-0.74,-0.74,-0.74
387.97,3.77,4.51,3.76,4.50,-4.49,-4.46,-3.97,-0.72,-0.73,-0.74
391.85,3.74,4.47,3.74,4.47,-4.46,-4.44,-3.97,-0.73,-0.72,-0.73
395.77,3.71,4.44,3.71,4.44,-4.43,-4.41,-3.98,-0.72,-0.72,-0.73
399.73,3.67,4.39,3.67,4.40,-4.39,-4.39,-3.99,-0.73,-0.72,-0.72
403.72,3.64,4.36,3.63,4.36,-4.36,-4.36,-4.00,-0.72,-0.72,-0.72
407.76,3.60,4.31,3.60,4.32,-4.32,-4.34,-4.02,-0.72,-0.72,-0.71
411.84,3.57,4.28,3.57,4.28,-4.28,-4.31,-4.03,-0.71,-0.72,-0.71
415.96,3.54,4.24,3.54,4.24,-4.25,-4.28,-4.05,-0.71,-0.71,-0.70
420.12,3.51,4.21,3.51,4.22,-4.23,-4.25,-4.06,-0.72,-0.71,-0.70
424.32,3.50,4.20,3.50,4.20,-4.21,-4.23,-4.08,-0.71,-0.71,-0.70
428.56,3.49,4.18,3.49,4.19,-4.19,-4.20,-4.10,-0.71,-0.71,-0.69
432.85,3.49,4.18,3.49,4.18,-4.18,-4.17,-4.12,-0.70,-0.70,-0.69
437.18,3.49,4.18,3.49,4.18,-4.18,-4.14,-4.13,-0.69,-0.69,-0.69
441.55,3.49,4.18,3.49,4.18,-4.17,-4.11,-4.15,-0.68,-0.68,-0.69
445.96,3.48,4.17,3.48,4.17,-4.16,-4.08,-4.16,-0.68,-0.68,-0.69
450.42,3.46,4.15,3.46,4.15,-4.15,-4.05,-4.18,-0.69,-0.69,-0.69
454.93,3.44,4.13,3.44,4.13,-4.13,-4.02,-4.19,-0.69,-0.70,-0.69
459.48,3.41,4.10,3.41,4.11,-4.11,-3.99,-4.20,-0.70,-0.70,-0.69
464.07,3.39,4.08,3.39,4.08,-4.08,-3.96,-4.21,-0.70,-0.70,-0.69
