frequency,raw,error,smoothed,error_smoothed,equalization,parametric_eq,fixed_band_eq,equalized_raw,equalized_smoothed,target
20.00,-2.18,-5.10,-2.18,-5.11,5.10,3.80,1.88,2.92,2.91,2.92
20.20,-2.14,-5.07,-2.14,-5.07,5.07,3.80,1.94,2.92,2.93,2.93
20.40,-2.10,-5.04,-2.10,-5.03,5.04,3.80,2.00,2.94,2.94,2.94
20.61,-2.06,-5.00,-2.06,-5.00,5.01,3.80,2.05,2.94,2.95,2.94
20.81,-2.02,-4.97,-2.02,-4.97,4.98,3.80,2.11,2.96,2.96,2.95
21.02,-1.98,-4.93,-1.99,-4.94,4.95,3.80,2.18,2.97,2.96,2.95
21.23,-1.96,-4.92,-1.96,-4.92,4.92,3.79,2.24,2.96,2.96,2.96
21.44,-1.94,-4.90,-1.93,-4.89,4.90,3.79,2.31,2.96,2.96,2.96
21.66,-1.91,-4.87,-1.91,-4.87,4.87,3.79,2.37,2.96,2.96,2.96
21.87,-1.89,-4.85,-1.89,-4.85,4.85,3.79,2.44,2.96,2.96,2.96
22.09,-1.87,-4.84,-1.87,-4.83,4.83,3.79,2.51,2.96,2.96,2.97
22.31,-1.85,-4.82,-1.85,-4.81,4.80,3.79,2.59,2.95,2.95,2.97
22.54,-1.82,-4.78,-1.82,-4.78,4.78,3.79,2.66,2.96,2.95,2.96
22.76,-1.80,-4.75,-1.80,-4.75,4.75,3.79,2.74,2.95,2.95,2.95
22.99,-1.77,-4.72,-1.77,-4.72,4.72,3.79,2.82,2.95,2.95,2.95
23.22,-1.75,-4.70,-1.75,-4.69,4.69,3.79,2.90,2.94,2.94,2.95
23.45,-1.73,-4.67,-1.73,-4.67,4.67,3.79,2.98,2.94,2.94,2.94
23.69,-1.71,-4.65,-1.71,-4.64,4.65,3.78,3.07,2.94,2.94,2.93
23.92,-1.69,-4.62,-1.69,-4.63,4.63,3.78,3.15,2.94,2.94,2.93
24.16,-1.68,-4.61,-1.68,-4.61,4.62,3.78,3.24,2.94,2.94,2.93
24.40,-1.67,-4.60,-1.67,-4.61,4.61,3.78,3.33,2.94,2.94,2.93
24.65,-1.67,-4.60,-1.67,-4.60,4.60,3.78,3.42,2.93,2.93,2.93
24.89,-1.66,-4.59,-1.66,-4.59,4.58,3.78,3.51,2.92,2.92,2.93
25.14,-1.65,-4.58,-1.65,-4.58,4.57,3.78,3.60,2.92,2.92,2.93
25.39,-1.63,-4.55,-1.63,-4.56,4.55,3.78,3.69,2.92,2.92,2.92
25.65,-1.61,-4.53,-1.61,-4.53,4.53,3.77,3.79,2.92,2.91,2.92
25.91,-1.59,-4.51,-1.59,-4.51,4.50,3.77,3.88,2.91,2.91,2.92
26.16,-1.56,-4.48,-1.56,-4.48,4.47,3.77,3.97,2.91,2.91,2.92
26.43,-1.53,-4.45,-1.53,-4.45,4.45,3.77,4.06,2.92,2.92,2.92
26.69,-1.50,-4.42,-1.50,-4.42,4.43,3.77,4.15,2.93,2.93,2.92
26.96,-1.47,-4.39,-1.48,-4.40,4.41,3.77,4.24,2.94,2.93,2.92
27.23,-1.47,-4.39,-1.47,-4.38,4.39,3.77,4.33,2.92,2.93,2.92
27.50,-1.47,-4.38,-1.47,-4.38,4.38,3.76,4.42,2.91,2.92,2.91
27.77,-1.47,-4.38,-1.47,-4.38,4.38,3.76,4.50,2.91,2.91,2.91
28.05,-1.47,-4.38,-1.47,-4.38,4.38,3.76,4.58,2.91,2.91,2.91
28.33,-1.47,-4.38,-1.47,-4.38,4.38,3.76,4.65,2.91,2.91,2.91
28.62,-1.47,-4.38,-1.47,-4.38,4.39,3.76,4.73,2.92,2.92,2.91
28.90,-1.47,-4.39,-1.47,-4.39,4.39,3.76,4.79,2.92,2.92,2.92
29.19,-1.47,-4.39,-1.47,-4.39,4.39,3.75,4.85,2.92,2.92,2.92
29.48,-1.47,-4.39,-1.47,-4.39,4.39,3.75,4.91,2.92,2.92,2.92
29.78,-1.47,-4.40,-1.47,-4.39,4.38,3.75,4.96,2.91,2.91,2.93
30.08,-1.46,-4.39,-1.46,-4.38,4.37,3.75,5.00,2.91,2.91,2.93
30.38,-1.43,-4.35,-1.43,-4.36,4.35,3.75,5.03,2.91,2.91,2.92
30.68,-1.40,-4.32,-1.40,-4.33,4.32,3.74,5.06,2.92,2.92,2.92
30.99,-1.37,-4.29,-1.37,-4.29,4.29,3.74,5.08,2.92,2.92,2.92
31.30,-1.34,-4.26,-1.34,-4.26,4.27,3.74,5.09,2.93,2.93,2.92
31.61,-1.31,-4.23,-1.31,-4.23,4.24,3.74,5.10,2.93,2.93,2.92
31.93,-1.28,-4.20,-1.29,-4.20,4.22,3.73,5.10,2.94,2.93,2.92
32.24,-1.27,-4.18,-1.27,-4.18,4.20,3.73,5.09,2.93,2.92,2.91
32.57,-1.27,-4.17,-1.27,-4.17,4.17,3.73,5.07,2.90,2.90,2.90
32.89,-1.27,-4.17,-1.26,-4.16,4.15,3.72,5.05,2.88,2.88,2.90
33.22,-1.25,-4.14,-1.25,-4.14,4.11,3.72,5.02,2.86,2.87,2.89
33.55,-1.21,-4.10,-1.22,-4.10,4.08,3.72,4.99,2.87,2.86,2.89
33.89,-1.18,-4.06,-1.17,-4.05,4.04,3.72,4.95,2.86,2.86,2.88
34.23,-1.12,-4.00,-1.12,-3.99,3.99,3.71,4.91,2.87,2.88,2.87
34.57,-1.06,-3.93,-1.06,-3.93,3.95,3.71,4.86,2.89,2.89,2.87
34.92,-0.99,-3.86,-1.00,-3.88,3.90,3.71,4.80,2.91,2.90,2.87
35.27,-0.97,-3.84,-0.98,-3.85,3.86,3.70,4.74,2.89,2.88,2.87
35.62,-0.97,-3.84,-0.97,-3.83,3.82,3.70,4.69,2.85,2.86,2.87
35.97,-0.97,-3.83,-0.96,-3.82,3.80,3.69,4.62,2.83,2.84,2.86
36.33,-0.94,-3.80,-0.93,-3.79,3.79,3.69,4.56,2.85,2.85,2.86
36.70,-0.90,-3.76,-0.91,-3.76,3.78,3.69,4.49,2.88,2.88,2.86
37.06,-0.88,-3.74,-0.90,-3.75,3.79,3.68,4.43,2.91,2.89,2.86
37.43,-0.91,-3.76,-0.91,-3.77,3.80,3.68,4.36,2.88,2.88,2.85
37.81,-0.95,-3.81,-0.94,-3.80,3.80,3.67,4.29,2.85,2.86,2.86
38.19,-0.97,-3.83,-0.97,-3.83,3.80,3.67,4.23,2.83,2.84,2.86
38.57,-0.97,-3.83,-0.98,-3.83,3.80,3.66,4.16,2.83,2.83,2.86
38.95,-0.97,-3.83,-0.96,-3.82,3.80,3.66,4.10,2.83,2.83,2.86
39.34,-0.94,-3.80,-0.94,-3.80,3.78,3.65,4.03,2.84,2.84,2.86
39.74,-0.90,-3.76,-0.90,-3.76,3.75,3.65,3.97,2.85,2.85,2.86
40.14,-0.86,-3.71,-0.86,-3.71,3.71,3.64,3.91,2.85,2.85,2.85
40.54,-0.82,-3.67,-0.82,-3.67,3.67,3.64,3.85,2.85,2.85,2.85
40.94,-0.78,-3.62,-0.77,-3.62,3.63,3.63,3.80,2.85,2.85,2.84
41.35,-0.73,-3.57,-0.73,-3.57,3.59,3.63,3.74,2.86,2.86,2.84
41.76,-0.69,-3.52,-0.70,-3.53,3.55,3.62,3.69,2.86,2.85,2.83
42.18,-0.67,-3.49,-0.68,-3.50,3.51,3.61,3.64,2.84,2.83,2.82
42.60,-0.67,-3.49,-0.67,-3.49,3.47,3.61,3.59,2.80,2.80,2.82
43.03,-0.67,-3.48,-0.65,-3.46,3.44,3.60,3.55,2.77,2.79,2.81
43.46,-0.62,-3.43,-0.62,-3.43,3.42,3.59,3.51,2.80,2.79,2.81
43.90,-0.58,-3.37,-0.59,-3.39,3.40,3.58,3.47,2.81,2.80,2.79
44.33,-0.57,-3.36,-0.57,-3.36,3.38,3.58,3.43,2.81,2.80,2.79
44.78,-0.57,-3.35,-0.57,-3.35,3.36,3.57,3.40,2.79,2.79,2.78
45.23,-0.57,-3.35,-0.57,-3.35,3.35,3.56,3.37,2.78,2.78,2.78
45.68,-0.57,-3.34,-0.57,-3.35,3.34,3.55,3.34,2.77,2.77,2.77
46.13,-0.57,-3.35,-0.57,-3.34,3.34,3.54,3.31,2.77,2.77,2.78
46.60,-0.57,-3.34,-0.57,-3.34,3.35,3.53,3.29,2.78,2.79,2.77
47.06,-0.57,-3.35,-0.58,-3.36,3.37,3.52,3.27,2.80,2.79,2.78
47.53,-0.60,-3.38,-0.60,-3.38,3.39,3.52,3.25,2.79,2.79,2.78
48.01,-0.63,-3.41,-0.63,-3.41,3.41,3.51,3.23,2.78,2.78,2.78
48.49,-0.65,-3.44,-0.65,-3.44,3.42,3.49,3.22,2.77,2.77,2.79
48.97,-0.67,-3.46,-0.67,-3.46,3.43,3.48,3.21,2.76,2.76,2.79
49.46,-0.67,-3.46,-0.67,-3.47,3.44,3.47,3.20,2.77,2.76,2.79
49.96,-0.67,-3.47,-0.65,-3.45,3.44,3.46,3.19,2.77,2.78,2.80
50.46,-0.62,-3.43,-0.62,-3.43,3.43,3.45,3.18,2.81,2.81,2.80
50.96,-0.57,-3.39,-0.59,-3.40,3.43,3.44,3.18,2.86,2.84,2.82
51.47,-0.57,-3.39,-0.57,-3.39,3.42,3.42,3.18,2.85,2.85,2.82
51.99,-0.57,-3.39,-0.57,-3.39,3.40,3.41,3.17,2.83,2.84,2.82
52.51,-0.57,-3.39,-0.57,-3.39,3.39,3.40,3.17,2.82,2.82,2.82
53.03,-0.57,-3.39,-0.57,-3.40,3.38,3.38,3.17,2.81,2.81,2.82
53.56,-0.57,-3.39,-0.57,-3.39,3.37,3.37,3.17,2.80,2.80,2.82
54.10,-0.56,-3.39,-0.55,-3.37,3.36,3.35,3.18,2.80,2.82,2.83
54.64,-0.51,-3.34,-0.51,-3.34,3.35,3.34,3.18,2.84,2.84,2.83
55.18,-0.47,-3.30,-0.48,-3.31,3.33,3.32,3.18,2.86,2.85,2.83
55.74,-0.47,-3.29,-0.47,-3.29,3.30,3.31,3.18,2.83,2.83,2.82
56.29,-0.47,-3.29,-0.47,-3.29,3.28,3.29,3.18,2.81,2.81,2.82
56.86,-0.47,-3.29,-0.45,-3.27,3.25,3.27,3.18,2.78,2.79,2.82
57.42,-0.43,-3.23,-0.42,-3.23,3.22,3.25,3.17,2.79,2.80,2.80
58.00,-0.37,-3.16,-0.39,-3.18,3.19,3.23,3.17,2.82,2.80,2.79
58.58,-0.37,-3.15,-0.37,-3.15,3.17,3.21,3.16,2.80,2.80,2.78
59.16,-0.37,-3.13,-0.36,-3.13,3.15,3.19,3.16,2.77,2.78,2.76
59.76,-0.37,-3.12,-0.37,-3.12,3.12,3.17,3.15,2.75,2.75,2.75
60.35,-0.37,-3.10,-0.37,-3.10,3.09,3.15,3.14,2.72,2.72,2.73
60.96,-0.37,-3.07,-0.37,-3.07,3.06,3.13,3.12,2.69,2.69,2.70
61.57,-0.37,-3.05,-0.37,-3.05,3.04,3.11,3.11,2.67,2.67,2.68
62.18,-0.37,-3.01,-0.37,-3.01,3.01,3.08,3.09,2.64,2.64,2.64
62.80,-0.37,-2.98,-0.37,-2.97,2.97,3.06,3.07,2.60,2.60,2.60
63.43,-0.37,-2.93,-0.37,-2.93,2.93,3.04,3.04,2.56,2.56,2.56
64.07,-0.37,-2.89,-0.37,-2.89,2.89,3.01,3.01,2.52,2.52,2.52
64.71,-0.37,-2.84,-0.37,-2.85,2.85,2.98,2.99,2.48,2.48,2.47
65.35,-0.37,-2.81,-0.37,-2.81,2.80,2.96,2.95,2.43,2.43,2.44
66.01,-0.37,-2.77,-0.37,-2.77,2.76,2.93,2.92,2.39,2.39,2.40
66.67,-0.37,-2.73,-0.37,-2.73,2.73,2.90,2.88,2.36,2.36,2.36
67.33,-0.37,-2.70,-0.37,-2.69,2.70,2.87,2.84,2.33,2.33,2.33
68.01,-0.37,-2.66,-0.37,-2.66,2.68,2.84,2.80,2.31,2.31,2.29
68.69,-0.37,-2.63,-0.38,-2.64,2.66,2.81,2.76,2.29,2.28,2.26
69.37,-0.40,-2.63,-0.40,-2.63,2.64,2.78,2.72,2.24,2.24,2.23
70.07,-0.44,-2.64,-0.43,-2.63,2.62,2.74,2.67,2.18,2.19,2.20
70.77,-0.46,-2.62,-0.46,-2.62,2.60,2.71,2.62,2.14,2.14,2.16
71.48,-0.47,-2.61,-0.47,-2.61,2.58,2.68,2.58,2.11,2.11,2.14
72.19,-0.47,-2.58,-0.47,-2.58,2.56,2.64,2.53,2.09,2.09,2.11
72.91,-0.47,-2.54,-0.47,-2.54,2.55,2.60,2.48,2.08,2.08,2.07
73.64,-0.47,-2.51,-0.46,-2.50,2.53,2.57,2.43,2.06,2.07,2.04
74.38,-0.47,-2.47,-0.48,-2.48,2.51,2.53,2.38,2.04,2.03,2.00
75.12,-0.48,-2.45,-0.50,-2.47,2.49,2.49,2.33,2.00,1.98,1.97
75.87,-0.56,-2.48,-0.54,-2.46,2.46,2.45,2.28,1.90,1.92,1.92
76.63,-0.57,-2.45,-0.56,-2.45,2.42,2.41,2.23,1.85,1.86,1.88
77.40,-0.57,-2.41,-0.58,-2.42,2.38,2.37,2.18,1.81,1.80,1.84
78.17,-0.57,-2.37,-0.57,-2.37,2.34,2.33,2.13,1.77,1.77,1.80
78.95,-0.57,-2.32,-0.55,-2.30,2.29,2.29,2.09,1.72,1.74,1.75
79.74,-0.50,-2.21,-0.51,-2.22,2.23,2.25,2.04,1.73,1.72,1.71
80.54,-0.47,-2.13,-0.48,-2.15,2.17,2.21,1.99,1.70,1.69,1.66
81.35,-0.47,-2.09,-0.46,-2.09,2.11,2.16,1.95,1.64,1.65,1.62
82.16,-0.47,-2.05,-0.47,-2.05,2.05,2.12,1.90,1.58,1.59,1.58
82.98,-0.47,-2.01,-0.47,-2.01,2.00,2.08,1.86,1.53,1.53,1.54
83.81,-0.47,-1.97,-0.47,-1.97,1.96,2.03,1.82,1.49,1.49,1.50
84.65,-0.47,-1.94,-0.47,-1.93,1.92,1.99,1.78,1.45,1.46,1.47
85.50,-0.47,-1.89,-0.47,-1.89,1.90,1.95,1.74,1.43,1.43,1.42
86.35,-0.47,-1.85,-0.47,-1.85,1.87,1.90,1.70,1.40,1.40,1.38
87.22,-0.48,-1.82,-0.49,-1.83,1.84,1.86,1.66,1.36,1.35,1.34
88.09,-0.52,-1.81,-0.52,-1.82,1.82,1.82,1.63,1.30,1.29,1.29
88.97,-0.57,-1.83,-0.55,-1.81,1.79,1.77,1.59,1.22,1.24,1.26
89.86,-0.57,-1.78,-0.57,-1.78,1.76,1.73,1.56,1.19,1.19,1.21
90.76,-0.56,-1.73,-0.57,-1.74,1.73,1.69,1.53,1.17,1.16,1.17
91.66,-0.56,-1.69,-0.56,-1.69,1.69,1.65,1.49,1.13,1.13,1.13
92.58,-0.56,-1.66,-0.56,-1.65,1.66,1.61,1.47,1.10,1.10,1.10
93.51,-0.56,-1.61,-0.56,-1.61,1.62,1.57,1.44,1.06,1.06,1.05
94.44,-0.56,-1.57,-0.56,-1.57,1.58,1.53,1.41,1.02,1.02,1.01
95.39,-0.56,-1.54,-0.56,-1.54,1.54,1.49,1.38,0.98,0.98,0.98
96.34,-0.57,-1.51,-0.57,-1.50,1.50,1.45,1.36,0.93,0.94,0.94
97.30,-0.57,-1.47,-0.57,-1.47,1.47,1.42,1.33,0.90,0.90,0.90
98.28,-0.58,-1.43,-0.58,-1.44,1.44,1.38,1.31,0.86,0.86,0.85
99.26,-0.60,-1.42,-0.60,-1.41,1.41,1.35,1.29,0.81,0.82,0.82
100.25,-0.61,-1.39,-0.61,-1.39,1.39,1.31,1.26,0.78,0.78,0.78
101.25,-0.63,-1.37,-0.63,-1.36,1.36,1.28,1.24,0.73,0.74,0.74
102.27,-0.64,-1.33,-0.64,-1.33,1.34,1.25,1.22,0.70,0.70,0.69
103.29,-0.66,-1.30,-0.66,-1.30,1.31,1.22,1.20,0.65,0.65,0.64
104.32,-0.68,-1.27,-0.68,-1.28,1.28,1.19,1.18,0.60,0.60,0.59
105.37,-0.70,-1.26,-0.70,-1.26,1.24,1.16,1.17,0.54,0.54,0.56
106.42,-0.72,-1.23,-0.72,-1.23,1.21,1.14,1.15,0.49,0.48,0.51
107.48,-0.74,-1.20,-0.72,-1.18,1.17,1.11,1.13,0.43,0.45,0.46
108.56,-0.71,-1.12,-0.71,-1.12,1.13,1.08,1.12,0.42,0.42,0.41
109.64,-0.69,-1.05,-0.71,-1.07,1.09,1.06,1.10,0.40,0.38,0.36
110.74,-0.71,-1.04,-0.71,-1.03,1.05,1.03,1.08,0.34,0.34,0.33
111.85,-0.73,-1.02,-0.72,-1.01,1.02,1.01,1.07,0.29,0.29,0.29
112.97,-0.74,-0.99,-0.74,-0.99,0.98,0.98,1.05,0.24,0.24,0.25
114.10,-0.74,-0.95,-0.75,-0.96,0.95,0.96,1.04,0.21,0.20,0.21
115.24,-0.75,-0.93,-0.75,-0.93,0.92,0.94,1.02,0.17,0.18,0.18
116.39,-0.75,-0.90,-0.75,-0.90,0.90,0.92,1.01,0.15,0.15,0.15
117.55,-0.74,-0.87,-0.74,-0.87,0.87,0.89,0.99,0.13,0.13,0.13
118.73,-0.74,-0.84,-0.74,-0.84,0.85,0.87,0.98,0.11,0.11,0.10
119.92,-0.73,-0.82,-0.73,-0.82,0.82,0.85,0.96,0.09,0.09,0.09
121.12,-0.72,-0.79,-0.72,-0.79,0.79,0.83,0.95,0.07,0.07,0.07
122.33,-0.71,-0.77,-0.71,-0.77,0.77,0.81,0.93,0.06,0.05,0.06
123.55,-0.71,-0.75,-0.71,-0.75,0.74,0.79,0.91,0.03,0.04,0.04
124.79,-0.70,-0.73,-0.70,-0.73,0.72,0.77,0.90,0.02,0.02,0.03
126.03,-0.69,-0.70,-0.69,-0.71,0.70,0.75,0.88,0.01,0.01,0.01
127.29,-0.69,-0.69,-0.68,-0.68,0.68,0.73,0.86,-0.01,0.00,-0.00
128.57,-0.68,-0.67,-0.68,-0.66,0.67,0.71,0.84,-0.01,-0.00,-0.01
129.85,-0.67,-0.64,-0.68,-0.65,0.67,0.69,0.83,-0.00,-0.01,-0.03
131.15,-0.69,-0.65,-0.70,-0.66,0.67,0.67,0.81,-0.02,-0.03,-0.04
132.46,-0.74,-0.68,-0.72,-0.67,0.67,0.66,0.79,-0.07,-0.05,-0.06
133.79,-0.76,-0.69,-0.76,-0.68,0.68,0.64,0.77,-0.08,-0.08,-0.07
135.12,-0.77,-0.68,-0.79,-0.70,0.70,0.62,0.75,-0.07,-0.09,-0.09
136.48,-0.83,-0.73,-0.81,-0.71,0.72,0.60,0.73,-0.11,-0.09,-0.10
137.84,-0.85,-0.73,-0.85,-0.73,0.74,0.58,0.71,-0.11,-0.11,-0.12
139.22,-0.88,-0.74,-0.89,-0.75,0.75,0.57,0.69,-0.13,-0.14,-0.14
140.61,-0.93,-0.77,-0.92,-0.76,0.76,0.55,0.67,-0.17,-0.16,-0.16
142.02,-0.95,-0.77,-0.95,-0.77,0.74,0.53,0.65,-0.21,-0.20,-0.18
143.44,-0.95,-0.74,-0.96,-0.75,0.72,0.51,0.63,-0.23,-0.24,-0.21
144.87,-0.95,-0.72,-0.94,-0.71,0.68,0.50,0.61,-0.27,-0.26,-0.23
146.32,-0.90,-0.64,-0.90,-0.64,0.62,0.48,0.59,-0.28,-0.28,-0.26
147.78,-0.86,-0.56,-0.85,-0.56,0.56,0.46,0.57,-0.30,-0.29,-0.30
149.26,-0.79,-0.46,-0.80,-0.46,0.49,0.45,0.54,-0.30,-0.31,-0.33
150.75,-0.75,-0.37,-0.76,-0.39,0.41,0.43,0.52,-0.34,-0.35,-0.38
152.26,-0.75,-0.32,-0.75,-0.32,0.34,0.42,0.50,-0.41,-0.41,-0.43
153.78,-0.75,-0.27,-0.75,-0.26,0.27,0.40,0.48,-0.48,-0.48,-0.48
155.32,-0.75,-0.20,-0.75,-0.21,0.20,0.39,0.46,-0.55,-0.55,-0.55
156.88,-0.75,-0.15,-0.75,-0.15,0.14,0.37,0.44,-0.61,-0.61,-0.60
158.44,-0.75,-0.09,-0.75,-0.09,0.09,0.36,0.42,-0.66,-0.66,-0.66
160.03,-0.75,-0.04,-0.75,-0.04,0.04,0.34,0.40,-0.71,-0.71,-0.71
161.63,-0.75,0.00,-0.76,0.00,-0.01,0.33,0.38,-0.76,-0.77,-0.75
163.24,-0.75,0.05,-0.75,0.05,-0.06,0.32,0.35,-0.81,-0.81,-0.80
164.88,-0.75,0.08,-0.73,0.11,-0.10,0.30,0.33,-0.85,-0.83,-0.83
166.53,-0.69,0.17,-0.70,0.16,-0.15,0.29,0.31,-0.84,-0.85,-0.86
168.19,-0.66,0.22,-0.68,0.20,-0.18,0.28,0.29,-0.84,-0.87,-0.88
169.87,-0.67,0.22,-0.67,0.23,-0.22,0.26,0.27,-0.89,-0.89,-0.89
171.57,-0.68,0.22,-0.66,0.24,-0.25,0.25,0.25,-0.93,-0.91,-0.90
173.29,-0.62,0.27,-0.63,0.26,-0.28,0.24,0.23,-0.90,-0.91,-0.89
175.02,-0.59,0.29,-0.58,0.31,-0.31,0.23,0.21,-0.90,-0.88,-0.88
176.77,-0.51,0.36,-0.53,0.34,-0.33,0.21,0.19,-0.84,-0.86,-0.87
178.54,-0.49,0.36,-0.50,0.35,-0.35,0.20,0.17,-0.84,-0.85,-0.85
180.32,-0.48,0.35,-0.46,0.38,-0.38,0.19,0.15,-0.86,-0.83,-0.83
182.13,-0.42,0.39,-0.42,0.39,-0.41,0.18,0.13,-0.83,-0.83,-0.81
183.95,-0.37,0.42,-0.39,0.41,-0.44,0.17,0.11,-0.81,-0.82,-0.79
185.79,-0.36,0.42,-0.35,0.43,-0.45,0.16,0.09,-0.81,-0.81,-0.78
187.65,-0.34,0.44,-0.33,0.44,-0.46,0.15,0.07,-0.80,-0.79,-0.78
189.52,-0.33,0.44,-0.32,0.45,-0.44,0.14,0.06,-0.77,-0.76,-0.77
191.42,-0.32,0.45,-0.33,0.44,-0.40,0.13,0.04,-0.72,-0.73,-0.77
193.33,-0.36,0.40,-0.39,0.38,-0.32,0.12,0.02,-0.68,-0.71,-0.76
195.27,-0.51,0.26,-0.51,0.26,-0.21,0.11,-0.00,-0.72,-0.72,-0.77
197.22,-0.69,0.09,-0.67,0.10,-0.05,0.10,-0.02,-0.74,-0.72,-0.78
199.19,-0.87,-0.09,-0.86,-0.08,0.13,0.09,-0.04,-0.74,-0.74,-0.78
201.18,-1.05,-0.26,-1.09,-0.30,0.32,0.08,-0.06,-0.73,-0.76,-0.79
203.19,-1.33,-0.53,-1.33,-0.54,0.53,0.07,-0.08,-0.81,-0.81,-0.80
205.23,-1.60,-0.79,-1.58,-0.77,0.71,0.06,-0.09,-0.88,-0.86,-0.81
207.28,-1.79,-0.97,-1.77,-0.95,0.88,0.05,-0.11,-0.91,-0.90,-0.82
209.35,-1.89,-1.06,-1.89,-1.06,1.00,0.04,-0.13,-0.89,-0.89,-0.83
211.44,-1.95,-1.10,-1.96,-1.12,1.08,0.03,-0.15,-0.87,-0.88,-0.85
213.56,-1.99,-1.13,-1.99,-1.14,1.11,0.02,-0.16,-0.88,-0.88,-0.86
215.69,-2.01,-1.13,-2.00,-1.13,1.11,0.01,-0.18,-0.90,-0.89,-0.88
217.85,-1.97,-1.09,-1.97,-1.08,1.07,-0.00,-0.19,-0.90,-0.90,-0.88
220.03,-1.90,-1.00,-1.89,-0.99,1.01,-0.01,-0.21,-0.89,-0.88,-0.90
222.23,-1.80,-0.89,-1.81,-0.90,0.94,-0.02,-0.22,-0.86,-0.86,-0.91
224.45,-1.72,-0.80,-1.74,-0.82,0.87,-0.03,-0.24,-0.85,-0.87,-0.92
226.70,-1.68,-0.76,-1.68,-0.76,0.79,-0.04,-0.25,-0.89,-0.89,-0.92
228.96,-1.66,-0.73,-1.64,-0.71,0.71,-0.05,-0.26,-0.95,-0.93,-0.93
231.25,-1.58,-0.65,-1.59,-0.66,0.63,-0.06,-0.28,-0.95,-0.96,-0.93
233.57,-1.51,-0.58,-1.51,-0.58,0.55,-0.08,-0.29,-0.96,-0.96,-0.93
235.90,-1.44,-0.51,-1.42,-0.49,0.48,-0.09,-0.30,-0.96,-0.94,-0.93
238.26,-1.30,-0.37,-1.32,-0.40,0.39,-0.10,-0.31,-0.91,-0.93,-0.93
240.64,-1.22,-0.31,-1.22,-0.31,0.31,-0.11,-0.32,-0.91,-0.91,-0.91
243.05,-1.13,-0.22,-1.12,-0.22,0.22,-0.12,-0.32,-0.91,-0.90,-0.91
245.48,-1.04,-0.14,-1.03,-0.13,0.14,-0.14,-0.33,-0.90,-0.89,-0.90
247.93,-0.94,-0.04,-0.94,-0.04,0.06,-0.15,-0.34,-0.88,-0.88,-0.90
250.41,-0.86,0.03,-0.87,0.02,-0.01,-0.17,-0.34,-0.87,-0.88,-0.89
252.92,-0.81,0.08,-0.82,0.07,-0.07,-0.18,-0.34,-0.88,-0.89,-0.89
255.45,-0.80,0.09,-0.78,0.11,-0.13,-0.20,-0.35,-0.93,-0.91,-0.89
258.00,-0.73,0.17,-0.73,0.16,-0.18,-0.22,-0.35,-0.91,-0.91,-0.90
260.58,-0.68,0.22,-0.67,0.23,-0.23,-0.24,-0.35,-0.91,-0.90,-0.90
263.19,-0.61,0.30,-0.63,0.28,-0.27,-0.26,-0.35,-0.88,-0.90,-0.91
265.82,-0.58,0.33,-0.59,0.32,-0.31,-0.29,-0.35,-0.89,-0.91,-0.91
268.48,-0.59,0.32,-0.56,0.35,-0.35,-0.31,-0.35,-0.94,-0.92,-0.91
271.16,-0.52,0.40,-0.52,0.40,-0.40,-0.34,-0.35,-0.92,-0.92,-0.92
273.87,-0.47,0.45,-0.47,0.45,-0.45,-0.37,-0.34,-0.92,-0.92,-0.92
276.61,-0.40,0.53,-0.43,0.49,-0.50,-0.41,-0.34,-0.90,-0.94,-0.93
279.38,-0.41,0.52,-0.40,0.53,-0.55,-0.44,-0.34,-0.96,-0.95,-0.93
282.17,-0.38,0.54,-0.34,0.59,-0.60,-0.48,-0.33,-0.98,-0.94,-0.92
284.99,-0.24,0.68,-0.26,0.66,-0.66,-0.53,-0.32,-0.90,-0.92,-0.92
287.84,-0.15,0.77,-0.16,0.76,-0.71,-0.58,-0.32,-0.86,-0.87,-0.92
290.72,-0.10,0.81,-0.09,0.82,-0.78,-0.64,-0.31,-0.88,-0.87,-0.91
293.63,-0.02,0.88,-0.07,0.83,-0.84,-0.70,-0.31,-0.86,-0.92,-0.90
296.57,-0.07,0.83,-0.03,0.87,-0.91,-0.77,-0.30,-0.98,-0.94,-0.90
299.53,-0.02,0.88,0.04,0.93,-0.97,-0.85,-0.29,-0.99,-0.93,-0.90
302.53,0.18,1.07,0.14,1.03,-1.02,-0.94,-0.29,-0.85,-0.88,-0.89
305.55,0.26,1.15,0.25,1.14,-1.09,-1.04,-0.28,-0.83,-0.84,-0.89
308.61,0.34,1.24,0.30,1.20,-1.16,-1.14,-0.27,-0.82,-0.85,-0.90
311.69,0.30,1.20,0.32,1.22,-1.25,-1.26,-0.26,-0.95,-0.93,-0.90
314.81,0.34,1.25,0.38,1.29,-1.36,-1.38,-0.26,-1.02,-0.98,-0.91
317.96,0.47,1.38,0.47,1.39,-1.46,-1.50,-0.25,-0.99,-0.99,-0.91
321.14,0.64,1.57,0.60,1.52,-1.57,-1.62,-0.24,-0.93,-0.97,-0.93
324.35,0.72,1.65,0.74,1.67,-1.66,-1.74,-0.23,-0.94,-0.92,-0.93
327.59,0.82,1.76,0.85,1.79,-1.74,-1.84,-0.23,-0.92,-0.89,-0.94
330.87,0.97,1.92,0.93,1.88,-1.81,-1.91,-0.22,-0.84,-0.88,-0.95
334.18,0.95,1.91,0.94,1.90,-1.85,-1.96,-0.21,-0.90,-0.91,-0.96
337.52,0.90,1.87,0.89,1.86,-1.84,-1.96,-0.20,-0.94,-0.95,-0.97
340.90,0.76,1.74,0.83,1.81,-1.79,-1.93,-0.20,-1.03,-0.97,-0.98
344.30,0.76,1.75,0.74,1.73,-1.71,-1.84,-0.19,-0.95,-0.97,-0.99
347.75,0.68,1.69,0.62,1.63,-1.61,-1.73,-0.18,-0.93,-0.98,-1.01
351.23,0.44,1.46,0.46,1.48,-1.50,-1.58,-0.18,-1.06,-1.04,-1.02
354.74,0.26,1.29,0.25,1.29,-1.38,-1.42,-0.17,-1.12,-1.12,-1.03
358.28,0.05,1.09,0.10,1.14,-1.24,-1.24,-0.16,-1.19,-1.15,-1.04
361.87,-0.02,1.03,0.00,1.06,-1.10,-1.05,-0.16,-1.12,-1.10,-1.05
365.49,-0.05,1.03,-0.09,0.98,-0.94,-0.86,-0.15,-0.99,-1.03,-1.08
369.14,-0.22,0.87,-0.20,0.88,-0.76,-0.66,-0.15,-0.98,-0.96,-1.09
372.83,-0.47,0.63,-0.48,0.62,-0.57,-0.46,-0.14,-1.04,-1.04,-1.10
376.56,-0.84,0.27,-0.95,0.16,-0.36,-0.25,-0.13,-1.20,-1.31,-1.11
380.33,-1.53,-0.41,-1.49,-0.37,-0.13,-0.05,-0.13,-1.66,-1.62,-1.12
384.13,-2.18,-1.05,-2.05,-0.92,0.12,0.16,-0.12,-2.06,-1.93,-1.13
387.97,-2.49,-1.35,-2.59,-1.45,0.42,0.38,-0.12,-2.07,-2.17,-1.14
391.85,-2.97,-1.82,-3.02,-1.87,0.72,0.59,-0.11,-2.25,-2.30,-1.15
395.77,-3.40,-2.24,-3.32,-2.16,1.00,0.80,-0.11,-2.40,-2.32,-1.16
399.73,-3.53,-2.35,-3.47,-2.29,1.24,0.99,-0.11,-2.29,-2.23,-1.18
403.72,-3.39,-2.20,-3.40,-2.21,1.43,1.16,-0.10,-1.96,-1.97,-1.19
407.76,-3.18,-1.97,-3.24,-2.03,1.56,1.28,-0.10,-1.62,-1.67,-1.21
411.84,-3.06,-1.84,-3.08,-1.86,1.63,1.34,-0.10,-1.43,-1.45,-1.22
415.96,-2.97,-1.74,-2.96,-1.73,1.64,1.35,-0.09,-1.33,-1.32,-1.23
420.12,-2.85,-1.62,-2.83,-1.60,1.59,1.31,-0.09,-1.26,-1.24,-1.23
424.32,-2.68,-1.44,-2.67,-1.44,1.49,1.22,-0.09,-1.19,-1.18,-1.24
428.56,-2.48,-1.24,-2.48,-1.24,1.34,1.10,-0.08,-1.14,-1.14,-1.24
432.85,-2.29,-1.06,-2.30,-1.07,1.15,0.97,-0.08,-1.14,-1.15,-1.23
437.18,-2.12,-0.90,-2.15,-0.93,0.94,0.83,-0.08,-1.18,-1.22,-1.22
441.55,-2.03,-0.83,-2.01,-0.81,0.73,0.70,-0.08,-1.30,-1.28,-1.20
445.96,-1.86,-0.68,-1.83,-0.65,0.57,0.58,-0.08,-1.29,-1.26,-1.18
450.42,-1.61,-0.46,-1.58,-0.43,0.42,0.47,-0.08,-1.19,-1.16,-1.15
454.93,-1.31,-0.20,-1.34,-0.23,0.31,0.37,-0.08,-1.00,-1.04,-1.11
459.48,-1.09,-0.02,-1.17,-0.09,0.22,0.28,-0.08,-0.87,-0.95,-1.08
464.07,-1.16,-0.11,-1.09,-0.05,0.16,0.20,-0.08,-1.00,-0.93,-1.05
468.71,-1.07,-0.06,-1.09,-0.09,0.12,0.14,-0.08,-0.95,-0.97,-1.01
473.40,-1.11,-0.14,-1.12,-0.15,0.11,0.08,-0.09,-1.00,-1.01,-0.97
478.13,-1.11,-0.18,-1.10,-0.17,0.10,0.03,-0.09,-1.01,-1.00,-0.93
482.91,-1.09,-0.19,-1.07,-0.18,0.11,-0.02,-0.09,-0.99,-0.97,-0.90
