frequency,raw,error,smoothed,error_smoothed,equalization,parametric_eq,fixed_band_eq,equalized_raw,equalized_smoothed,target
20.00,-2.64,-8.82,-2.64,-8.81,6.00,5.61,2.69,3.36,3.36,6.18
20.20,-2.60,-8.76,-2.59,-8.76,6.00,5.63,2.77,3.40,3.41,6.16
20.40,-2.55,-8.70,-2.55,-8.70,6.00,5.66,2.84,3.45,3.45,6.15
20.61,-2.51,-8.66,-2.51,-8.65,6.00,5.69,2.92,3.49,3.49,6.15
20.81,-2.47,-8.60,-2.47,-8.60,6.00,5.72,3.01,3.53,3.53,6.13
21.02,-2.43,-8.55,-2.43,-8.55,6.00,5.75,3.09,3.57,3.57,6.12
21.23,-2.39,-8.49,-2.38,-8.50,6.00,5.78,3.18,3.61,3.62,6.11
21.44,-2.34,-8.45,-2.34,-8.45,6.00,5.80,3.27,3.66,3.66,6.12
21.66,-2.30,-8.40,-2.30,-8.40,6.00,5.83,3.36,3.70,3.70,6.11
21.87,-2.26,-8.35,-2.25,-8.35,6.00,5.85,3.46,3.74,3.75,6.10
22.09,-2.22,-8.30,-2.22,-8.31,6.00,5.88,3.56,3.78,3.78,6.09
22.31,-2.18,-8.26,-2.18,-8.26,6.00,5.90,3.66,3.82,3.82,6.09
22.54,-2.14,-8.21,-2.13,-8.22,6.00,5.92,3.76,3.86,3.87,6.08
22.76,-2.09,-8.17,-2.09,-8.17,6.00,5.95,3.87,3.91,3.91,6.09
22.99,-2.05,-8.12,-2.05,-8.12,6.00,5.97,3.98,3.95,3.95,6.08
23.22,-2.01,-8.07,-2.01,-8.07,6.00,5.99,4.09,3.99,3.99,6.06
23.45,-1.97,-8.03,-1.97,-8.03,6.00,6.01,4.20,4.03,4.03,6.06
23.69,-1.93,-7.99,-1.93,-7.99,6.00,6.03,4.31,4.07,4.07,6.06
23.92,-1.89,-7.95,-1.89,-7.95,6.00,6.05,4.43,4.11,4.11,6.06
24.16,-1.85,-7.91,-1.85,-7.91,6.00,6.07,4.55,4.15,4.15,6.06
24.40,-1.81,-7.88,-1.81,-7.87,6.00,6.08,4.67,4.19,4.19,6.07
24.65,-1.77,-7.84,-1.77,-7.83,6.00,6.10,4.80,4.23,4.23,6.07
24.89,-1.73,-7.79,-1.73,-7.79,6.00,6.12,4.92,4.27,4.27,6.06
25.14,-1.69,-7.73,-1.69,-7.74,6.00,6.13,5.05,4.31,4.31,6.05
25.39,-1.65,-7.69,-1.64,-7.69,6.00,6.15,5.17,4.35,4.36,6.05
25.65,-1.61,-7.64,-1.61,-7.65,6.00,6.16,5.30,4.39,4.39,6.04
25.91,-1.57,-7.60,-1.57,-7.61,6.00,6.17,5.43,4.43,4.43,6.04
26.16,-1.54,-7.58,-1.53,-7.57,6.00,6.19,5.55,4.46,4.47,6.05
26.43,-1.50,-7.53,-1.50,-7.53,6.00,6.20,5.68,4.50,4.50,6.04
26.69,-1.46,-7.49,-1.46,-7.50,6.00,6.21,5.81,4.54,4.54,6.03
26.96,-1.43,-7.46,-1.42,-7.45,6.00,6.22,5.93,4.57,4.58,6.03
27.23,-1.39,-7.41,-1.39,-7.41,6.00,6.23,6.05,4.61,4.61,6.02
27.50,-1.35,-7.37,-1.35,-7.37,6.00,6.24,6.17,4.65,4.65,6.02
27.77,-1.32,-7.35,-1.31,-7.34,6.00,6.24,6.28,4.68,4.69,6.03
28.05,-1.28,-7.30,-1.28,-7.31,6.00,6.25,6.39,4.72,4.72,6.03
28.33,-1.25,-7.27,-1.24,-7.27,6.00,6.26,6.50,4.75,4.76,6.03
28.62,-1.21,-7.23,-1.21,-7.23,6.00,6.26,6.60,4.79,4.79,6.03
28.90,-1.17,-7.20,-1.17,-7.20,6.00,6.26,6.69,4.83,4.83,6.03
29.19,-1.14,-7.17,-1.13,-7.16,6.00,6.27,6.77,4.86,4.87,6.03
29.48,-1.11,-7.14,-1.10,-7.14,6.00,6.27,6.85,4.89,4.90,6.03
29.78,-1.07,-7.10,-1.07,-7.11,6.00,6.27,6.92,4.93,4.93,6.03
30.08,-1.05,-7.09,-1.05,-7.08,6.00,6.27,6.98,4.95,4.95,6.05
30.38,-1.03,-7.06,-1.02,-7.06,6.00,6.27,7.03,4.97,4.98,6.04
30.68,-1.01,-7.04,-1.01,-7.04,6.00,6.27,7.07,4.99,4.99,6.03
30.99,-0.99,-7.02,-0.99,-7.02,6.00,6.27,7.10,5.01,5.01,6.03
31.30,-0.97,-7.00,-0.96,-6.99,6.00,6.27,7.12,5.03,5.04,6.03
31.61,-0.94,-6.97,-0.94,-6.97,6.00,6.26,7.13,5.06,5.06,6.03
31.93,-0.92,-6.93,-0.91,-6.93,6.00,6.26,7.12,5.08,5.09,6.02
32.24,-0.89,-6.90,-0.89,-6.90,6.00,6.25,7.11,5.11,5.11,6.01
32.57,-0.86,-6.86,-0.86,-6.87,6.00,6.25,7.09,5.14,5.14,6.00
32.89,-0.84,-6.84,-0.84,-6.84,6.00,6.24,7.06,5.16,5.16,6.00
33.22,-0.82,-6.81,-0.82,-6.81,6.00,6.23,7.03,5.18,5.18,6.00
33.55,-0.80,-6.79,-0.80,-6.79,6.00,6.23,6.98,5.20,5.20,6.00
33.89,-0.78,-6.76,-0.77,-6.76,6.00,6.22,6.93,5.22,5.23,5.98
34.23,-0.75,-6.72,-0.75,-6.72,6.00,6.21,6.87,5.25,5.25,5.97
34.57,-0.73,-6.69,-0.73,-6.69,6.00,6.20,6.80,5.27,5.27,5.97
34.92,-0.71,-6.66,-0.70,-6.66,6.00,6.18,6.73,5.29,5.30,5.95
35.27,-0.68,-6.64,-0.68,-6.63,6.00,6.17,6.65,5.32,5.32,5.96
35.62,-0.66,-6.59,-0.66,-6.59,6.00,6.16,6.58,5.34,5.34,5.93
35.97,-0.64,-6.56,-0.64,-6.56,6.00,6.15,6.50,5.36,5.36,5.93
36.33,-0.62,-6.53,-0.62,-6.53,6.00,6.13,6.41,5.38,5.38,5.91
36.70,-0.60,-6.49,-0.60,-6.49,6.00,6.12,6.33,5.40,5.40,5.90
37.06,-0.58,-6.46,-0.58,-6.46,6.00,6.10,6.24,5.42,5.42,5.88
37.43,-0.56,-6.43,-0.56,-6.43,6.00,6.08,6.16,5.44,5.44,5.87
37.81,-0.55,-6.40,-0.54,-6.40,6.00,6.06,6.07,5.45,5.46,5.86
38.19,-0.53,-6.36,-0.53,-6.37,6.00,6.05,5.99,5.47,5.47,5.83
38.57,-0.52,-6.33,-0.52,-6.33,6.00,6.03,5.90,5.48,5.48,5.82
38.95,-0.51,-6.30,-0.51,-6.30,6.00,6.01,5.82,5.49,5.49,5.79
39.34,-0.50,-6.27,-0.50,-6.27,6.00,5.99,5.74,5.50,5.50,5.77
39.74,-0.49,-6.24,-0.49,-6.24,6.00,5.97,5.66,5.51,5.51,5.75
40.14,-0.48,-6.21,-0.48,-6.21,6.00,5.94,5.59,5.52,5.52,5.73
40.54,-0.47,-6.18,-0.47,-6.18,6.00,5.92,5.52,5.54,5.54,5.71
40.94,-0.46,-6.14,-0.46,-6.15,6.00,5.90,5.45,5.55,5.55,5.69
41.35,-0.45,-6.12,-0.45,-6.12,6.01,5.88,5.38,5.56,5.56,5.67
41.76,-0.44,-6.09,-0.44,-6.10,6.01,5.85,5.32,5.57,5.57,5.66
42.18,-0.44,-6.08,-0.43,-6.07,6.00,5.83,5.26,5.57,5.57,5.64
42.60,-0.43,-6.04,-0.43,-6.04,5.99,5.80,5.20,5.57,5.57,5.61
43.03,-0.42,-6.00,-0.42,-6.01,5.98,5.77,5.15,5.56,5.56,5.59
43.46,-0.41,-5.98,-0.40,-5.97,5.96,5.75,5.10,5.56,5.56,5.57
43.90,-0.39,-5.93,-0.39,-5.94,5.94,5.72,5.06,5.55,5.55,5.54
44.33,-0.38,-5.90,-0.38,-5.90,5.90,5.69,5.01,5.53,5.53,5.53
44.78,-0.37,-5.87,-0.36,-5.87,5.87,5.66,4.98,5.50,5.51,5.50
45.23,-0.35,-5.83,-0.35,-5.83,5.83,5.63,4.94,5.48,5.48,5.48
45.68,-0.34,-5.78,-0.34,-5.78,5.79,5.61,4.91,5.45,5.45,5.44
46.13,-0.33,-5.73,-0.33,-5.74,5.74,5.58,4.89,5.41,5.42,5.40
46.60,-0.32,-5.69,-0.32,-5.69,5.70,5.55,4.86,5.38,5.38,5.38
47.06,-0.31,-5.65,-0.31,-5.65,5.65,5.51,4.84,5.35,5.35,5.35
47.53,-0.30,-5.61,-0.30,-5.61,5.60,5.48,4.83,5.31,5.31,5.32
48.01,-0.29,-5.55,-0.29,-5.56,5.55,5.45,4.81,5.27,5.27,5.27
48.49,-0.28,-5.51,-0.27,-5.51,5.50,5.42,4.80,5.23,5.23,5.24
48.97,-0.26,-5.45,-0.26,-5.45,5.45,5.39,4.80,5.20,5.20,5.20
49.46,-0.24,-5.40,-0.24,-5.40,5.40,5.35,4.79,5.17,5.16,5.17
49.96,-0.22,-5.33,-0.22,-5.34,5.35,5.32,4.79,5.13,5.13,5.11
50.46,-0.21,-5.30,-0.20,-5.29,5.30,5.29,4.79,5.09,5.10,5.09
50.96,-0.19,-5.25,-0.19,-5.25,5.25,5.25,4.79,5.06,5.06,5.06
51.47,-0.18,-5.20,-0.17,-5.20,5.20,5.22,4.80,5.02,5.03,5.03
51.99,-0.16,-5.15,-0.16,-5.15,5.15,5.18,4.80,4.99,4.99,4.99
52.51,-0.14,-5.10,-0.14,-5.10,5.10,5.15,4.81,4.96,4.96,4.96
53.03,-0.13,-5.06,-0.12,-5.05,5.05,5.11,4.82,4.92,4.93,4.94
53.56,-0.11,-5.00,-0.11,-5.01,5.00,5.08,4.83,4.89,4.89,4.89
54.10,-0.10,-4.95,-0.10,-4.96,4.95,5.04,4.84,4.86,4.86,4.86
54.64,-0.09,-4.91,-0.08,-4.90,4.90,5.00,4.85,4.82,4.82,4.82
55.18,-0.08,-4.85,-0.08,-4.86,4.86,4.97,4.86,4.78,4.78,4.78
55.74,-0.07,-4.81,-0.07,-4.82,4.82,4.93,4.87,4.75,4.75,4.74
56.29,-0.07,-4.79,-0.06,-4.78,4.78,4.89,4.88,4.72,4.72,4.72
56.86,-0.06,-4.75,-0.06,-4.75,4.75,4.86,4.88,4.70,4.69,4.69
57.42,-0.06,-4.71,-0.06,-4.72,4.72,4.82,4.89,4.67,4.67,4.66
58.00,-0.06,-4.68,-0.06,-4.69,4.70,4.78,4.89,4.64,4.64,4.63
58.58,-0.07,-4.68,-0.06,-4.67,4.67,4.74,4.89,4.61,4.61,4.62
59.16,-0.07,-4.65,-0.07,-4.66,4.64,4.70,4.88,4.58,4.58,4.59
59.76,-0.08,-4.63,-0.07,-4.63,4.61,4.67,4.88,4.54,4.54,4.56
60.35,-0.08,-4.59,-0.08,-4.59,4.58,4.63,4.87,4.50,4.50,4.51
60.96,-0.08,-4.55,-0.08,-4.55,4.54,4.59,4.85,4.47,4.46,4.47
61.57,-0.08,-4.50,-0.08,-4.50,4.50,4.55,4.83,4.42,4.42,4.42
62.18,-0.08,-4.45,-0.08,-4.45,4.46,4.51,4.81,4.38,4.38,4.38
62.80,-0.08,-4.41,-0.08,-4.41,4.41,4.47,4.79,4.34,4.34,4.33
63.43,-0.08,-4.36,-0.08,-4.37,4.37,4.43,4.76,4.30,4.30,4.29
64.07,-0.08,-4.33,-0.08,-4.33,4.33,4.39,4.72,4.25,4.25,4.25
64.71,-0.08,-4.29,-0.08,-4.29,4.29,4.36,4.68,4.21,4.21,4.21
65.35,-0.08,-4.25,-0.08,-4.25,4.25,4.32,4.64,4.17,4.17,4.18
66.01,-0.08,-4.21,-0.08,-4.22,4.21,4.28,4.59,4.14,4.14,4.14
66.67,-0.08,-4.19,-0.08,-4.18,4.18,4.24,4.54,4.10,4.10,4.11
67.33,-0.08,-4.14,-0.08,-4.14,4.14,4.20,4.49,4.06,4.06,4.06
68.01,-0.08,-4.10,-0.08,-4.10,4.10,4.16,4.43,4.02,4.02,4.02
68.69,-0.08,-4.05,-0.08,-4.06,4.06,4.12,4.38,3.99,3.99,3.98
69.37,-0.08,-4.02,-0.08,-4.02,4.02,4.08,4.32,3.95,3.95,3.95
70.07,-0.08,-3.99,-0.08,-3.99,3.98,4.04,4.25,3.90,3.90,3.91
70.77,-0.08,-3.95,-0.08,-3.94,3.94,4.00,4.19,3.86,3.86,3.87
71.48,-0.08,-3.90,-0.08,-3.90,3.90,3.96,4.12,3.82,3.82,3.82
72.19,-0.08,-3.86,-0.08,-3.86,3.86,3.92,4.05,3.78,3.78,3.78
72.91,-0.08,-3.82,-0.08,-3.81,3.82,3.88,3.99,3.74,3.74,3.74
73.64,-0.08,-3.77,-0.08,-3.77,3.78,3.84,3.92,3.70,3.70,3.70
74.38,-0.08,-3.73,-0.08,-3.74,3.74,3.81,3.85,3.66,3.66,3.66
75.12,-0.08,-3.70,-0.08,-3.70,3.71,3.77,3.78,3.63,3.63,3.63
75.87,-0.08,-3.67,-0.08,-3.67,3.67,3.73,3.71,3.60,3.60,3.60
76.63,-0.08,-3.64,-0.08,-3.64,3.64,3.69,3.65,3.57,3.57,3.57
77.40,-0.08,-3.61,-0.08,-3.61,3.61,3.65,3.58,3.54,3.54,3.54
78.17,-0.08,-3.58,-0.08,-3.58,3.58,3.61,3.51,3.51,3.51,3.50
78.95,-0.08,-3.56,-0.08,-3.56,3.56,3.57,3.45,3.48,3.48,3.48
79.74,-0.08,-3.53,-0.08,-3.53,3.53,3.53,3.39,3.45,3.45,3.46
80.54,-0.08,-3.50,-0.08,-3.50,3.50,3.50,3.33,3.42,3.42,3.42
81.35,-0.08,-3.47,-0.08,-3.47,3.47,3.46,3.27,3.39,3.39,3.40
82.16,-0.08,-3.45,-0.08,-3.44,3.44,3.42,3.21,3.36,3.36,3.37
82.98,-0.08,-3.41,-0.08,-3.41,3.41,3.38,3.15,3.33,3.33,3.33
83.81,-0.08,-3.37,-0.08,-3.37,3.37,3.35,3.10,3.30,3.30,3.29
84.65,-0.08,-3.34,-0.08,-3.34,3.34,3.31,3.05,3.26,3.26,3.27
85.50,-0.08,-3.30,-0.08,-3.31,3.31,3.27,3.00,3.23,3.23,3.23
86.35,-0.08,-3.27,-0.08,-3.27,3.27,3.23,2.95,3.19,3.19,3.20
87.22,-0.08,-3.24,-0.08,-3.24,3.24,3.20,2.91,3.16,3.16,3.16
88.09,-0.08,-3.20,-0.08,-3.20,3.20,3.16,2.86,3.12,3.12,3.12
88.97,-0.08,-3.17,-0.08,-3.16,3.17,3.12,2.82,3.09,3.09,3.09
89.86,-0.08,-3.12,-0.08,-3.13,3.13,3.09,2.78,3.05,3.05,3.05
90.76,-0.08,-3.09,-0.08,-3.09,3.09,3.05,2.75,3.02,3.02,3.01
91.66,-0.08,-3.06,-0.08,-3.06,3.06,3.01,2.71,2.98,2.98,2.98
92.58,-0.08,-3.02,-0.08,-3.02,3.02,2.98,2.68,2.94,2.94,2.95
93.51,-0.08,-2.99,-0.08,-2.99,2.98,2.94,2.65,2.91,2.91,2.91
94.44,-0.08,-2.95,-0.08,-2.95,2.94,2.91,2.62,2.87,2.87,2.88
95.39,-0.08,-2.91,-0.08,-2.91,2.90,2.87,2.59,2.83,2.83,2.83
96.34,-0.08,-2.86,-0.08,-2.86,2.86,2.84,2.57,2.79,2.79,2.78
97.30,-0.08,-2.82,-0.08,-2.82,2.82,2.80,2.55,2.75,2.75,2.75
98.28,-0.08,-2.79,-0.08,-2.78,2.79,2.77,2.52,2.71,2.71,2.71
99.26,-0.08,-2.74,-0.08,-2.74,2.75,2.73,2.50,2.67,2.67,2.66
100.25,-0.08,-2.70,-0.08,-2.71,2.71,2.70,2.49,2.64,2.64,2.63
101.25,-0.08,-2.68,-0.08,-2.68,2.68,2.66,2.47,2.60,2.60,2.61
102.27,-0.08,-2.65,-0.08,-2.65,2.65,2.63,2.45,2.57,2.57,2.57
103.29,-0.08,-2.61,-0.08,-2.62,2.61,2.60,2.44,2.54,2.54,2.53
104.32,-0.08,-2.59,-0.08,-2.59,2.58,2.56,2.42,2.51,2.51,2.52
105.37,-0.08,-2.55,-0.08,-2.56,2.55,2.53,2.41,2.48,2.48,2.48
106.42,-0.08,-2.53,-0.08,-2.52,2.52,2.50,2.40,2.45,2.45,2.45
107.48,-0.08,-2.49,-0.08,-2.49,2.49,2.46,2.39,2.42,2.42,2.41
108.56,-0.08,-2.46,-0.08,-2.46,2.46,2.43,2.38,2.38,2.38,2.38
109.64,-0.08,-2.42,-0.08,-2.43,2.43,2.40,2.36,2.35,2.35,2.35
110.74,-0.08,-2.40,-0.08,-2.39,2.39,2.37,2.35,2.32,2.32,2.32
111.85,-0.08,-2.36,-0.08,-2.36,2.36,2.34,2.34,2.28,2.28,2.28
112.97,-0.08,-2.32,-0.08,-2.33,2.32,2.30,2.33,2.24,2.24,2.24
114.10,-0.08,-2.29,-0.08,-2.29,2.28,2.27,2.32,2.21,2.21,2.22
115.24,-0.08,-2.25,-0.08,-2.25,2.25,2.24,2.31,2.17,2.17,2.17
116.39,-0.08,-2.20,-0.08,-2.21,2.21,2.21,2.29,2.14,2.14,2.13
117.55,-0.08,-2.18,-0.08,-2.17,2.18,2.18,2.28,2.10,2.10,2.10
118.73,-0.08,-2.13,-0.08,-2.14,2.14,2.15,2.26,2.07,2.07,2.06
119.92,-0.08,-2.11,-0.08,-2.11,2.11,2.12,2.25,2.03,2.03,2.03
121.12,-0.08,-2.08,-0.08,-2.08,2.08,2.09,2.23,2.00,2.00,2.01
122.33,-0.08,-2.05,-0.08,-2.05,2.05,2.06,2.21,1.97,1.97,1.97
123.55,-0.08,-2.02,-0.08,-2.02,2.02,2.03,2.19,1.94,1.94,1.94
124.79,-0.08,-1.99,-0.08,-1.99,1.99,2.00,2.17,1.91,1.91,1.92
126.03,-0.08,-1.95,-0.08,-1.96,1.95,1.97,2.14,1.88,1.88,1.88
127.29,-0.08,-1.92,-0.08,-1.92,1.92,1.94,2.12,1.84,1.84,1.85
128.57,-0.08,-1.89,-0.08,-1.89,1.88,1.91,2.09,1.81,1.81,1.81
129.85,-0.08,-1.85,-0.08,-1.85,1.85,1.88,2.06,1.77,1.77,1.77
131.15,-0.08,-1.81,-0.08,-1.81,1.81,1.85,2.03,1.74,1.74,1.74
132.46,-0.08,-1.77,-0.08,-1.77,1.78,1.82,2.00,1.70,1.70,1.70
133.79,-0.08,-1.74,-0.08,-1.74,1.74,1.79,1.97,1.67,1.67,1.66
135.12,-0.08,-1.70,-0.08,-1.71,1.71,1.76,1.94,1.63,1.63,1.62
136.48,-0.08,-1.68,-0.08,-1.68,1.67,1.73,1.90,1.60,1.60,1.61
137.84,-0.08,-1.65,-0.08,-1.64,1.64,1.70,1.86,1.56,1.56,1.57
139.22,-0.08,-1.60,-0.08,-1.61,1.61,1.67,1.83,1.53,1.53,1.53
140.61,-0.08,-1.58,-0.08,-1.58,1.58,1.65,1.79,1.50,1.50,1.50
142.02,-0.08,-1.55,-0.08,-1.55,1.55,1.62,1.75,1.48,1.48,1.47
143.44,-0.08,-1.52,-0.08,-1.52,1.53,1.59,1.71,1.45,1.45,1.44
144.87,-0.08,-1.51,-0.08,-1.50,1.50,1.56,1.67,1.42,1.42,1.43
146.32,-0.08,-1.48,-0.08,-1.48,1.47,1.53,1.63,1.40,1.40,1.40
147.78,-0.08,-1.46,-0.08,-1.45,1.45,1.50,1.59,1.37,1.37,1.38
149.26,-0.08,-1.43,-0.08,-1.43,1.43,1.47,1.55,1.35,1.35,1.35
150.75,-0.08,-1.40,-0.08,-1.40,1.41,1.44,1.51,1.33,1.33,1.32
152.26,-0.08,-1.38,-0.08,-1.38,1.38,1.42,1.46,1.31,1.31,1.31
153.78,-0.08,-1.36,-0.08,-1.36,1.36,1.39,1.42,1.28,1.28,1.28
155.32,-0.08,-1.33,-0.08,-1.33,1.33,1.36,1.38,1.26,1.26,1.26
156.88,-0.08,-1.31,-0.08,-1.31,1.30,1.33,1.34,1.23,1.23,1.23
158.44,-0.08,-1.28,-0.08,-1.28,1.28,1.30,1.30,1.20,1.20,1.20
160.03,-0.08,-1.25,-0.08,-1.25,1.25,1.27,1.26,1.17,1.17,1.18
161.63,-0.08,-1.22,-0.08,-1.22,1.22,1.24,1.22,1.14,1.14,1.15
163.24,-0.08,-1.18,-0.08,-1.18,1.19,1.21,1.18,1.11,1.11,1.10
164.88,-0.08,-1.15,-0.08,-1.15,1.15,1.18,1.15,1.08,1.08,1.07
166.53,-0.08,-1.12,-0.08,-1.12,1.12,1.15,1.11,1.05,1.05,1.05
168.19,-0.08,-1.09,-0.08,-1.09,1.09,1.12,1.07,1.01,1.01,1.02
169.87,-0.08,-1.06,-0.08,-1.06,1.06,1.09,1.03,0.98,0.98,0.98
171.57,-0.08,-1.03,-0.08,-1.03,1.03,1.06,1.00,0.95,0.95,0.95
173.29,-0.08,-0.99,-0.08,-0.99,0.99,1.03,0.96,0.92,0.92,0.92
175.02,-0.08,-0.96,-0.08,-0.96,0.96,1.00,0.93,0.88,0.88,0.88
176.77,-0.08,-0.92,-0.08,-0.93,0.93,0.97,0.89,0.85,0.85,0.85
178.54,-0.08,-0.90,-0.08,-0.89,0.89,0.94,0.86,0.82,0.82,0.82
180.32,-0.08,-0.86,-0.08,-0.86,0.86,0.91,0.83,0.78,0.78,0.78
182.13,-0.08,-0.82,-0.08,-0.82,0.82,0.88,0.79,0.75,0.75,0.75
183.95,-0.08,-0.79,-0.08,-0.79,0.79,0.85,0.76,0.71,0.71,0.72
185.79,-0.08,-0.75,-0.08,-0.75,0.75,0.81,0.73,0.68,0.68,0.67
187.65,-0.08,-0.72,-0.08,-0.72,0.72,0.78,0.70,0.64,0.64,0.64
189.52,-0.08,-0.68,-0.08,-0.68,0.68,0.75,0.67,0.61,0.61,0.60
191.42,-0.08,-0.65,-0.08,-0.65,0.65,0.72,0.64,0.57,0.57,0.57
193.33,-0.08,-0.62,-0.08,-0.62,0.62,0.69,0.61,0.54,0.54,0.55
195.27,-0.08,-0.58,-0.08,-0.59,0.59,0.66,0.58,0.51,0.51,0.51
197.22,-0.08,-0.55,-0.08,-0.55,0.56,0.63,0.56,0.48,0.48,0.47
199.19,-0.08,-0.53,-0.08,-0.52,0.53,0.60,0.53,0.45,0.45,0.45
201.18,-0.08,-0.49,-0.08,-0.50,0.50,0.57,0.50,0.43,0.43,0.42
203.19,-0.08,-0.48,-0.08,-0.48,0.48,0.54,0.48,0.40,0.40,0.40
205.23,-0.08,-0.45,-0.08,-0.45,0.45,0.51,0.45,0.38,0.38,0.38
207.28,-0.08,-0.44,-0.08,-0.43,0.43,0.48,0.43,0.35,0.35,0.36
209.35,-0.08,-0.40,-0.08,-0.41,0.41,0.45,0.40,0.33,0.33,0.33
211.44,-0.08,-0.38,-0.08,-0.39,0.39,0.42,0.38,0.31,0.31,0.30
213.56,-0.08,-0.37,-0.08,-0.36,0.36,0.39,0.36,0.29,0.29,0.29
215.69,-0.08,-0.34,-0.08,-0.34,0.34,0.37,0.34,0.27,0.27,0.27
217.85,-0.08,-0.32,-0.08,-0.32,0.32,0.34,0.32,0.24,0.24,0.25
220.03,-0.08,-0.30,-0.08,-0.30,0.30,0.31,0.30,0.22,0.22,0.22
222.23,-0.08,-0.28,-0.08,-0.28,0.28,0.29,0.28,0.21,0.21,0.20
224.45,-0.08,-0.26,-0.08,-0.26,0.26,0.27,0.26,0.19,0.19,0.18
226.70,-0.08,-0.25,-0.08,-0.25,0.25,0.24,0.24,0.17,0.17,0.17
228.96,-0.08,-0.24,-0.08,-0.23,0.23,0.22,0.23,0.15,0.15,0.16
231.25,-0.08,-0.22,-0.08,-0.22,0.22,0.20,0.21,0.14,0.14,0.14
233.57,-0.08,-0.21,-0.08,-0.20,0.21,0.19,0.20,0.13,0.13,0.13
235.90,-0.08,-0.19,-0.08,-0.19,0.20,0.17,0.18,0.12,0.12,0.11
238.26,-0.08,-0.18,-0.08,-0.19,0.19,0.15,0.17,0.11,0.11,0.10
240.64,-0.08,-0.19,-0.08,-0.18,0.18,0.14,0.16,0.10,0.10,0.11
243.05,-0.08,-0.18,-0.08,-0.18,0.17,0.13,0.15,0.10,0.10,0.11
245.48,-0.08,-0.16,-0.08,-0.17,0.17,0.12,0.14,0.09,0.09,0.09
247.93,-0.08,-0.16,-0.08,-0.16,0.17,0.11,0.14,0.09,0.09,0.08
250.41,-0.08,-0.17,-0.08,-0.16,0.17,0.10,0.13,0.09,0.09,0.09
252.92,-0.08,-0.17,-0.08,-0.17,0.17,0.09,0.13,0.09,0.09,0.10
255.45,-0.08,-0.17,-0.08,-0.17,0.16,0.09,0.12,0.09,0.09,0.09
258.00,-0.08,-0.17,-0.08,-0.17,0.16,0.09,0.12,0.09,0.09,0.09
260.58,-0.08,-0.16,-0.08,-0.16,0.16,0.08,0.12,0.09,0.09,0.09
263.19,-0.08,-0.17,-0.08,-0.16,0.16,0.08,0.12,0.09,0.09,0.09
265.82,-0.08,-0.16,-0.08,-0.16,0.16,0.09,0.12,0.09,0.09,0.08
268.48,-0.08,-0.16,-0.08,-0.16,0.16,0.09,0.13,0.08,0.08,0.09
271.16,-0.08,-0.16,-0.08,-0.16,0.16,0.09,0.13,0.08,0.08,0.08
273.87,-0.08,-0.16,-0.08,-0.16,0.16,0.10,0.13,0.08,0.08,0.09
276.61,-0.08,-0.16,-0.08,-0.15,0.16,0.10,0.14,0.08,0.08,0.08
279.38,-0.08,-0.14,-0.08,-0.15,0.16,0.11,0.15,0.08,0.08,0.07
282.17,-0.08,-0.16,-0.08,-0.16,0.16,0.12,0.15,0.08,0.08,0.08
284.99,-0.08,-0.16,-0.08,-0.16,0.16,0.13,0.16,0.08,0.08,0.09
287.84,-0.08,-0.17,-0.08,-0.16,0.16,0.14,0.17,0.08,0.08,0.09
290.72,-0.08,-0.16,-0.08,-0.16,0.16,0.15,0.18,0.09,0.09,0.08
293.63,-0.08,-0.16,-0.08,-0.17,0.17,0.16,0.19,0.09,0.09,0.09
296.57,-0.08,-0.18,-0.08,-0.17,0.17,0.17,0.20,0.10,0.10,0.10
299.53,-0.08,-0.17,-0.08,-0.18,0.18,0.19,0.21,0.10,0.10,0.10
302.53,-0.08,-0.18,-0.08,-0.18,0.18,0.20,0.22,0.11,0.11,0.10
305.55,-0.08,-0.19,-0.08,-0.19,0.19,0.21,0.24,0.11,0.11,0.11
308.61,-0.08,-0.19,-0.08,-0.19,0.19,0.22,0.25,0.12,0.12,0.12
311.69,-0.08,-0.20,-0.08,-0.20,0.20,0.24,0.26,0.12,0.12,0.12
314.81,-0.08,-0.21,-0.08,-0.21,0.21,0.25,0.28,0.13,0.13,0.13
317.96,-0.08,-0.21,-0.08,-0.21,0.21,0.27,0.29,0.14,0.14,0.14
321.14,-0.08,-0.22,-0.08,-0.22,0.22,0.28,0.31,0.15,0.15,0.15
324.35,-0.08,-0.22,-0.08,-0.23,0.23,0.29,0.32,0.15,0.15,0.14
327.59,-0.08,-0.25,-0.08,-0.24,0.24,0.31,0.34,0.16,0.16,0.17
330.87,-0.08,-0.24,-0.08,-0.24,0.24,0.32,0.35,0.17,0.17,0.17
334.18,-0.08,-0.24,-0.08,-0.25,0.25,0.33,0.37,0.17,0.17,0.17
337.52,-0.08,-0.26,-0.08,-0.26,0.25,0.35,0.39,0.18,0.18,0.18
340.90,-0.08,-0.27,-0.07,-0.26,0.26,0.36,0.40,0.18,0.18,0.19
344.30,-0.07,-0.26,-0.07,-0.26,0.26,0.37,0.42,0.20,0.20,0.20
347.75,-0.06,-0.26,-0.06,-0.27,0.27,0.39,0.44,0.21,0.21,0.21
351.23,-0.06,-0.27,-0.06,-0.28,0.28,0.40,0.46,0.22,0.22,0.21
354.74,-0.07,-0.30,-0.06,-0.29,0.29,0.41,0.48,0.23,0.23,0.23
358.28,-0.08,-0.31,-0.07,-0.31,0.31,0.42,0.49,0.24,0.24,0.23
361.87,-0.09,-0.32,-0.09,-0.33,0.34,0.43,0.51,0.25,0.24,0.23
365.49,-0.12,-0.36,-0.11,-0.36,0.37,0.45,0.53,0.25,0.25,0.25
369.14,-0.15,-0.40,-0.14,-0.40,0.40,0.46,0.55,0.25,0.25,0.26
372.83,-0.18,-0.44,-0.18,-0.44,0.44,0.47,0.57,0.26,0.26,0.26
376.56,-0.22,-0.48,-0.21,-0.48,0.48,0.48,0.59,0.26,0.26,0.26
380.33,-0.25,-0.52,-0.25,-0.52,0.52,0.49,0.61,0.27,0.27,0.27
384.13,-0.28,-0.56,-0.28,-0.56,0.56,0.50,0.63,0.28,0.28,0.28
387.97,-0.31,-0.59,-0.31,-0.60,0.60,0.51,0.66,0.29,0.29,0.29
391.85,-0.34,-0.64,-0.34,-0.64,0.64,0.52,0.68,0.30,0.30,0.31
395.77,-0.37,-0.67,-0.36,-0.67,0.67,0.53,0.70,0.31,0.31,0.31
399.73,-0.39,-0.70,-0.39,-0.71,0.70,0.55,0.72,0.32,0.32,0.31
403.72,-0.41,-0.74,-0.41,-0.74,0.73,0.56,0.74,0.32,0.32,0.33
407.76,-0.43,-0.77,-0.42,-0.76,0.75,0.57,0.76,0.32,0.33,0.34
411.84,-0.43,-0.78,-0.42,-0.78,0.77,0.58,0.78,0.34,0.34,0.35
415.96,-0.42,-0.78,-0.42,-0.78,0.78,0.59,0.81,0.36,0.36,0.36
420.12,-0.42,-0.78,-0.41,-0.78,0.79,0.60,0.83,0.37,0.37,0.36
424.32,-0.41,-0.78,-0.41,-0.78,0.79,0.61,0.85,0.39,0.38,0.37
428.56,-0.41,-0.79,-0.41,-0.79,0.80,0.62,0.87,0.39,0.39,0.39
432.85,-0.41,-0.81,-0.41,-0.80,0.80,0.63,0.89,0.39,0.40,0.41
437.18,-0.41,-0.80,-0.41,-0.81,0.81,0.64,0.91,0.40,0.40,0.40
441.55,-0.41,-0.81,-0.41,-0.81,0.81,0.65,0.93,0.41,0.41,0.41
445.96,-0.41,-0.82,-0.41,-0.82,0.82,0.66,0.95,0.42,0.42,0.41
450.42,-0.41,-0.83,-0.41,-0.83,0.83,0.67,0.97,0.43,0.43,0.42
454.93,-0.41,-0.84,-0.41,-0.84,0.84,0.68,0.99,0.43,0.43,0.43
459.48,-0.41,-0.85,-0.41,-0.85,0.85,0.69,1.00,0.44,0.44,0.44
464.07,-0.41,-0.87,-0.41,-0.86,0.86,0.70,1.02,0.45,0.45,0.46
468.71,-0.41,-0.87,-0.41,-0.87,0.87,0.72,1.04,0.46,0.46,0.46
473.40,-0.41,-0.88,-0.41,-0.88,0.88,0.73,1.05,0.47,0.47,0.47
478.13,-0.41,-0.89,-0.41,-0.89,0.89,0.74,1.06,0.48,0.48,0.48
482.91,-0.41,-0.90,-0.41,-0.90,0.90,0.75,1.07,0.49,0.49,0.49
487.74,-0.41,-0.91,-0.41,-0.91,0.91,0.77,1.09,0.50,0.50,0.50
492.62,-0.41,-0.91,-0.41,-0.91,0.92,0.78,1.09,0.51,0.51,0.51
497.55,-0.41,-0.92,-0.41,-0.92,0.93,0.79,1.10,0.52,0.52,0.52
502.52,-0.41,-0.93,-0.41,-0.94,0.94,0.81,1.11,0.53,0.53,0.53
507.55,-0.41,-0.95,-0.41,-0.95,0.95,0.82,1.12,0.55,0.55,0.55
512.62,-0.41,-0.96,-0.41,-0.97,0.96,0.84,1.12,0.56,0.56,0.56
517.75,-0.41,-0.98,-0.41,-0.98,0.98,0.85,1.12,0.57,0.57,0.58
