frequency,raw,error,smoothed,error_smoothed,equalization,parametric_eq,fixed_band_eq,equalized_raw,equalized_smoothed,target
20.00,22.16,14.58,22.16,14.58,-14.57,-14.95,-5.92,7.59,7.59,7.58
20.20,22.18,14.60,22.18,14.60,-14.60,-14.92,-6.06,7.58,7.58,7.58
20.40,22.19,14.62,22.19,14.62,-14.63,-14.88,-6.21,7.56,7.57,7.57
20.61,22.21,14.64,22.21,14.64,-14.65,-14.84,-6.36,7.56,7.56,7.57
20.81,22.22,14.66,22.22,14.66,-14.67,-14.80,-6.51,7.55,7.55,7.56
21.02,22.23,14.67,22.23,14.67,-14.68,-14.76,-6.67,7.55,7.55,7.56
21.23,22.23,14.68,22.23,14.68,-14.68,-14.72,-6.83,7.54,7.55,7.55
21.44,22.23,14.68,22.23,14.68,-14.68,-14.67,-7.00,7.54,7.54,7.55
21.66,22.22,14.68,22.22,14.68,-14.68,-14.63,-7.17,7.54,7.54,7.53
21.87,22.21,14.67,22.21,14.67,-14.67,-14.58,-7.35,7.53,7.53,7.53
22.09,22.19,14.66,22.19,14.66,-14.66,-14.53,-7.53,7.53,7.53,7.52
22.31,22.16,14.63,22.16,14.64,-14.64,-14.48,-7.72,7.52,7.52,7.52
22.54,22.13,14.60,22.13,14.61,-14.61,-14.43,-7.91,7.52,7.52,7.52
22.76,22.09,14.57,22.09,14.57,-14.57,-14.37,-8.10,7.52,7.52,7.51
22.99,22.04,14.53,22.04,14.53,-14.52,-14.31,-8.30,7.51,7.51,7.51
23.22,21.98,14.48,21.98,14.47,-14.47,-14.26,-8.51,7.51,7.51,7.50
23.45,21.92,14.42,21.91,14.41,-14.41,-14.20,-8.72,7.51,7.50,7.50
23.69,21.84,14.34,21.84,14.34,-14.34,-14.13,-8.94,7.50,7.50,7.50
23.92,21.76,14.27,21.76,14.27,-14.27,-14.07,-9.16,7.49,7.49,7.49
24.16,21.68,14.19,21.67,14.18,-14.18,-14.00,-9.39,7.49,7.49,7.49
24.40,21.58,14.09,21.58,14.09,-14.09,-13.93,-9.62,7.48,7.49,7.49
24.65,21.48,13.99,21.48,14.00,-14.00,-13.86,-9.86,7.48,7.48,7.49
24.89,21.37,13.90,21.37,13.89,-13.89,-13.79,-10.10,7.48,7.48,7.48
25.14,21.27,13.79,21.26,13.79,-13.78,-13.72,-10.35,7.48,7.48,7.48
25.39,21.14,13.67,21.15,13.67,-13.67,-13.64,-10.60,7.48,7.48,7.48
25.65,21.03,13.55,21.03,13.55,-13.55,-13.56,-10.86,7.48,7.48,7.47
25.91,20.90,13.43,20.90,13.43,-13.43,-13.47,-11.12,7.47,7.47,7.47
26.16,20.77,13.30,20.77,13.30,-13.30,-13.39,-11.38,7.47,7.47,7.47
26.43,20.64,13.17,20.64,13.17,-13.17,-13.30,-11.65,7.47,7.47,7.47
26.69,20.51,13.05,20.51,13.05,-13.04,-13.21,-11.92,7.46,7.47,7.46
26.96,20.38,12.92,20.38,12.92,-12.91,-13.12,-12.19,7.47,7.46,7.46
27.23,20.25,12.79,20.24,12.78,-12.78,-13.02,-12.46,7.46,7.46,7.46
27.50,20.11,12.65,20.11,12.65,-12.66,-12.92,-12.72,7.45,7.46,7.46
27.77,19.98,12.52,19.98,12.53,-12.53,-12.82,-12.99,7.45,7.45,7.46
28.05,19.86,12.41,19.85,12.40,-12.41,-12.72,-13.25,7.45,7.44,7.45
28.33,19.73,12.28,19.73,12.29,-12.29,-12.61,-13.50,7.44,7.44,7.44
28.62,19.62,12.18,19.61,12.18,-12.17,-12.50,-13.74,7.44,7.44,7.44
28.90,19.50,12.07,19.50,12.06,-12.06,-12.39,-13.97,7.43,7.43,7.43
29.19,19.39,11.96,19.39,11.96,-11.96,-12.28,-14.18,7.43,7.43,7.43
29.48,19.28,11.85,19.28,11.86,-11.86,-12.17,-14.38,7.42,7.42,7.43
29.78,19.19,11.77,19.18,11.76,-11.76,-12.05,-14.55,7.43,7.42,7.42
30.08,19.09,11.67,19.09,11.67,-11.67,-11.93,-14.70,7.42,7.42,7.42
30.38,18.99,11.57,18.99,11.58,-11.58,-11.82,-14.82,7.41,7.42,7.41
30.68,18.90,11.49,18.90,11.49,-11.49,-11.70,-14.92,7.41,7.41,7.41
30.99,18.82,11.41,18.81,11.40,-11.40,-11.58,-14.98,7.41,7.41,7.41
31.30,18.73,11.32,18.73,11.32,-11.32,-11.46,-15.01,7.41,7.41,7.41
31.61,18.65,11.23,18.65,11.24,-11.24,-11.34,-15.01,7.40,7.41,7.42
31.93,18.58,11.16,18.58,11.16,-11.17,-11.22,-14.98,7.41,7.41,7.41
32.24,18.51,11.09,18.50,11.09,-11.09,-11.11,-14.92,7.42,7.41,7.41
32.57,18.43,11.02,18.43,11.02,-11.01,-10.99,-14.84,7.41,7.42,7.41
32.89,18.36,10.95,18.35,10.95,-10.94,-10.88,-14.72,7.42,7.41,7.41
33.22,18.28,10.87,18.27,10.87,-10.87,-10.78,-14.59,7.41,7.41,7.40
33.55,18.19,10.78,18.19,10.79,-10.79,-10.67,-14.44,7.39,7.40,7.40
33.89,18.12,10.72,18.11,10.71,-10.72,-10.57,-14.27,7.40,7.40,7.40
34.23,18.03,10.64,18.03,10.64,-10.64,-10.48,-14.09,7.39,7.39,7.39
34.57,17.95,10.56,17.95,10.56,-10.56,-10.39,-13.90,7.39,7.39,7.38
34.92,17.86,10.49,17.86,10.49,-10.48,-10.31,-13.70,7.38,7.38,7.37
35.27,17.77,10.41,17.77,10.41,-10.41,-10.24,-13.50,7.36,7.36,7.36
35.62,17.68,10.33,17.68,10.33,-10.33,-10.17,-13.29,7.35,7.34,7.35
35.97,17.59,10.24,17.59,10.25,-10.26,-10.11,-13.08,7.33,7.33,7.34
36.33,17.51,10.18,17.51,10.18,-10.19,-10.05,-12.87,7.31,7.32,7.33
36.70,17.44,10.13,17.43,10.12,-10.13,-10.00,-12.66,7.31,7.31,7.31
37.06,17.36,10.06,17.36,10.07,-10.06,-9.96,-12.46,7.29,7.30,7.29
37.43,17.29,10.01,17.29,10.01,-10.00,-9.92,-12.26,7.28,7.28,7.28
37.81,17.22,9.95,17.21,9.95,-9.94,-9.89,-12.06,7.27,7.27,7.26
38.19,17.15,9.90,17.15,9.89,-9.89,-9.87,-11.87,7.26,7.26,7.25
38.57,17.08,9.83,17.08,9.84,-9.84,-9.84,-11.69,7.24,7.24,7.25
38.95,17.02,9.79,17.01,9.78,-9.79,-9.82,-11.51,7.23,7.23,7.23
39.34,16.96,9.74,16.96,9.74,-9.74,-9.81,-11.33,7.21,7.22,7.22
39.74,16.91,9.70,16.91,9.70,-9.70,-9.80,-11.17,7.20,7.20,7.21
40.14,16.87,9.67,16.86,9.66,-9.67,-9.79,-11.00,7.20,7.20,7.20
40.54,16.82,9.63,16.83,9.64,-9.64,-9.78,-10.85,7.18,7.19,7.19
40.94,16.81,9.62,16.80,9.61,-9.62,-9.77,-10.70,7.19,7.18,7.19
41.35,16.78,9.60,16.78,9.60,-9.60,-9.76,-10.56,7.18,7.18,7.18
41.76,16.76,9.58,16.76,9.59,-9.59,-9.76,-10.43,7.17,7.17,7.17
42.18,16.75,9.58,16.74,9.57,-9.57,-9.75,-10.31,7.17,7.17,7.17
42.60,16.73,9.57,16.73,9.57,-9.56,-9.74,-10.19,7.16,7.16,7.16
43.03,16.72,9.56,16.71,9.56,-9.56,-9.74,-10.07,7.16,7.16,7.16
43.46,16.70,9.55,16.70,9.55,-9.55,-9.73,-9.97,7.15,7.15,7.15
43.90,16.69,9.55,16.68,9.54,-9.54,-9.72,-9.87,7.15,7.15,7.14
44.33,16.67,9.52,16.67,9.53,-9.53,-9.70,-9.78,7.14,7.14,7.14
44.78,16.65,9.51,16.65,9.52,-9.52,-9.69,-9.69,7.13,7.14,7.14
45.23,16.64,9.51,16.64,9.50,-9.51,-9.68,-9.62,7.13,7.13,7.13
45.68,16.63,9.50,16.62,9.50,-9.50,-9.66,-9.54,7.13,7.13,7.13
46.13,16.61,9.49,16.61,9.49,-9.49,-9.64,-9.48,7.12,7.12,7.12
46.60,16.59,9.47,16.59,9.48,-9.48,-9.62,-9.42,7.11,7.11,7.11
47.06,16.58,9.47,16.57,9.47,-9.47,-9.60,-9.36,7.11,7.10,7.10
47.53,16.56,9.46,16.56,9.46,-9.46,-9.57,-9.32,7.09,7.09,7.09
48.01,16.54,9.45,16.54,9.46,-9.46,-9.54,-9.27,7.08,7.08,7.08
48.49,16.52,9.45,16.52,9.45,-9.45,-9.52,-9.24,7.06,7.07,7.06
48.97,16.51,9.45,16.50,9.45,-9.45,-9.49,-9.20,7.06,7.05,7.05
49.46,16.49,9.44,16.49,9.45,-9.45,-9.45,-9.18,7.04,7.04,7.04
49.96,16.47,9.45,16.47,9.44,-9.44,-9.42,-9.15,7.02,7.02,7.02
50.46,16.45,9.44,16.44,9.44,-9.44,-9.38,-9.13,7.01,7.01,7.01
50.96,16.42,9.43,16.42,9.43,-9.43,-9.35,-9.12,6.99,6.99,6.99
51.47,16.40,9.42,16.40,9.42,-9.42,-9.31,-9.11,6.98,6.98,6.97
51.99,16.37,9.42,16.36,9.41,-9.41,-9.27,-9.10,6.96,6.96,6.95
52.51,16.33,9.39,16.33,9.39,-9.39,-9.23,-9.09,6.94,6.94,6.94
53.03,16.29,9.36,16.29,9.37,-9.37,-9.18,-9.09,6.92,6.92,6.92
53.56,16.24,9.34,16.24,9.34,-9.34,-9.14,-9.09,6.90,6.90,6.90
54.10,16.20,9.31,16.19,9.31,-9.31,-9.09,-9.08,6.89,6.88,6.88
54.64,16.14,9.27,16.14,9.28,-9.27,-9.04,-9.08,6.86,6.87,6.87
55.18,16.10,9.24,16.09,9.24,-9.24,-9.00,-9.08,6.86,6.86,6.85
55.74,16.04,9.19,16.04,9.19,-9.19,-8.95,-9.08,6.84,6.84,6.85
56.29,15.98,9.15,15.98,9.15,-9.15,-8.90,-9.08,6.83,6.83,6.83
56.86,15.91,9.10,15.91,9.10,-9.10,-8.84,-9.07,6.81,6.81,6.81
57.42,15.85,9.05,15.85,9.05,-9.05,-8.79,-9.06,6.80,6.80,6.79
58.00,15.78,9.00,15.77,9.00,-9.00,-8.74,-9.05,6.78,6.78,6.77
58.58,15.70,8.94,15.70,8.94,-8.94,-8.68,-9.03,6.76,6.76,6.75
59.16,15.62,8.88,15.62,8.88,-8.89,-8.63,-9.01,6.73,6.73,6.73
59.76,15.54,8.82,15.54,8.82,-8.83,-8.57,-8.98,6.71,6.71,6.71
60.35,15.46,8.77,15.46,8.77,-8.77,-8.52,-8.95,6.68,6.68,6.69
60.96,15.38,8.72,15.38,8.71,-8.72,-8.46,-8.91,6.66,6.66,6.66
61.57,15.30,8.66,15.29,8.66,-8.66,-8.40,-8.87,6.64,6.63,6.64
62.18,15.21,8.59,15.21,8.60,-8.60,-8.34,-8.82,6.60,6.61,6.61
62.80,15.13,8.55,15.13,8.54,-8.54,-8.28,-8.76,6.58,6.58,6.58
63.43,15.04,8.48,15.04,8.49,-8.48,-8.22,-8.69,6.55,6.55,6.55
64.07,14.95,8.43,14.95,8.43,-8.42,-8.16,-8.62,6.53,6.52,6.52
64.71,14.85,8.36,14.85,8.36,-8.35,-8.10,-8.54,6.49,6.49,6.49
65.35,14.75,8.28,14.75,8.29,-8.28,-8.04,-8.46,6.46,6.47,6.46
66.01,14.65,8.21,14.65,8.21,-8.21,-7.98,-8.37,6.44,6.44,6.44
66.67,14.55,8.14,14.54,8.13,-8.13,-7.92,-8.27,6.41,6.41,6.41
67.33,14.43,8.05,14.43,8.06,-8.05,-7.85,-8.17,6.37,6.38,6.38
68.01,14.32,7.97,14.32,7.97,-7.97,-7.79,-8.06,6.35,6.35,6.35
68.69,14.21,7.89,14.20,7.89,-7.89,-7.73,-7.95,6.32,6.31,6.31
69.37,14.08,7.79,14.08,7.80,-7.80,-7.67,-7.84,6.27,6.28,6.28
70.07,13.97,7.72,13.97,7.72,-7.72,-7.60,-7.73,6.25,6.24,6.25
70.77,13.85,7.63,13.85,7.63,-7.64,-7.54,-7.61,6.21,6.21,6.22
71.48,13.74,7.57,13.73,7.56,-7.56,-7.47,-7.49,6.18,6.18,6.17
72.19,13.61,7.47,13.61,7.48,-7.47,-7.41,-7.37,6.13,6.14,6.14
72.91,13.50,7.40,13.49,7.40,-7.39,-7.35,-7.24,6.10,6.10,6.10
73.64,13.38,7.31,13.38,7.31,-7.31,-7.28,-7.12,6.07,6.06,6.06
74.38,13.26,7.22,13.26,7.23,-7.23,-7.22,-7.00,6.03,6.03,6.03
75.12,13.14,7.14,13.14,7.14,-7.15,-7.15,-6.88,5.99,5.99,5.99
75.87,13.02,7.06,13.01,7.06,-7.06,-7.09,-6.76,5.95,5.95,5.95
76.63,12.89,6.97,12.89,6.98,-6.98,-7.02,-6.64,5.91,5.92,5.91
77.40,12.77,6.89,12.76,6.89,-6.89,-6.96,-6.53,5.88,5.88,5.87
78.17,12.64,6.81,12.63,6.80,-6.80,-6.89,-6.41,5.84,5.84,5.83
78.95,12.50,6.71,12.50,6.71,-6.71,-6.83,-6.30,5.79,5.79,5.79
79.74,12.37,6.62,12.36,6.62,-6.62,-6.76,-6.19,5.75,5.75,5.74
80.54,12.23,6.53,12.23,6.52,-6.52,-6.70,-6.09,5.70,5.70,5.70
81.35,12.09,6.42,12.09,6.43,-6.43,-6.63,-5.99,5.66,5.65,5.66
82.16,11.95,6.33,11.95,6.33,-6.34,-6.57,-5.89,5.61,5.61,5.62
82.98,11.82,6.25,11.82,6.25,-6.25,-6.50,-5.79,5.56,5.57,5.57
83.81,11.70,6.17,11.69,6.17,-6.17,-6.44,-5.70,5.53,5.53,5.53
84.65,11.57,6.08,11.57,6.08,-6.08,-6.37,-5.61,5.48,5.48,5.48
85.50,11.44,6.00,11.44,6.00,-6.00,-6.31,-5.53,5.43,5.44,5.43
86.35,11.32,5.92,11.31,5.93,-5.93,-6.24,-5.45,5.39,5.39,5.39
87.22,11.19,5.85,11.19,5.85,-5.85,-6.18,-5.37,5.34,5.34,5.34
88.09,11.08,5.79,11.07,5.78,-5.78,-6.12,-5.29,5.30,5.30,5.29
88.97,10.95,5.70,10.95,5.71,-5.70,-6.05,-5.22,5.24,5.25,5.25
89.86,10.84,5.64,10.83,5.63,-5.63,-5.99,-5.16,5.21,5.20,5.19
90.76,10.71,5.56,10.71,5.56,-5.56,-5.92,-5.10,5.15,5.15,5.15
91.66,10.59,5.49,10.59,5.49,-5.49,-5.86,-5.04,5.09,5.10,5.10
92.58,10.47,5.42,10.47,5.42,-5.42,-5.80,-4.98,5.04,5.04,5.04
93.51,10.36,5.36,10.35,5.36,-5.36,-5.73,-4.93,5.00,5.00,5.00
94.44,10.24,5.29,10.24,5.29,-5.29,-5.67,-4.88,4.94,4.94,4.94
95.39,10.12,5.23,10.12,5.23,-5.23,-5.61,-4.83,4.89,4.89,4.89
96.34,10.00,5.17,10.00,5.17,-5.17,-5.54,-4.79,4.83,4.83,4.83
97.30,9.89,5.11,9.89,5.11,-5.11,-5.48,-4.75,4.78,4.77,4.77
98.28,9.78,5.06,9.77,5.06,-5.05,-5.42,-4.72,4.72,4.72,4.72
99.26,9.65,5.00,9.65,5.00,-5.00,-5.35,-4.68,4.65,4.66,4.65
100.25,9.54,4.94,9.53,4.94,-4.94,-5.29,-4.65,4.60,4.59,4.59
101.25,9.42,4.88,9.41,4.88,-4.89,-5.23,-4.62,4.53,4.53,4.54
102.27,9.30,4.83,9.30,4.83,-4.83,-5.17,-4.60,4.46,4.47,4.47
103.29,9.19,4.78,9.19,4.78,-4.78,-5.11,-4.57,4.41,4.41,4.41
104.32,9.08,4.73,9.08,4.73,-4.73,-5.05,-4.55,4.35,4.35,4.34
105.37,8.97,4.68,8.97,4.68,-4.68,-4.98,-4.53,4.29,4.29,4.28
106.42,8.86,4.63,8.86,4.63,-4.63,-4.92,-4.51,4.23,4.23,4.23
107.48,8.75,4.58,8.75,4.59,-4.58,-4.86,-4.49,4.16,4.17,4.17
108.56,8.65,4.55,8.64,4.54,-4.54,-4.80,-4.47,4.11,4.10,4.10
109.64,8.54,4.49,8.54,4.49,-4.49,-4.74,-4.45,4.04,4.04,4.04
110.74,8.43,4.44,8.43,4.45,-4.45,-4.68,-4.43,3.98,3.98,3.99
111.85,8.33,4.41,8.33,4.41,-4.40,-4.62,-4.41,3.92,3.92,3.92
112.97,8.23,4.37,8.22,4.36,-4.36,-4.56,-4.40,3.87,3.86,3.86
114.10,8.12,4.32,8.12,4.32,-4.32,-4.50,-4.38,3.80,3.80,3.80
115.24,8.01,4.27,8.01,4.28,-4.28,-4.44,-4.35,3.73,3.73,3.74
116.39,7.91,4.24,7.91,4.24,-4.24,-4.39,-4.33,3.66,3.67,3.66
117.55,7.81,4.21,7.81,4.21,-4.21,-4.33,-4.31,3.60,3.60,3.60
118.73,7.71,4.17,7.70,4.17,-4.18,-4.27,-4.28,3.53,3.53,3.53
119.92,7.60,4.14,7.60,4.14,-4.15,-4.21,-4.25,3.45,3.45,3.46
121.12,7.50,4.11,7.50,4.12,-4.12,-4.15,-4.22,3.38,3.38,3.38
122.33,7.41,4.10,7.40,4.09,-4.10,-4.10,-4.19,3.31,3.31,3.31
123.55,7.31,4.07,7.31,4.07,-4.07,-4.04,-4.15,3.23,3.24,3.24
124.79,7.22,4.05,7.21,4.05,-4.05,-3.98,-4.11,3.17,3.16,3.16
126.03,7.11,4.02,7.11,4.03,-4.03,-3.93,-4.07,3.08,3.09,3.08
127.29,7.02,4.00,7.02,4.01,-4.00,-3.87,-4.03,3.02,3.02,3.01
128.57,6.93,3.99,6.92,3.98,-3.97,-3.81,-3.98,2.95,2.94,2.94
129.85,6.82,3.95,6.82,3.95,-3.94,-3.76,-3.93,2.87,2.88,2.87
131.15,6.73,3.91,6.73,3.91,-3.91,-3.70,-3.87,2.81,2.81,2.81
132.46,6.63,3.87,6.63,3.88,-3.88,-3.65,-3.82,2.75,2.75,2.75
133.79,6.54,3.84,6.53,3.84,-3.84,-3.59,-3.76,2.70,2.70,2.70
135.12,6.44,3.80,6.44,3.80,-3.80,-3.54,-3.70,2.64,2.64,2.64
136.48,6.35,3.75,6.35,3.76,-3.76,-3.48,-3.64,2.59,2.59,2.59
137.84,6.26,3.72,6.25,3.71,-3.71,-3.43,-3.57,2.54,2.54,2.54
139.22,6.17,3.67,6.16,3.67,-3.67,-3.38,-3.50,2.50,2.50,2.49
140.61,6.07,3.62,6.07,3.62,-3.62,-3.32,-3.44,2.44,2.45,2.45
142.02,5.99,3.58,5.98,3.57,-3.58,-3.27,-3.37,2.41,2.41,2.41
143.44,5.90,3.53,5.89,3.53,-3.53,-3.22,-3.30,2.37,2.37,2.37
144.87,5.80,3.47,5.80,3.48,-3.48,-3.16,-3.23,2.32,2.33,2.33
146.32,5.72,3.43,5.71,3.42,-3.43,-3.11,-3.16,2.29,2.29,2.29
147.78,5.63,3.37,5.62,3.37,-3.37,-3.06,-3.08,2.25,2.25,2.26
149.26,5.54,3.32,5.54,3.32,-3.32,-3.01,-3.01,2.22,2.22,2.22
150.75,5.45,3.27,5.45,3.27,-3.27,-2.96,-2.94,2.18,2.18,2.18
152.26,5.37,3.22,5.36,3.22,-3.22,-2.91,-2.87,2.15,2.14,2.14
153.78,5.27,3.16,5.27,3.16,-3.16,-2.85,-2.80,2.10,2.11,2.11
155.32,5.19,3.11,5.18,3.11,-3.11,-2.80,-2.73,2.08,2.07,2.07
156.88,5.10,3.06,5.10,3.06,-3.06,-2.75,-2.66,2.04,2.04,2.04
158.44,5.01,3.00,5.01,3.01,-3.00,-2.70,-2.59,2.00,2.01,2.01
160.03,4.93,2.95,4.92,2.95,-2.95,-2.65,-2.53,1.98,1.97,1.97
161.63,4.84,2.90,4.84,2.90,-2.89,-2.60,-2.46,1.94,1.94,1.94
163.24,4.75,2.84,4.75,2.84,-2.84,-2.55,-2.39,1.91,1.91,1.91
164.88,4.67,2.79,4.67,2.78,-2.78,-2.51,-2.33,1.88,1.88,1.88
166.53,4.59,2.73,4.58,2.73,-2.73,-2.46,-2.27,1.86,1.86,1.86
168.19,4.50,2.66,4.50,2.67,-2.67,-2.41,-2.21,1.83,1.83,1.83
169.87,4.42,2.61,4.42,2.61,-2.61,-2.36,-2.15,1.81,1.81,1.81
171.57,4.34,2.55,4.34,2.55,-2.55,-2.31,-2.09,1.79,1.79,1.79
173.29,4.26,2.49,4.25,2.49,-2.49,-2.26,-2.03,1.77,1.77,1.76
175.02,4.17,2.43,4.17,2.43,-2.43,-2.22,-1.97,1.74,1.74,1.74
176.77,4.09,2.36,4.08,2.36,-2.36,-2.17,-1.92,1.72,1.72,1.72
178.54,4.00,2.30,4.00,2.30,-2.30,-2.12,-1.87,1.70,1.70,1.70
180.32,3.92,2.23,3.91,2.23,-2.23,-2.07,-1.82,1.68,1.68,1.69
182.13,3.83,2.16,3.83,2.17,-2.17,-2.03,-1.77,1.66,1.66,1.66
183.95,3.75,2.10,3.75,2.10,-2.10,-1.98,-1.72,1.64,1.65,1.64
185.79,3.67,2.04,3.67,2.04,-2.04,-1.93,-1.67,1.63,1.63,1.63
187.65,3.59,1.98,3.58,1.97,-1.97,-1.89,-1.62,1.61,1.61,1.61
189.52,3.50,1.91,3.50,1.91,-1.91,-1.84,-1.58,1.59,1.59,1.59
191.42,3.42,1.84,3.42,1.84,-1.84,-1.79,-1.53,1.58,1.58,1.58
193.33,3.35,1.78,3.34,1.78,-1.78,-1.75,-1.49,1.57,1.56,1.56
195.27,3.26,1.71,3.26,1.71,-1.71,-1.70,-1.45,1.55,1.55,1.55
197.22,3.18,1.65,3.17,1.64,-1.64,-1.66,-1.41,1.53,1.53,1.53
199.19,3.09,1.57,3.09,1.57,-1.57,-1.61,-1.37,1.51,1.52,1.52
201.18,3.01,1.50,3.01,1.51,-1.51,-1.56,-1.33,1.50,1.50,1.50
203.19,2.94,1.45,2.93,1.44,-1.44,-1.52,-1.29,1.50,1.49,1.49
205.23,2.85,1.37,2.85,1.38,-1.38,-1.47,-1.25,1.47,1.47,1.47
207.28,2.77,1.31,2.77,1.31,-1.31,-1.43,-1.22,1.46,1.46,1.46
209.35,2.69,1.24,2.69,1.24,-1.24,-1.38,-1.18,1.44,1.44,1.44
211.44,2.61,1.18,2.61,1.18,-1.18,-1.34,-1.14,1.43,1.43,1.43
213.56,2.54,1.12,2.53,1.12,-1.11,-1.29,-1.11,1.42,1.42,1.42
215.69,2.46,1.05,2.46,1.05,-1.05,-1.25,-1.07,1.41,1.41,1.41
217.85,2.38,0.98,2.38,0.98,-0.98,-1.20,-1.04,1.40,1.40,1.39
220.03,2.30,0.92,2.30,0.92,-0.91,-1.16,-1.01,1.38,1.38,1.38
222.23,2.22,0.85,2.22,0.85,-0.85,-1.11,-0.97,1.37,1.37,1.37
224.45,2.14,0.78,2.14,0.78,-0.78,-1.07,-0.94,1.36,1.36,1.36
226.70,2.06,0.71,2.06,0.71,-0.72,-1.02,-0.91,1.34,1.35,1.35
228.96,1.99,0.65,1.99,0.65,-0.65,-0.98,-0.87,1.34,1.33,1.34
231.25,1.92,0.59,1.91,0.59,-0.59,-0.93,-0.84,1.33,1.32,1.33
233.57,1.84,0.53,1.84,0.53,-0.53,-0.88,-0.80,1.31,1.31,1.31
235.90,1.77,0.47,1.77,0.47,-0.47,-0.84,-0.77,1.30,1.30,1.30
238.26,1.70,0.41,1.70,0.41,-0.41,-0.79,-0.73,1.29,1.29,1.29
240.64,1.63,0.36,1.63,0.36,-0.35,-0.75,-0.70,1.27,1.28,1.27
243.05,1.57,0.30,1.56,0.30,-0.30,-0.70,-0.66,1.27,1.27,1.26
245.48,1.50,0.24,1.50,0.24,-0.24,-0.65,-0.63,1.26,1.26,1.25
247.93,1.43,0.18,1.43,0.19,-0.19,-0.61,-0.59,1.24,1.25,1.25
250.41,1.38,0.14,1.37,0.13,-0.14,-0.56,-0.55,1.24,1.23,1.24
252.92,1.31,0.08,1.31,0.08,-0.09,-0.51,-0.51,1.22,1.22,1.22
255.45,1.26,0.04,1.25,0.04,-0.04,-0.47,-0.48,1.22,1.21,1.22
258.00,1.20,-0.01,1.20,-0.01,0.00,-0.42,-0.44,1.20,1.20,1.21
260.58,1.15,-0.05,1.15,-0.05,0.04,-0.37,-0.40,1.19,1.19,1.19
263.19,1.10,-0.09,1.10,-0.09,0.08,-0.32,-0.35,1.18,1.18,1.19
265.82,1.06,-0.11,1.05,-0.12,0.12,-0.28,-0.31,1.18,1.17,1.17
268.48,1.01,-0.16,1.01,-0.15,0.16,-0.23,-0.27,1.16,1.17,1.16
271.16,0.97,-0.18,0.96,-0.19,0.19,-0.18,-0.22,1.16,1.16,1.15
273.87,0.92,-0.23,0.92,-0.22,0.22,-0.13,-0.18,1.14,1.14,1.14
276.61,0.88,-0.25,0.87,-0.26,0.26,-0.08,-0.13,1.13,1.13,1.13
279.38,0.83,-0.30,0.83,-0.29,0.29,-0.03,-0.09,1.11,1.12,1.12
282.17,0.79,-0.32,0.78,-0.32,0.32,0.02,-0.04,1.11,1.10,1.11
284.99,0.74,-0.36,0.74,-0.35,0.35,0.07,0.01,1.09,1.09,1.09
287.84,0.70,-0.38,0.70,-0.38,0.39,0.13,0.05,1.08,1.08,1.08
290.72,0.66,-0.41,0.65,-0.42,0.42,0.18,0.10,1.08,1.07,1.07
293.63,0.61,-0.46,0.60,-0.45,0.46,0.23,0.15,1.07,1.06,1.06
296.57,0.55,-0.50,0.55,-0.50,0.50,0.28,0.21,1.05,1.05,1.05
299.53,0.50,-0.54,0.50,-0.54,0.54,0.34,0.26,1.04,1.04,1.03
302.53,0.44,-0.59,0.44,-0.59,0.59,0.39,0.31,1.03,1.03,1.03
305.55,0.39,-0.63,0.38,-0.64,0.64,0.45,0.36,1.03,1.02,1.02
308.61,0.32,-0.70,0.32,-0.69,0.69,0.50,0.42,1.01,1.01,1.01
311.69,0.26,-0.75,0.26,-0.75,0.75,0.56,0.47,1.00,1.01,1.01
314.81,0.21,-0.79,0.20,-0.80,0.80,0.62,0.53,1.01,1.00,1.00
317.96,0.14,-0.86,0.14,-0.86,0.86,0.67,0.58,0.99,1.00,1.00
321.14,0.08,-0.92,0.08,-0.91,0.91,0.73,0.64,0.99,0.99,0.99
324.35,0.01,-0.97,0.01,-0.97,0.97,0.79,0.70,0.98,0.98,0.98
327.59,-0.05,-1.03,-0.06,-1.03,1.03,0.85,0.76,0.98,0.98,0.98
330.87,-0.12,-1.09,-0.12,-1.09,1.09,0.91,0.82,0.97,0.97,0.96
334.18,-0.18,-1.15,-0.18,-1.15,1.15,0.97,0.88,0.97,0.96,0.96
337.52,-0.25,-1.21,-0.25,-1.21,1.21,1.03,0.94,0.95,0.96,0.96
340.90,-0.31,-1.26,-0.32,-1.27,1.26,1.10,1.00,0.95,0.95,0.95
344.30,-0.38,-1.33,-0.38,-1.33,1.32,1.16,1.07,0.94,0.94,0.95
347.75,-0.45,-1.39,-0.45,-1.38,1.38,1.22,1.13,0.92,0.93,0.93
351.23,-0.50,-1.42,-0.51,-1.43,1.43,1.29,1.20,0.93,0.92,0.92
354.74,-0.57,-1.48,-0.57,-1.49,1.49,1.35,1.27,0.92,0.92,0.91
358.28,-0.64,-1.55,-0.64,-1.54,1.55,1.42,1.33,0.90,0.91,0.91
361.87,-0.70,-1.60,-0.71,-1.60,1.60,1.48,1.40,0.90,0.89,0.90
365.49,-0.77,-1.66,-0.77,-1.66,1.66,1.55,1.47,0.88,0.88,0.88
369.14,-0.84,-1.72,-0.84,-1.71,1.71,1.62,1.54,0.87,0.87,0.87
372.83,-0.90,-1.76,-0.91,-1.77,1.77,1.69,1.62,0.86,0.86,0.86
376.56,-0.97,-1.82,-0.97,-1.82,1.82,1.75,1.69,0.85,0.85,0.85
380.33,-1.04,-1.88,-1.04,-1.88,1.88,1.82,1.76,0.84,0.84,0.84
384.13,-1.10,-1.93,-1.11,-1.93,1.93,1.89,1.84,0.83,0.83,0.83
387.97,-1.17,-1.99,-1.17,-1.99,1.99,1.96,1.91,0.81,0.81,0.82
391.85,-1.24,-2.05,-1.24,-2.04,2.04,2.03,1.99,0.80,0.80,0.80
395.77,-1.30,-2.10,-1.30,-2.10,2.10,2.09,2.06,0.79,0.79,0.79
399.73,-1.36,-2.14,-1.36,-2.15,2.15,2.16,2.14,0.79,0.79,0.78
403.72,-1.42,-2.20,-1.43,-2.20,2.20,2.23,2.22,0.78,0.78,0.78
407.76,-1.49,-2.26,-1.49,-2.26,2.26,2.30,2.29,0.76,0.77,0.77
411.84,-1.55,-2.31,-1.55,-2.31,2.31,2.36,2.37,0.75,0.76,0.76
415.96,-1.60,-2.35,-1.61,-2.36,2.36,2.43,2.45,0.76,0.75,0.75
420.12,-1.67,-2.41,-1.67,-2.41,2.41,2.49,2.52,0.74,0.74,0.74
424.32,-1.73,-2.46,-1.73,-2.46,2.46,2.55,2.60,0.72,0.73,0.73
428.56,-1.79,-2.51,-1.79,-2.51,2.51,2.62,2.67,0.71,0.71,0.71
432.85,-1.84,-2.55,-1.85,-2.55,2.55,2.68,2.75,0.71,0.70,0.70
437.18,-1.91,-2.61,-1.91,-2.60,2.60,2.73,2.82,0.69,0.69,0.69
441.55,-1.96,-2.65,-1.97,-2.64,2.64,2.79,2.89,0.68,0.68,0.68
445.96,-2.02,-2.68,-2.02,-2.69,2.69,2.85,2.95,0.67,0.66,0.66
450.42,-2.08,-2.73,-2.08,-2.73,2.73,2.90,3.02,0.65,0.65,0.65
454.93,-2.13,-2.77,-2.14,-2.77,2.77,2.95,3.08,0.64,0.64,0.64
459.48,-2.19,-2.81,-2.19,-2.81,2.81,2.99,3.14,0.62,0.62,0.62
464.07,-2.24,-2.85,-2.24,-2.85,2.85,3.04,3.19,0.61,0.61,0.61
468.71,-2.29,-2.89,-2.30,-2.89,2.89,3.08,3.24,0.60,0.60,0.60
473.40,-2.34,-2.93,-2.35,-2.93,2.93,3.12,3.29,0.59,0.58,0.59
478.13,-2.40,-2.97,-2.40,-2.97,2.97,3.15,3.33,0.56,0.57,0.57
482.91,-2.44,-3.00,-2.45,-3.00,3.00,3.19,3.37,0.56,0.56,0.56
487.74,-2.49,-3.04,-2.49,-3.04,3.04,3.21,3.40,0.54,0.54,0.55
