frequency,raw,error,smoothed,error_smoothed,equalization,parametric_eq,fixed_band_eq,equalized_raw,equalized_smoothed,target
20.00,-11.23,-9.76,-11.23,-9.76,6.00,5.79,2.79,-5.23,-5.23,-1.47
20.20,-11.12,-9.69,-11.11,-9.69,6.00,5.82,2.87,-5.12,-5.11,-1.43
20.40,-11.01,-9.62,-11.00,-9.61,6.00,5.84,2.95,-5.01,-5.00,-1.39
20.61,-10.91,-9.54,-10.90,-9.54,6.00,5.87,3.03,-4.91,-4.90,-1.37
20.81,-10.80,-9.47,-10.79,-9.47,6.00,5.90,3.12,-4.80,-4.79,-1.33
21.02,-10.69,-9.40,-10.71,-9.41,6.00,5.92,3.21,-4.69,-4.71,-1.29
21.23,-10.64,-9.36,-10.63,-9.36,6.00,5.94,3.30,-4.64,-4.63,-1.28
21.44,-10.59,-9.33,-10.58,-9.32,6.00,5.97,3.39,-4.59,-4.58,-1.26
21.66,-10.53,-9.28,-10.53,-9.28,6.00,5.99,3.49,-4.53,-4.53,-1.25
21.87,-10.48,-9.23,-10.47,-9.23,6.00,6.01,3.58,-4.48,-4.47,-1.25
22.09,-10.42,-9.18,-10.41,-9.17,6.00,6.03,3.69,-4.42,-4.41,-1.24
22.31,-10.35,-9.11,-10.35,-9.11,6.00,6.05,3.79,-4.35,-4.35,-1.24
22.54,-10.29,-9.05,-10.29,-9.04,6.00,6.06,3.90,-4.29,-4.29,-1.24
22.76,-10.22,-8.96,-10.22,-8.97,6.00,6.08,4.00,-4.22,-4.22,-1.25
22.99,-10.15,-8.89,-10.15,-8.89,6.00,6.09,4.12,-4.15,-4.15,-1.26
23.22,-10.07,-8.81,-10.07,-8.80,6.00,6.11,4.23,-4.07,-4.07,-1.26
23.45,-9.99,-8.71,-9.99,-8.72,6.00,6.12,4.35,-3.99,-3.99,-1.27
23.69,-9.91,-8.64,-9.91,-8.63,6.00,6.13,4.47,-3.91,-3.91,-1.27
23.92,-9.83,-8.55,-9.82,-8.55,6.00,6.14,4.59,-3.83,-3.82,-1.27
24.16,-9.74,-8.47,-9.74,-8.47,6.00,6.15,4.71,-3.74,-3.74,-1.26
24.40,-9.66,-8.39,-9.65,-8.38,6.00,6.15,4.84,-3.66,-3.65,-1.27
24.65,-9.57,-8.29,-9.56,-8.29,6.00,6.16,4.97,-3.57,-3.56,-1.28
24.89,-9.49,-8.21,-9.49,-8.22,6.00,6.16,5.10,-3.49,-3.49,-1.28
25.14,-9.43,-8.15,-9.44,-8.16,6.00,6.17,5.23,-3.43,-3.44,-1.28
25.39,-9.41,-8.13,-9.40,-8.12,6.00,6.17,5.36,-3.41,-3.40,-1.28
25.65,-9.38,-8.09,-9.38,-8.09,6.00,6.17,5.49,-3.38,-3.38,-1.29
25.91,-9.35,-8.05,-9.34,-8.05,6.00,6.17,5.63,-3.35,-3.34,-1.30
26.16,-9.30,-8.00,-9.29,-8.00,6.00,6.16,5.76,-3.30,-3.29,-1.30
26.43,-9.23,-7.93,-9.24,-7.94,6.00,6.16,5.89,-3.23,-3.24,-1.30
26.69,-9.17,-7.87,-9.17,-7.87,6.00,6.16,6.02,-3.17,-3.17,-1.30
26.96,-9.10,-7.79,-9.09,-7.78,6.00,6.15,6.15,-3.10,-3.09,-1.31
27.23,-9.00,-7.69,-9.00,-7.69,6.00,6.14,6.28,-3.00,-3.00,-1.31
27.50,-8.90,-7.59,-8.91,-7.59,6.00,6.13,6.40,-2.90,-2.91,-1.31
27.77,-8.80,-7.47,-8.80,-7.48,6.00,6.12,6.52,-2.80,-2.80,-1.32
28.05,-8.69,-7.36,-8.67,-7.35,6.00,6.11,6.64,-2.69,-2.67,-1.32
28.33,-8.53,-7.19,-8.52,-7.19,6.00,6.10,6.75,-2.53,-2.52,-1.33
28.62,-8.37,-7.04,-8.36,-7.03,6.00,6.08,6.85,-2.37,-2.36,-1.33
28.90,-8.21,-6.87,-8.24,-6.90,6.00,6.07,6.94,-2.21,-2.24,-1.34
29.19,-8.15,-6.81,-8.16,-6.82,6.00,6.05,7.03,-2.15,-2.16,-1.34
29.48,-8.14,-6.81,-8.13,-6.80,6.00,6.03,7.10,-2.14,-2.13,-1.33
29.78,-8.12,-6.78,-8.11,-6.78,6.00,6.01,7.17,-2.12,-2.11,-1.34
30.08,-8.09,-6.76,-8.08,-6.74,6.00,5.99,7.23,-2.09,-2.08,-1.33
30.38,-8.02,-6.67,-8.02,-6.67,6.00,5.97,7.27,-2.02,-2.02,-1.35
30.68,-7.94,-6.59,-7.94,-6.59,6.00,5.94,7.30,-1.94,-1.94,-1.35
30.99,-7.86,-6.50,-7.86,-6.51,6.00,5.92,7.32,-1.86,-1.86,-1.36
31.30,-7.80,-6.43,-7.79,-6.43,6.00,5.90,7.33,-1.80,-1.79,-1.36
31.61,-7.74,-6.37,-7.73,-6.36,6.00,5.87,7.33,-1.74,-1.73,-1.37
31.93,-7.68,-6.29,-7.69,-6.31,6.00,5.84,7.31,-1.68,-1.69,-1.39
32.24,-7.67,-6.27,-7.67,-6.28,6.01,5.81,7.29,-1.66,-1.66,-1.40
32.57,-7.66,-6.26,-7.66,-6.25,6.01,5.78,7.25,-1.64,-1.64,-1.40
32.89,-7.65,-6.24,-7.64,-6.23,6.01,5.75,7.20,-1.63,-1.63,-1.41
33.22,-7.61,-6.18,-7.60,-6.18,6.01,5.72,7.14,-1.60,-1.60,-1.43
33.55,-7.55,-6.11,-7.55,-6.11,5.99,5.69,7.07,-1.56,-1.56,-1.43
33.89,-7.49,-6.03,-7.49,-6.04,5.96,5.65,6.99,-1.52,-1.53,-1.46
34.23,-7.43,-5.97,-7.43,-5.96,5.92,5.62,6.91,-1.50,-1.50,-1.46
34.57,-7.37,-5.89,-7.37,-5.89,5.87,5.58,6.82,-1.49,-1.49,-1.48
34.92,-7.30,-5.81,-7.30,-5.82,5.82,5.55,6.72,-1.48,-1.49,-1.49
35.27,-7.24,-5.75,-7.23,-5.73,5.75,5.51,6.62,-1.49,-1.48,-1.49
35.62,-7.17,-5.65,-7.17,-5.65,5.68,5.47,6.51,-1.49,-1.49,-1.51
35.97,-7.10,-5.57,-7.11,-5.58,5.60,5.43,6.40,-1.50,-1.51,-1.53
36.33,-7.06,-5.53,-7.06,-5.52,5.53,5.39,6.29,-1.52,-1.53,-1.53
36.70,-7.02,-5.48,-7.02,-5.47,5.48,5.35,6.17,-1.54,-1.54,-1.54
37.06,-6.98,-5.42,-6.97,-5.42,5.43,5.31,6.06,-1.55,-1.54,-1.55
37.43,-6.91,-5.36,-6.90,-5.35,5.37,5.27,5.94,-1.54,-1.54,-1.55
37.81,-6.84,-5.28,-6.85,-5.29,5.29,5.22,5.82,-1.55,-1.56,-1.56
38.19,-6.80,-5.23,-6.82,-5.26,5.22,5.18,5.71,-1.58,-1.61,-1.57
38.57,-6.79,-5.22,-6.79,-5.22,5.15,5.14,5.59,-1.64,-1.64,-1.56
38.95,-6.78,-5.20,-6.71,-5.14,5.09,5.09,5.48,-1.68,-1.62,-1.58
39.34,-6.60,-5.02,-6.57,-4.99,5.04,5.05,5.37,-1.56,-1.53,-1.58
39.74,-6.40,-4.81,-6.44,-4.85,4.97,5.00,5.26,-1.43,-1.47,-1.59
40.14,-6.32,-4.72,-6.42,-4.83,4.90,4.95,5.15,-1.42,-1.52,-1.60
40.54,-6.50,-4.90,-6.50,-4.90,4.84,4.91,5.05,-1.65,-1.65,-1.60
40.94,-6.68,-5.07,-6.53,-4.92,4.80,4.86,4.95,-1.87,-1.73,-1.60
41.35,-6.48,-4.86,-6.44,-4.82,4.77,4.81,4.85,-1.70,-1.67,-1.62
41.76,-6.21,-4.58,-6.29,-4.67,4.75,4.76,4.75,-1.45,-1.54,-1.63
42.18,-6.14,-4.50,-6.24,-4.61,4.73,4.71,4.66,-1.41,-1.51,-1.63
42.60,-6.33,-4.68,-6.30,-4.66,4.69,4.67,4.57,-1.64,-1.61,-1.65
43.03,-6.49,-4.83,-6.37,-4.71,4.62,4.62,4.48,-1.86,-1.74,-1.65
43.46,-6.33,-4.65,-6.34,-4.67,4.54,4.57,4.40,-1.79,-1.81,-1.68
43.90,-6.18,-4.48,-6.23,-4.53,4.45,4.52,4.32,-1.73,-1.78,-1.70
44.33,-6.09,-4.37,-6.09,-4.37,4.37,4.47,4.25,-1.72,-1.72,-1.72
44.78,-6.02,-4.28,-6.00,-4.26,4.29,4.42,4.17,-1.73,-1.71,-1.74
45.23,-5.92,-4.16,-5.90,-4.14,4.21,4.36,4.10,-1.71,-1.68,-1.76
45.68,-5.80,-4.03,-5.81,-4.04,4.13,4.31,4.04,-1.67,-1.68,-1.77
46.13,-5.73,-3.94,-5.78,-4.00,4.06,4.26,3.98,-1.67,-1.72,-1.79
46.60,-5.81,-4.01,-5.79,-4.00,4.01,4.21,3.92,-1.80,-1.79,-1.79
47.06,-5.86,-4.06,-5.82,-4.02,3.97,4.16,3.86,-1.89,-1.85,-1.80
47.53,-5.82,-4.01,-5.83,-4.02,3.94,4.11,3.80,-1.88,-1.88,-1.80
48.01,-5.78,-3.97,-5.78,-3.97,3.93,4.05,3.75,-1.85,-1.86,-1.81
48.49,-5.73,-3.90,-5.73,-3.90,3.91,4.00,3.71,-1.81,-1.82,-1.83
48.97,-5.68,-3.83,-5.67,-3.82,3.89,3.95,3.66,-1.79,-1.78,-1.84
49.46,-5.63,-3.78,-5.62,-3.77,3.83,3.90,3.62,-1.79,-1.79,-1.85
49.96,-5.58,-3.71,-5.65,-3.79,3.76,3.84,3.58,-1.81,-1.89,-1.87
50.46,-5.67,-3.81,-5.68,-3.82,3.70,3.79,3.54,-1.97,-1.98,-1.86
50.96,-5.77,-3.90,-5.61,-3.74,3.66,3.74,3.50,-2.11,-1.96,-1.86
51.47,-5.50,-3.62,-5.49,-3.62,3.63,3.69,3.47,-1.87,-1.86,-1.87
51.99,-5.20,-3.32,-5.35,-3.47,3.61,3.63,3.43,-1.59,-1.74,-1.88
52.51,-5.29,-3.41,-5.28,-3.40,3.57,3.58,3.40,-1.71,-1.71,-1.88
53.03,-5.39,-3.51,-5.37,-3.49,3.52,3.53,3.37,-1.87,-1.85,-1.88
53.56,-5.49,-3.60,-5.49,-3.60,3.46,3.47,3.34,-2.03,-2.03,-1.89
54.10,-5.55,-3.65,-5.49,-3.59,3.41,3.42,3.32,-2.14,-2.08,-1.90
54.64,-5.39,-3.49,-5.38,-3.48,3.39,3.37,3.29,-2.00,-2.00,-1.90
55.18,-5.22,-3.31,-5.22,-3.31,3.38,3.31,3.26,-1.84,-1.84,-1.91
55.74,-5.06,-3.14,-5.11,-3.19,3.36,3.26,3.23,-1.70,-1.74,-1.92
56.29,-5.07,-3.15,-5.11,-3.18,3.33,3.21,3.21,-1.74,-1.78,-1.92
56.86,-5.23,-3.28,-5.21,-3.27,3.28,3.16,3.18,-1.94,-1.93,-1.94
57.42,-5.32,-3.36,-5.31,-3.35,3.24,3.10,3.15,-2.07,-2.06,-1.95
58.00,-5.38,-3.41,-5.31,-3.34,3.22,3.05,3.12,-2.16,-2.08,-1.97
58.58,-5.21,-3.23,-5.23,-3.25,3.20,3.00,3.09,-2.00,-2.02,-1.98
59.16,-5.08,-3.08,-5.13,-3.14,3.17,2.94,3.06,-1.90,-1.96,-1.99
59.76,-5.08,-3.06,-5.09,-3.07,3.12,2.89,3.03,-1.96,-1.97,-2.02
60.35,-5.10,-3.06,-5.09,-3.05,3.04,2.84,2.99,-2.06,-2.05,-2.04
60.96,-5.13,-3.06,-5.07,-3.00,2.96,2.79,2.96,-2.17,-2.11,-2.07
61.57,-5.00,-2.89,-5.01,-2.90,2.88,2.73,2.92,-2.12,-2.12,-2.11
62.18,-4.89,-2.74,-4.93,-2.78,2.82,2.68,2.88,-2.07,-2.11,-2.15
62.80,-4.88,-2.70,-4.86,-2.68,2.76,2.63,2.84,-2.11,-2.10,-2.18
63.43,-4.87,-2.65,-4.87,-2.65,2.70,2.58,2.80,-2.16,-2.17,-2.22
64.07,-4.88,-2.62,-4.93,-2.68,2.64,2.53,2.75,-2.24,-2.29,-2.25
64.71,-5.00,-2.70,-4.93,-2.64,2.57,2.47,2.70,-2.43,-2.36,-2.29
65.35,-4.96,-2.64,-4.90,-2.58,2.51,2.42,2.65,-2.44,-2.39,-2.32
66.01,-4.77,-2.41,-4.84,-2.49,2.47,2.37,2.60,-2.29,-2.37,-2.36
66.67,-4.77,-2.37,-4.77,-2.38,2.45,2.32,2.55,-2.32,-2.33,-2.40
67.33,-4.77,-2.34,-4.74,-2.31,2.41,2.27,2.49,-2.35,-2.33,-2.43
68.01,-4.77,-2.30,-4.76,-2.29,2.36,2.22,2.43,-2.41,-2.40,-2.47
68.69,-4.77,-2.26,-4.80,-2.29,2.29,2.16,2.37,-2.48,-2.51,-2.51
69.37,-4.83,-2.28,-4.86,-2.31,2.21,2.11,2.31,-2.62,-2.65,-2.55
70.07,-4.93,-2.34,-4.86,-2.28,2.13,2.06,2.25,-2.80,-2.74,-2.59
70.77,-4.82,-2.19,-4.78,-2.15,2.05,2.01,2.19,-2.77,-2.73,-2.62
71.48,-4.61,-1.94,-4.62,-1.95,1.97,1.96,2.12,-2.64,-2.65,-2.67
72.19,-4.41,-1.70,-4.47,-1.76,1.88,1.91,2.06,-2.53,-2.59,-2.71
72.91,-4.41,-1.64,-4.43,-1.67,1.80,1.86,1.99,-2.61,-2.63,-2.76
73.64,-4.51,-1.70,-4.48,-1.67,1.74,1.81,1.93,-2.77,-2.74,-2.81
74.38,-4.57,-1.71,-4.54,-1.69,1.69,1.76,1.86,-2.88,-2.85,-2.85
75.12,-4.57,-1.67,-4.57,-1.67,1.65,1.71,1.80,-2.91,-2.91,-2.90
75.87,-4.57,-1.63,-4.58,-1.64,1.62,1.66,1.73,-2.95,-2.96,-2.94
76.63,-4.58,-1.60,-4.62,-1.64,1.58,1.61,1.66,-3.00,-3.04,-2.97
77.40,-4.65,-1.64,-4.64,-1.63,1.52,1.56,1.60,-3.12,-3.12,-3.01
78.17,-4.68,-1.63,-4.60,-1.55,1.46,1.51,1.53,-3.22,-3.14,-3.05
78.95,-4.48,-1.40,-4.47,-1.39,1.38,1.46,1.46,-3.10,-3.09,-3.08
79.74,-4.28,-1.17,-4.33,-1.22,1.30,1.41,1.40,-2.97,-3.02,-3.11
80.54,-4.21,-1.07,-4.25,-1.11,1.24,1.36,1.33,-2.97,-3.01,-3.14
81.35,-4.27,-1.10,-4.27,-1.10,1.18,1.31,1.27,-3.09,-3.09,-3.17
82.16,-4.37,-1.17,-4.32,-1.13,1.12,1.26,1.20,-3.25,-3.20,-3.20
82.98,-4.37,-1.14,-4.37,-1.14,1.08,1.21,1.14,-3.29,-3.29,-3.22
83.81,-4.37,-1.10,-4.38,-1.12,1.06,1.16,1.07,-3.31,-3.32,-3.27
84.65,-4.37,-1.07,-4.37,-1.07,1.05,1.11,1.01,-3.32,-3.32,-3.30
85.50,-4.37,-1.05,-4.37,-1.04,1.05,1.06,0.95,-3.32,-3.32,-3.32
86.35,-4.37,-1.01,-4.37,-1.01,1.04,1.02,0.88,-3.33,-3.33,-3.36
87.22,-4.37,-0.98,-4.36,-0.97,1.01,0.97,0.82,-3.35,-3.35,-3.39
88.09,-4.37,-0.94,-4.37,-0.94,0.98,0.92,0.76,-3.39,-3.39,-3.42
88.97,-4.37,-0.92,-4.41,-0.96,0.94,0.87,0.70,-3.43,-3.48,-3.45
89.86,-4.45,-0.96,-4.44,-0.96,0.90,0.82,0.64,-3.55,-3.55,-3.49
90.76,-4.51,-0.99,-4.43,-0.91,0.85,0.77,0.58,-3.66,-3.57,-3.52
91.66,-4.35,-0.80,-4.38,-0.82,0.81,0.72,0.52,-3.54,-3.57,-3.55
92.58,-4.26,-0.67,-4.30,-0.72,0.75,0.68,0.46,-3.51,-3.55,-3.59
93.51,-4.26,-0.64,-4.25,-0.64,0.69,0.63,0.41,-3.56,-3.55,-3.61
94.44,-4.26,-0.62,-4.26,-0.61,0.63,0.58,0.35,-3.62,-3.62,-3.64
95.39,-4.27,-0.60,-4.26,-0.59,0.58,0.53,0.29,-3.69,-3.68,-3.67
96.34,-4.26,-0.55,-4.25,-0.54,0.53,0.48,0.23,-3.73,-3.72,-3.71
97.30,-4.22,-0.48,-4.22,-0.48,0.49,0.43,0.18,-3.73,-3.73,-3.74
98.28,-4.18,-0.41,-4.18,-0.42,0.44,0.39,0.12,-3.74,-3.74,-3.76
99.26,-4.16,-0.38,-4.18,-0.39,0.40,0.34,0.07,-3.76,-3.78,-3.78
100.25,-4.17,-0.36,-4.19,-0.38,0.35,0.29,0.01,-3.82,-3.84,-3.81
101.25,-4.24,-0.40,-4.17,-0.33,0.30,0.24,-0.04,-3.93,-3.87,-3.84
102.27,-4.13,-0.26,-4.11,-0.24,0.24,0.19,-0.10,-3.88,-3.87,-3.87
103.29,-4.02,-0.10,-4.05,-0.14,0.17,0.15,-0.15,-3.85,-3.88,-3.92
104.32,-3.97,-0.03,-4.04,-0.09,0.09,0.10,-0.20,-3.88,-3.95,-3.94
105.37,-4.08,-0.10,-4.05,-0.07,0.01,0.05,-0.25,-4.06,-4.03,-3.98
106.42,-4.11,-0.10,-4.01,0.00,-0.05,0.00,-0.30,-4.15,-4.05,-4.01
107.48,-3.90,0.15,-3.91,0.13,-0.10,-0.05,-0.35,-3.99,-4.01,-4.05
108.56,-3.74,0.35,-3.81,0.27,-0.14,-0.09,-0.40,-3.88,-3.96,-4.09
109.64,-3.79,0.34,-3.80,0.32,-0.20,-0.14,-0.45,-3.99,-4.00,-4.13
110.74,-3.91,0.25,-3.92,0.23,-0.26,-0.19,-0.50,-4.17,-4.19,-4.15
111.85,-4.05,0.14,-4.02,0.17,-0.33,-0.24,-0.55,-4.38,-4.35,-4.18
112.97,-4.08,0.15,-3.98,0.25,-0.40,-0.29,-0.59,-4.48,-4.38,-4.23
114.10,-3.82,0.43,-3.84,0.41,-0.46,-0.33,-0.63,-4.28,-4.30,-4.25
115.24,-3.62,0.67,-3.70,0.59,-0.50,-0.38,-0.68,-4.12,-4.20,-4.29
116.39,-3.63,0.69,-3.64,0.68,-0.54,-0.43,-0.72,-4.17,-4.18,-4.32
117.55,-3.70,0.65,-3.67,0.68,-0.58,-0.48,-0.76,-4.28,-4.25,-4.34
118.73,-3.74,0.63,-3.71,0.66,-0.63,-0.52,-0.80,-4.37,-4.34,-4.37
119.92,-3.73,0.65,-3.74,0.65,-0.67,-0.57,-0.83,-4.40,-4.40,-4.38
121.12,-3.73,0.68,-3.78,0.63,-0.69,-0.62,-0.87,-4.42,-4.47,-4.41
122.33,-3.81,0.61,-3.79,0.63,-0.71,-0.67,-0.90,-4.51,-4.50,-4.42
123.55,-3.85,0.58,-3.77,0.67,-0.73,-0.71,-0.93,-4.58,-4.50,-4.43
124.79,-3.67,0.79,-3.71,0.74,-0.76,-0.76,-0.96,-4.43,-4.47,-4.45
126.03,-3.59,0.88,-3.62,0.84,-0.80,-0.81,-0.99,-4.39,-4.43,-4.47
127.29,-3.58,0.91,-3.57,0.92,-0.84,-0.85,-1.02,-4.42,-4.41,-4.48
128.57,-3.58,0.93,-3.57,0.94,-0.89,-0.90,-1.05,-4.47,-4.46,-4.51
129.85,-3.57,0.95,-3.57,0.95,-0.94,-0.95,-1.07,-4.51,-4.51,-4.52
131.15,-3.57,0.97,-3.57,0.96,-1.00,-0.99,-1.09,-4.57,-4.57,-4.53
132.46,-3.56,0.99,-3.57,0.97,-1.04,-1.04,-1.11,-4.60,-4.61,-4.55
133.79,-3.56,0.99,-3.55,1.01,-1.07,-1.09,-1.14,-4.62,-4.61,-4.55
135.12,-3.53,1.05,-3.47,1.10,-1.08,-1.13,-1.16,-4.61,-4.55,-4.58
136.48,-3.37,1.21,-3.40,1.19,-1.10,-1.18,-1.17,-4.47,-4.50,-4.58
137.84,-3.31,1.29,-3.38,1.23,-1.13,-1.23,-1.19,-4.44,-4.51,-4.60
139.22,-3.44,1.19,-3.44,1.19,-1.17,-1.27,-1.21,-4.60,-4.61,-4.63
140.61,-3.56,1.09,-3.51,1.13,-1.20,-1.32,-1.23,-4.76,-4.71,-4.65
142.02,-3.58,1.07,-3.52,1.14,-1.23,-1.36,-1.24,-4.81,-4.75,-4.65
143.44,-3.41,1.26,-3.45,1.22,-1.27,-1.41,-1.26,-4.68,-4.72,-4.67
144.87,-3.34,1.36,-3.37,1.32,-1.30,-1.45,-1.27,-4.64,-4.67,-4.69
146.32,-3.34,1.38,-3.32,1.39,-1.34,-1.49,-1.29,-4.67,-4.66,-4.72
147.78,-3.34,1.41,-3.33,1.42,-1.38,-1.54,-1.30,-4.72,-4.71,-4.75
149.26,-3.34,1.44,-3.34,1.45,-1.44,-1.58,-1.32,-4.78,-4.78,-4.78
150.75,-3.34,1.50,-3.33,1.50,-1.50,-1.62,-1.34,-4.84,-4.83,-4.84
152.26,-3.34,1.54,-3.34,1.54,-1.55,-1.67,-1.35,-4.89,-4.89,-4.88
153.78,-3.34,1.60,-3.38,1.56,-1.59,-1.71,-1.37,-4.93,-4.97,-4.94
155.32,-3.42,1.58,-3.37,1.62,-1.64,-1.75,-1.39,-5.06,-5.01,-5.00
156.88,-3.41,1.64,-3.36,1.69,-1.69,-1.79,-1.41,-5.10,-5.06,-5.05
158.44,-3.28,1.85,-3.37,1.75,-1.75,-1.83,-1.43,-5.03,-5.12,-5.12
160.03,-3.38,1.81,-3.36,1.82,-1.81,-1.87,-1.45,-5.19,-5.18,-5.18
161.63,-3.42,1.82,-3.37,1.87,-1.86,-1.91,-1.47,-5.28,-5.23,-5.24
163.24,-3.37,1.93,-3.38,1.90,-1.91,-1.95,-1.49,-5.28,-5.29,-5.30
164.88,-3.35,1.98,-3.36,1.97,-1.95,-1.99,-1.52,-5.29,-5.31,-5.33
166.53,-3.35,2.02,-3.34,2.03,-1.97,-2.02,-1.54,-5.32,-5.31,-5.36
168.19,-3.36,2.04,-3.36,2.03,-2.00,-2.06,-1.57,-5.36,-5.36,-5.39
169.87,-3.37,2.05,-3.41,2.01,-2.04,-2.09,-1.60,-5.40,-5.45,-5.42
171.57,-3.46,1.98,-3.42,2.02,-2.07,-2.13,-1.62,-5.53,-5.49,-5.44
173.29,-3.45,2.00,-3.40,2.05,-2.11,-2.16,-1.65,-5.56,-5.51,-5.45
175.02,-3.28,2.18,-3.35,2.10,-2.15,-2.20,-1.69,-5.42,-5.50,-5.45
176.77,-3.29,2.17,-3.26,2.20,-2.17,-2.23,-1.72,-5.46,-5.43,-5.46
178.54,-3.22,2.25,-3.18,2.27,-2.20,-2.26,-1.75,-5.42,-5.38,-5.46
180.32,-3.11,2.34,-3.14,2.31,-2.23,-2.29,-1.79,-5.34,-5.38,-5.45
182.13,-3.12,2.33,-3.14,2.30,-2.27,-2.32,-1.83,-5.39,-5.41,-5.44
183.95,-3.17,2.28,-3.18,2.27,-2.30,-2.35,-1.86,-5.47,-5.48,-5.45
185.79,-3.27,2.18,-3.19,2.26,-2.34,-2.38,-1.90,-5.60,-5.53,-5.45
187.65,-3.16,2.31,-3.16,2.30,-2.37,-2.41,-1.95,-5.52,-5.52,-5.47
189.52,-3.05,2.42,-3.09,2.38,-2.40,-2.43,-1.99,-5.44,-5.48,-5.47
191.42,-3.01,2.47,-3.01,2.47,-2.43,-2.46,-2.03,-5.44,-5.44,-5.48
193.33,-3.00,2.50,-2.99,2.51,-2.47,-2.48,-2.08,-5.47,-5.46,-5.49
195.27,-2.98,2.53,-2.98,2.53,-2.51,-2.50,-2.12,-5.49,-5.49,-5.50
197.22,-2.97,2.56,-2.97,2.56,-2.54,-2.52,-2.17,-5.51,-5.51,-5.53
199.19,-2.96,2.59,-2.95,2.59,-2.57,-2.54,-2.22,-5.53,-5.53,-5.55
201.18,-2.95,2.61,-2.95,2.61,-2.60,-2.56,-2.26,-5.55,-5.55,-5.56
203.19,-2.95,2.62,-2.98,2.60,-2.63,-2.58,-2.31,-5.57,-5.60,-5.57
205.23,-3.00,2.60,-2.98,2.61,-2.65,-2.60,-2.36,-5.65,-5.63,-5.60
207.28,-3.01,2.59,-2.96,2.65,-2.68,-2.62,-2.41,-5.69,-5.64,-5.60
209.35,-2.89,2.74,-2.92,2.71,-2.71,-2.63,-2.46,-5.60,-5.63,-5.63
211.44,-2.85,2.80,-2.87,2.77,-2.74,-2.64,-2.51,-5.59,-5.61,-5.65
213.56,-2.85,2.81,-2.84,2.82,-2.77,-2.66,-2.56,-5.62,-5.61,-5.65
215.69,-2.85,2.81,-2.85,2.82,-2.80,-2.67,-2.60,-5.65,-5.65,-5.66
217.85,-2.86,2.81,-2.85,2.82,-2.82,-2.68,-2.65,-5.68,-5.68,-5.67
220.03,-2.86,2.83,-2.86,2.83,-2.83,-2.69,-2.70,-5.69,-5.69,-5.69
222.23,-2.86,2.84,-2.86,2.83,-2.84,-2.70,-2.74,-5.69,-5.69,-5.70
224.45,-2.86,2.82,-2.86,2.83,-2.83,-2.70,-2.78,-5.69,-5.69,-5.68
226.70,-2.86,2.82,-2.86,2.82,-2.83,-2.71,-2.82,-5.69,-5.69,-5.68
228.96,-2.86,2.82,-2.85,2.82,-2.82,-2.72,-2.86,-5.68,-5.68,-5.68
231.25,-2.85,2.81,-2.85,2.81,-2.82,-2.72,-2.90,-5.66,-5.67,-5.66
233.57,-2.84,2.81,-2.84,2.81,-2.81,-2.72,-2.93,-5.65,-5.65,-5.65
235.90,-2.83,2.81,-2.82,2.81,-2.80,-2.73,-2.96,-5.63,-5.63,-5.63
238.26,-2.81,2.80,-2.81,2.80,-2.79,-2.73,-2.99,-5.60,-5.61,-5.61
240.64,-2.80,2.79,-2.80,2.78,-2.79,-2.73,-3.01,-5.58,-5.59,-5.59
243.05,-2.79,2.76,-2.78,2.77,-2.78,-2.73,-3.03,-5.57,-5.56,-5.55
245.48,-2.77,2.76,-2.76,2.76,-2.77,-2.73,-3.05,-5.54,-5.54,-5.53
247.93,-2.74,2.76,-2.74,2.76,-2.77,-2.72,-3.06,-5.50,-5.51,-5.50
250.41,-2.72,2.77,-2.72,2.76,-2.76,-2.72,-3.07,-5.48,-5.48,-5.49
252.92,-2.70,2.75,-2.70,2.75,-2.75,-2.72,-3.07,-5.45,-5.45,-5.45
255.45,-2.69,2.74,-2.69,2.74,-2.74,-2.71,-3.07,-5.42,-5.42,-5.43
258.00,-2.68,2.73,-2.68,2.73,-2.72,-2.71,-3.07,-5.40,-5.40,-5.41
260.58,-2.68,2.72,-2.67,2.72,-2.70,-2.70,-3.07,-5.38,-5.37,-5.39
263.19,-2.67,2.70,-2.67,2.70,-2.68,-2.70,-3.06,-5.35,-5.35,-5.37
265.82,-2.68,2.67,-2.70,2.65,-2.66,-2.69,-3.04,-5.34,-5.36,-5.35
268.48,-2.71,2.62,-2.71,2.61,-2.65,-2.68,-3.03,-5.36,-5.36,-5.32
271.16,-2.75,2.55,-2.70,2.60,-2.64,-2.67,-3.01,-5.39,-5.34,-5.30
273.87,-2.66,2.62,-2.67,2.61,-2.63,-2.67,-2.98,-5.29,-5.30,-5.28
276.61,-2.60,2.66,-2.62,2.63,-2.62,-2.66,-2.96,-5.22,-5.24,-5.25
279.38,-2.59,2.64,-2.58,2.65,-2.61,-2.65,-2.93,-5.20,-5.19,-5.23
282.17,-2.58,2.63,-2.58,2.63,-2.60,-2.64,-2.91,-5.18,-5.18,-5.21
284.99,-2.58,2.60,-2.57,2.60,-2.60,-2.63,-2.88,-5.17,-5.17,-5.17
287.84,-2.57,2.58,-2.57,2.58,-2.58,-2.62,-2.85,-5.15,-5.15,-5.15
290.72,-2.56,2.55,-2.56,2.55,-2.57,-2.61,-2.81,-5.12,-5.13,-5.11
293.63,-2.55,2.53,-2.54,2.54,-2.55,-2.60,-2.78,-5.09,-5.09,-5.08
296.57,-2.53,2.52,-2.53,2.52,-2.52,-2.59,-2.75,-5.05,-5.05,-5.04
299.53,-2.52,2.51,-2.52,2.50,-2.50,-2.58,-2.72,-5.02,-5.02,-5.03
302.53,-2.51,2.49,-2.51,2.49,-2.49,-2.57,-2.68,-4.99,-4.99,-5.00
305.55,-2.50,2.46,-2.50,2.47,-2.47,-2.56,-2.65,-4.97,-4.97,-4.96
308.61,-2.49,2.46,-2.49,2.45,-2.45,-2.55,-2.62,-4.94,-4.94,-4.94
311.69,-2.48,2.45,-2.48,2.44,-2.44,-2.54,-2.59,-4.91,-4.92,-4.93
314.81,-2.48,2.41,-2.48,2.42,-2.42,-2.53,-2.56,-4.90,-4.90,-4.89
317.96,-2.48,2.40,-2.48,2.40,-2.40,-2.52,-2.53,-4.88,-4.88,-4.88
321.14,-2.48,2.38,-2.48,2.38,-2.39,-2.51,-2.50,-4.87,-4.87,-4.86
324.35,-2.48,2.38,-2.48,2.37,-2.38,-2.50,-2.47,-4.85,-4.85,-4.85
327.59,-2.48,2.36,-2.48,2.36,-2.36,-2.49,-2.44,-4.84,-4.84,-4.83
330.87,-2.48,2.35,-2.48,2.35,-2.34,-2.48,-2.42,-4.82,-4.82,-4.83
334.18,-2.48,2.34,-2.48,2.34,-2.32,-2.47,-2.40,-4.80,-4.80,-4.82
337.52,-2.48,2.33,-2.48,2.33,-2.31,-2.46,-2.37,-4.79,-4.79,-4.81
340.90,-2.49,2.30,-2.48,2.31,-2.30,-2.45,-2.35,-4.78,-4.78,-4.79
344.30,-2.49,2.29,-2.50,2.28,-2.29,-2.44,-2.34,-4.78,-4.79,-4.78
347.75,-2.50,2.28,-2.51,2.26,-2.30,-2.43,-2.32,-4.80,-4.81,-4.77
351.23,-2.54,2.23,-2.50,2.27,-2.31,-2.43,-2.30,-4.85,-4.81,-4.76
354.74,-2.47,2.30,-2.46,2.30,-2.33,-2.42,-2.29,-4.79,-4.79,-4.77
358.28,-2.39,2.37,-2.42,2.34,-2.34,-2.41,-2.28,-4.73,-4.76,-4.76
361.87,-2.37,2.39,-2.37,2.39,-2.35,-2.40,-2.27,-4.72,-4.72,-4.76
365.49,-2.37,2.38,-2.34,2.41,-2.36,-2.40,-2.26,-4.73,-4.70,-4.75
369.14,-2.33,2.42,-2.35,2.40,-2.37,-2.39,-2.26,-4.69,-4.72,-4.75
372.83,-2.36,2.39,-2.37,2.37,-2.37,-2.39,-2.25,-4.72,-4.74,-4.75
376.56,-2.43,2.32,-2.40,2.34,-2.36,-2.38,-2.25,-4.79,-4.76,-4.75
380.33,-2.44,2.30,-2.43,2.31,-2.35,-2.38,-2.25,-4.79,-4.78,-4.73
384.13,-2.43,2.32,-2.43,2.31,-2.34,-2.37,-2.25,-4.76,-4.77,-4.74
387.97,-2.42,2.33,-2.42,2.32,-2.32,-2.37,-2.25,-4.74,-4.75,-4.74
391.85,-2.42,2.33,-2.42,2.33,-2.32,-2.37,-2.26,-4.74,-4.73,-4.75
395.77,-2.42,2.32,-2.42,2.32,-2.31,-2.36,-2.26,-4.73,-4.73,-4.74
399.73,-2.42,2.32,-2.42,2.32,-2.31,-2.36,-2.27,-4.73,-4.73,-4.74
403.72,-2.42,2.33,-2.42,2.32,-2.31,-2.36,-2.28,-4.73,-4.73,-4.75
407.76,-2.43,2.32,-2.42,2.32,-2.31,-2.36,-2.29,-4.74,-4.74,-4.75
411.84,-2.43,2.31,-2.43,2.32,-2.32,-2.36,-2.30,-4.75,-4.75,-4.74
415.96,-2.43,2.32,-2.44,2.30,-2.33,-2.36,-2.31,-4.75,-4.77,-4.75
420.12,-2.45,2.30,-2.44,2.31,-2.34,-2.36,-2.32,-4.79,-4.78,-4.75
424.32,-2.44,2.30,-2.41,2.34,-2.35,-2.36,-2.34,-4.79,-4.76,-4.74
428.56,-2.35,2.39,-2.36,2.37,-2.37,-2.37,-2.35,-4.72,-4.74,-4.74
432.85,-2.30,2.42,-2.31,2.41,-2.39,-2.37,-2.36,-4.69,-4.70,-4.72
