frequency,raw,error,smoothed,error_smoothed,equalization,parametric_eq,fixed_band_eq,equalized_raw,equalized_smoothed,target
20.00,6.44,1.37,6.43,1.37,-1.36,-1.69,-1.37,5.07,5.07,5.07
20.20,6.52,1.47,6.52,1.46,-1.46,-1.73,-1.40,5.05,5.05,5.05
20.40,6.60,1.56,6.60,1.56,-1.56,-1.76,-1.44,5.04,5.04,5.04
20.61,6.67,1.64,6.68,1.65,-1.65,-1.80,-1.48,5.02,5.03,5.04
20.81,6.76,1.74,6.75,1.74,-1.74,-1.84,-1.53,5.02,5.02,5.02
21.02,6.83,1.82,6.83,1.82,-1.82,-1.87,-1.57,5.01,5.01,5.01
21.23,6.90,1.90,6.89,1.89,-1.89,-1.91,-1.61,5.00,5.00,5.00
21.44,6.96,1.95,6.96,1.96,-1.96,-1.95,-1.66,4.99,4.99,5.01
21.66,7.02,2.02,7.02,2.02,-2.03,-1.99,-1.71,4.99,4.99,5.00
21.87,7.08,2.09,7.08,2.09,-2.09,-2.03,-1.75,4.99,4.99,4.99
22.09,7.14,2.16,7.13,2.16,-2.15,-2.07,-1.80,4.99,4.99,4.97
22.31,7.19,2.21,7.18,2.21,-2.20,-2.11,-1.85,4.99,4.98,4.97
22.54,7.22,2.25,7.22,2.25,-2.25,-2.15,-1.90,4.97,4.97,4.96
22.76,7.25,2.27,7.25,2.28,-2.29,-2.19,-1.96,4.96,4.96,4.97
22.99,7.29,2.32,7.29,2.32,-2.33,-2.23,-2.01,4.95,4.95,4.96
23.22,7.33,2.37,7.33,2.37,-2.37,-2.27,-2.07,4.95,4.95,4.95
23.45,7.37,2.41,7.37,2.41,-2.41,-2.31,-2.12,4.95,4.95,4.95
23.69,7.41,2.45,7.41,2.46,-2.45,-2.35,-2.18,4.95,4.95,4.95
23.92,7.45,2.50,7.45,2.50,-2.49,-2.39,-2.24,4.95,4.95,4.95
24.16,7.49,2.54,7.49,2.53,-2.54,-2.43,-2.30,4.95,4.95,4.95
24.40,7.53,2.57,7.53,2.57,-2.58,-2.47,-2.36,4.94,4.95,4.96
24.65,7.57,2.61,7.57,2.62,-2.62,-2.51,-2.42,4.94,4.95,4.96
24.89,7.62,2.67,7.61,2.67,-2.66,-2.55,-2.49,4.95,4.95,4.95
25.14,7.66,2.72,7.65,2.71,-2.70,-2.59,-2.55,4.96,4.95,4.94
25.39,7.69,2.75,7.69,2.75,-2.74,-2.63,-2.61,4.95,4.95,4.94
25.65,7.71,2.78,7.71,2.78,-2.77,-2.67,-2.68,4.93,4.94,4.93
25.91,7.74,2.81,7.73,2.80,-2.81,-2.70,-2.74,4.93,4.92,4.92
26.16,7.76,2.82,7.76,2.83,-2.85,-2.74,-2.81,4.91,4.91,4.93
26.43,7.79,2.86,7.79,2.86,-2.88,-2.78,-2.87,4.90,4.91,4.92
26.69,7.83,2.90,7.83,2.91,-2.92,-2.81,-2.93,4.91,4.91,4.92
26.96,7.88,2.96,7.87,2.96,-2.96,-2.85,-2.99,4.92,4.92,4.92
27.23,7.92,3.01,7.92,3.00,-2.99,-2.88,-3.06,4.92,4.92,4.91
27.50,7.96,3.05,7.95,3.04,-3.03,-2.92,-3.12,4.93,4.92,4.91
27.77,7.99,3.07,7.99,3.07,-3.07,-2.95,-3.17,4.92,4.92,4.92
28.05,8.02,3.10,8.02,3.10,-3.10,-2.98,-3.23,4.92,4.92,4.92
28.33,8.05,3.13,8.04,3.13,-3.13,-3.02,-3.29,4.92,4.91,4.91
28.62,8.07,3.15,8.07,3.15,-3.16,-3.05,-3.34,4.91,4.91,4.91
28.90,8.09,3.16,8.09,3.17,-3.18,-3.08,-3.39,4.91,4.91,4.92
29.19,8.12,3.20,8.12,3.20,-3.20,-3.11,-3.43,4.92,4.92,4.92
29.48,8.15,3.23,8.14,3.22,-3.22,-3.13,-3.48,4.93,4.93,4.92
29.78,8.17,3.25,8.16,3.24,-3.23,-3.16,-3.52,4.94,4.94,4.92
30.08,8.18,3.24,8.17,3.25,-3.24,-3.19,-3.56,4.94,4.94,4.94
30.38,8.18,3.25,8.18,3.25,-3.25,-3.22,-3.59,4.93,4.93,4.92
30.68,8.18,3.25,8.18,3.25,-3.25,-3.24,-3.62,4.92,4.92,4.92
30.99,8.18,3.26,8.18,3.26,-3.26,-3.27,-3.64,4.91,4.92,4.92
31.30,8.19,3.27,8.18,3.26,-3.27,-3.29,-3.67,4.92,4.91,4.92
31.61,8.19,3.27,8.19,3.27,-3.28,-3.31,-3.69,4.90,4.91,4.92
31.93,8.20,3.29,8.20,3.29,-3.30,-3.34,-3.70,4.90,4.90,4.90
32.24,8.23,3.32,8.22,3.32,-3.33,-3.36,-3.71,4.90,4.90,4.90
32.57,8.25,3.36,8.25,3.35,-3.35,-3.38,-3.72,4.89,4.89,4.89
32.89,8.28,3.39,8.28,3.39,-3.39,-3.40,-3.72,4.89,4.89,4.89
33.22,8.31,3.42,8.31,3.42,-3.42,-3.42,-3.72,4.88,4.88,4.89
33.55,8.35,3.46,8.34,3.46,-3.46,-3.44,-3.72,4.88,4.88,4.88
33.89,8.38,3.51,8.38,3.51,-3.50,-3.46,-3.72,4.87,4.87,4.87
34.23,8.41,3.55,8.41,3.55,-3.54,-3.48,-3.71,4.86,4.86,4.86
34.57,8.44,3.58,8.43,3.58,-3.58,-3.50,-3.70,4.86,4.85,4.86
34.92,8.46,3.61,8.46,3.61,-3.62,-3.52,-3.69,4.84,4.85,4.84
35.27,8.49,3.64,8.48,3.65,-3.65,-3.54,-3.68,4.84,4.84,4.85
35.62,8.51,3.69,8.50,3.68,-3.67,-3.56,-3.67,4.83,4.83,4.82
35.97,8.52,3.70,8.52,3.71,-3.70,-3.58,-3.65,4.82,4.82,4.81
36.33,8.53,3.73,8.52,3.73,-3.72,-3.60,-3.64,4.81,4.81,4.80
36.70,8.53,3.74,8.52,3.74,-3.73,-3.62,-3.62,4.79,4.79,4.79
37.06,8.52,3.74,8.52,3.75,-3.75,-3.64,-3.61,4.77,4.77,4.77
37.43,8.52,3.76,8.51,3.76,-3.76,-3.66,-3.60,4.75,4.75,4.76
37.81,8.51,3.76,8.51,3.77,-3.78,-3.68,-3.58,4.73,4.73,4.74
38.19,8.51,3.79,8.51,3.78,-3.79,-3.70,-3.57,4.72,4.72,4.72
38.57,8.51,3.80,8.51,3.80,-3.81,-3.72,-3.56,4.70,4.70,4.71
38.95,8.51,3.82,8.51,3.82,-3.82,-3.74,-3.55,4.68,4.68,4.68
39.34,8.51,3.85,8.51,3.85,-3.84,-3.76,-3.54,4.66,4.66,4.66
39.74,8.51,3.86,8.51,3.87,-3.86,-3.78,-3.54,4.64,4.64,4.64
40.14,8.51,3.89,8.51,3.89,-3.88,-3.80,-3.53,4.62,4.62,4.62
40.54,8.51,3.90,8.51,3.91,-3.90,-3.82,-3.53,4.60,4.60,4.60
40.94,8.51,3.93,8.51,3.93,-3.92,-3.84,-3.53,4.58,4.58,4.58
41.35,8.51,3.95,8.51,3.94,-3.94,-3.86,-3.54,4.56,4.56,4.56
41.76,8.51,3.96,8.51,3.96,-3.96,-3.88,-3.54,4.54,4.54,4.54
42.18,8.51,3.98,8.51,3.98,-3.98,-3.90,-3.55,4.52,4.52,4.53
42.60,8.51,4.00,8.51,4.00,-4.00,-3.93,-3.56,4.50,4.50,4.50
43.03,8.51,4.03,8.51,4.03,-4.03,-3.95,-3.57,4.48,4.48,4.48
43.46,8.51,4.05,8.51,4.05,-4.05,-3.97,-3.59,4.45,4.45,4.46
43.90,8.51,4.07,8.51,4.08,-4.08,-3.99,-3.61,4.43,4.43,4.43
44.33,8.52,4.10,8.52,4.10,-4.11,-4.01,-3.63,4.41,4.41,4.41
44.78,8.53,4.14,8.52,4.13,-4.14,-4.04,-3.65,4.39,4.39,4.39
45.23,8.53,4.16,8.53,4.16,-4.16,-4.06,-3.68,4.36,4.37,4.37
45.68,8.53,4.19,8.52,4.19,-4.19,-4.08,-3.71,4.34,4.34,4.33
46.13,8.52,4.22,8.51,4.22,-4.21,-4.10,-3.74,4.31,4.31,4.29
46.60,8.50,4.23,8.50,4.23,-4.23,-4.12,-3.77,4.27,4.27,4.26
47.06,8.48,4.24,8.48,4.24,-4.24,-4.15,-3.81,4.23,4.23,4.23
47.53,8.46,4.25,8.45,4.25,-4.26,-4.17,-3.85,4.20,4.20,4.20
48.01,8.43,4.27,8.43,4.27,-4.27,-4.19,-3.89,4.16,4.16,4.16
48.49,8.40,4.27,8.40,4.27,-4.27,-4.21,-3.94,4.12,4.12,4.13
48.97,8.37,4.28,8.37,4.28,-4.28,-4.23,-3.98,4.09,4.09,4.08
49.46,8.34,4.28,8.34,4.29,-4.28,-4.26,-4.03,4.05,4.05,4.05
49.96,8.31,4.30,8.31,4.29,-4.29,-4.28,-4.08,4.02,4.02,4.00
50.46,8.28,4.30,8.28,4.30,-4.29,-4.30,-4.14,3.98,3.98,3.98
50.96,8.25,4.30,8.25,4.30,-4.30,-4.32,-4.19,3.95,3.95,3.95
51.47,8.23,4.31,8.22,4.31,-4.31,-4.34,-4.24,3.92,3.91,3.92
51.99,8.20,4.31,8.20,4.32,-4.33,-4.36,-4.30,3.87,3.88,3.88
52.51,8.19,4.34,8.19,4.33,-4.35,-4.38,-4.36,3.84,3.84,3.85
53.03,8.18,4.35,8.18,4.36,-4.37,-4.40,-4.41,3.80,3.81,3.82
53.56,8.18,4.40,8.18,4.39,-4.40,-4.42,-4.47,3.77,3.77,3.78
54.10,8.18,4.43,8.18,4.43,-4.43,-4.44,-4.53,3.74,3.74,3.75
54.64,8.18,4.47,8.18,4.47,-4.47,-4.46,-4.58,3.71,3.71,3.71
55.18,8.18,4.51,8.18,4.51,-4.50,-4.48,-4.64,3.68,3.68,3.66
55.74,8.18,4.55,8.17,4.54,-4.52,-4.49,-4.69,3.65,3.65,3.63
56.29,8.16,4.55,8.16,4.55,-4.54,-4.51,-4.74,3.62,3.62,3.61
56.86,8.14,4.55,8.14,4.56,-4.55,-4.53,-4.79,3.59,3.59,3.58
57.42,8.11,4.56,8.11,4.56,-4.55,-4.54,-4.84,3.55,3.55,3.54
58.00,8.08,4.56,8.08,4.56,-4.55,-4.56,-4.88,3.52,3.52,3.51
58.58,8.05,4.54,8.05,4.55,-4.55,-4.58,-4.92,3.49,3.49,3.50
59.16,8.02,4.54,8.02,4.54,-4.55,-4.59,-4.96,3.46,3.46,3.47
59.76,7.99,4.54,7.99,4.54,-4.56,-4.61,-4.99,3.43,3.43,3.44
60.35,7.96,4.55,7.96,4.56,-4.57,-4.62,-5.01,3.39,3.39,3.40
60.96,7.94,4.58,7.94,4.58,-4.59,-4.63,-5.04,3.35,3.35,3.36
61.57,7.92,4.61,7.92,4.60,-4.60,-4.65,-5.06,3.31,3.31,3.31
62.18,7.90,4.63,7.90,4.63,-4.62,-4.66,-5.07,3.27,3.27,3.26
62.80,7.88,4.66,7.88,4.66,-4.65,-4.67,-5.08,3.23,3.23,3.22
63.43,7.86,4.68,7.85,4.68,-4.67,-4.68,-5.08,3.19,3.18,3.17
64.07,7.83,4.69,7.83,4.69,-4.69,-4.69,-5.08,3.14,3.14,3.14
64.71,7.81,4.70,7.81,4.71,-4.71,-4.70,-5.07,3.10,3.10,3.10
65.35,7.79,4.72,7.79,4.72,-4.73,-4.71,-5.06,3.06,3.06,3.06
66.01,7.77,4.74,7.77,4.74,-4.75,-4.72,-5.05,3.02,3.02,3.03
66.67,7.75,4.75,7.75,4.76,-4.76,-4.73,-5.03,2.99,2.99,3.00
67.33,7.73,4.78,7.73,4.78,-4.77,-4.74,-5.01,2.95,2.95,2.95
68.01,7.71,4.80,7.70,4.79,-4.79,-4.75,-4.98,2.92,2.92,2.91
68.69,7.68,4.81,7.68,4.81,-4.79,-4.75,-4.95,2.88,2.88,2.87
69.37,7.64,4.80,7.64,4.81,-4.80,-4.76,-4.92,2.84,2.84,2.83
70.07,7.61,4.81,7.60,4.80,-4.80,-4.76,-4.89,2.80,2.80,2.80
70.77,7.56,4.80,7.56,4.80,-4.81,-4.77,-4.85,2.75,2.75,2.76
71.48,7.52,4.80,7.52,4.80,-4.81,-4.78,-4.82,2.71,2.71,2.71
72.19,7.48,4.81,7.47,4.81,-4.81,-4.78,-4.78,2.67,2.66,2.67
72.91,7.44,4.81,7.43,4.81,-4.81,-4.78,-4.74,2.62,2.62,2.63
73.64,7.40,4.81,7.40,4.81,-4.82,-4.79,-4.71,2.57,2.58,2.58
74.38,7.37,4.82,7.37,4.82,-4.83,-4.79,-4.67,2.53,2.54,2.54
75.12,7.36,4.84,7.35,4.84,-4.84,-4.79,-4.63,2.52,2.51,2.52
75.87,7.34,4.85,7.34,4.85,-4.85,-4.80,-4.59,2.49,2.49,2.49
76.63,7.33,4.87,7.32,4.87,-4.85,-4.80,-4.56,2.47,2.47,2.46
77.40,7.30,4.87,7.29,4.87,-4.86,-4.80,-4.53,2.44,2.44,2.42
78.17,7.26,4.86,7.26,4.87,-4.86,-4.80,-4.49,2.40,2.40,2.39
78.95,7.23,4.86,7.22,4.86,-4.86,-4.81,-4.47,2.37,2.37,2.37
79.74,7.19,4.84,7.19,4.85,-4.86,-4.81,-4.44,2.33,2.33,2.34
80.54,7.16,4.85,7.16,4.84,-4.86,-4.81,-4.41,2.30,2.30,2.31
81.35,7.13,4.84,7.13,4.84,-4.86,-4.81,-4.39,2.27,2.27,2.28
82.16,7.11,4.85,7.11,4.85,-4.86,-4.81,-4.37,2.24,2.24,2.26
82.98,7.09,4.87,7.09,4.87,-4.87,-4.81,-4.35,2.22,2.22,2.22
83.81,7.07,4.88,7.07,4.88,-4.87,-4.81,-4.34,2.20,2.20,2.18
84.65,7.05,4.89,7.04,4.89,-4.87,-4.81,-4.33,2.17,2.17,2.15
85.50,7.01,4.89,7.00,4.89,-4.87,-4.81,-4.32,2.13,2.13,2.11
86.35,6.96,4.87,6.96,4.88,-4.87,-4.81,-4.32,2.08,2.09,2.08
87.22,6.92,4.86,6.91,4.86,-4.87,-4.81,-4.31,2.05,2.04,2.05
88.09,6.87,4.86,6.87,4.85,-4.86,-4.81,-4.32,2.00,2.00,2.01
88.97,6.83,4.85,6.83,4.85,-4.86,-4.81,-4.32,1.97,1.97,1.98
89.86,6.79,4.85,6.79,4.85,-4.85,-4.81,-4.33,1.93,1.93,1.94
90.76,6.76,4.85,6.75,4.85,-4.85,-4.81,-4.34,1.90,1.90,1.90
91.66,6.72,4.85,6.72,4.85,-4.85,-4.81,-4.36,1.87,1.87,1.87
92.58,6.69,4.85,6.69,4.85,-4.85,-4.81,-4.37,1.84,1.84,1.83
93.51,6.66,4.86,6.65,4.85,-4.85,-4.81,-4.39,1.81,1.80,1.80
94.44,6.62,4.85,6.62,4.86,-4.85,-4.81,-4.42,1.76,1.77,1.76
95.39,6.58,4.86,6.57,4.85,-4.85,-4.82,-4.45,1.72,1.72,1.72
96.34,6.53,4.85,6.53,4.85,-4.85,-4.82,-4.48,1.67,1.67,1.67
97.30,6.48,4.84,6.48,4.85,-4.86,-4.82,-4.51,1.62,1.63,1.64
98.28,6.45,4.85,6.45,4.85,-4.86,-4.82,-4.54,1.59,1.59,1.60
99.26,6.42,4.87,6.41,4.86,-4.86,-4.82,-4.58,1.55,1.55,1.55
100.25,6.39,4.87,6.39,4.87,-4.86,-4.82,-4.62,1.52,1.53,1.51
101.25,6.36,4.86,6.36,4.87,-4.86,-4.82,-4.66,1.50,1.50,1.50
102.27,6.33,4.87,6.32,4.86,-4.86,-4.83,-4.71,1.47,1.47,1.46
103.29,6.29,4.87,6.29,4.86,-4.85,-4.83,-4.75,1.44,1.44,1.42
104.32,6.25,4.84,6.25,4.85,-4.84,-4.83,-4.80,1.40,1.40,1.40
105.37,6.21,4.84,6.20,4.84,-4.84,-4.83,-4.84,1.37,1.36,1.36
106.42,6.16,4.82,6.16,4.82,-4.83,-4.84,-4.89,1.32,1.33,1.34
107.48,6.12,4.82,6.12,4.82,-4.83,-4.84,-4.94,1.29,1.29,1.30
108.56,6.09,4.81,6.08,4.81,-4.83,-4.85,-4.99,1.26,1.26,1.27
109.64,6.06,4.82,6.06,4.83,-4.83,-4.85,-5.04,1.22,1.23,1.23
110.74,6.05,4.84,6.04,4.84,-4.84,-4.85,-5.08,1.21,1.21,1.21
111.85,6.03,4.86,6.02,4.85,-4.84,-4.86,-5.13,1.18,1.18,1.17
112.97,6.00,4.86,6.00,4.86,-4.85,-4.87,-5.17,1.15,1.15,1.13
114.10,5.97,4.86,5.96,4.87,-4.86,-4.87,-5.21,1.11,1.11,1.11
115.24,5.93,4.87,5.93,4.87,-4.86,-4.88,-5.25,1.07,1.07,1.06
116.39,5.89,4.87,5.89,4.87,-4.86,-4.88,-5.29,1.02,1.02,1.01
117.55,5.85,4.86,5.84,4.86,-4.87,-4.89,-5.32,0.98,0.98,0.99
118.73,5.81,4.86,5.81,4.86,-4.87,-4.90,-5.35,0.93,0.94,0.94
119.92,5.78,4.86,5.78,4.86,-4.88,-4.90,-5.38,0.90,0.91,0.92
121.12,5.77,4.87,5.77,4.88,-4.88,-4.91,-5.40,0.89,0.89,0.89
122.33,5.76,4.90,5.75,4.89,-4.89,-4.92,-5.42,0.87,0.87,0.86
123.55,5.74,4.91,5.73,4.90,-4.89,-4.93,-5.43,0.85,0.84,0.83
124.79,5.70,4.89,5.70,4.90,-4.89,-4.94,-5.44,0.81,0.81,0.81
126.03,5.67,4.90,5.66,4.90,-4.89,-4.94,-5.44,0.78,0.77,0.76
127.29,5.63,4.89,5.62,4.89,-4.89,-4.95,-5.44,0.74,0.73,0.73
128.57,5.58,4.87,5.58,4.88,-4.89,-4.96,-5.44,0.69,0.70,0.70
129.85,5.54,4.87,5.54,4.87,-4.88,-4.97,-5.43,0.65,0.65,0.66
131.15,5.50,4.87,5.49,4.87,-4.88,-4.98,-5.41,0.62,0.62,0.62
132.46,5.46,4.87,5.46,4.88,-4.88,-4.99,-5.39,0.58,0.58,0.59
133.79,5.43,4.88,5.43,4.88,-4.88,-5.00,-5.37,0.55,0.55,0.55
135.12,5.41,4.89,5.40,4.88,-4.88,-5.02,-5.35,0.52,0.52,0.51
136.48,5.38,4.88,5.38,4.89,-4.89,-5.03,-5.32,0.49,0.49,0.50
137.84,5.36,4.90,5.35,4.90,-4.89,-5.04,-5.29,0.46,0.46,0.46
139.22,5.33,4.91,5.33,4.90,-4.90,-5.05,-5.26,0.43,0.43,0.42
140.61,5.31,4.91,5.30,4.91,-4.91,-5.06,-5.22,0.40,0.39,0.39
142.02,5.28,4.92,5.28,4.92,-4.92,-5.07,-5.19,0.36,0.36,0.36
143.44,5.26,4.93,5.26,4.92,-4.93,-5.09,-5.15,0.33,0.33,0.33
144.87,5.25,4.93,5.24,4.93,-4.94,-5.10,-5.11,0.31,0.30,0.32
146.32,5.24,4.95,5.24,4.95,-4.96,-5.11,-5.08,0.28,0.28,0.29
147.78,5.24,4.97,5.24,4.97,-4.98,-5.12,-5.04,0.26,0.26,0.27
149.26,5.24,5.00,5.24,5.00,-5.00,-5.14,-5.01,0.24,0.24,0.24
150.75,5.25,5.03,5.25,5.03,-5.03,-5.15,-4.97,0.22,0.22,0.21
152.26,5.26,5.06,5.25,5.06,-5.05,-5.16,-4.94,0.20,0.20,0.19
153.78,5.26,5.09,5.26,5.09,-5.08,-5.17,-4.90,0.17,0.18,0.17
155.32,5.26,5.11,5.26,5.11,-5.11,-5.19,-4.87,0.15,0.15,0.14
156.88,5.26,5.14,5.26,5.14,-5.14,-5.20,-4.85,0.12,0.12,0.12
158.44,5.26,5.17,5.26,5.16,-5.17,-5.21,-4.82,0.09,0.09,0.09
160.03,5.26,5.19,5.26,5.19,-5.20,-5.23,-4.80,0.06,0.06,0.06
161.63,5.26,5.22,5.26,5.23,-5.23,-5.24,-4.78,0.03,0.03,0.03
163.24,5.26,5.26,5.26,5.26,-5.26,-5.25,-4.76,-0.00,-0.00,-0.01
164.88,5.26,5.29,5.26,5.29,-5.29,-5.27,-4.75,-0.03,-0.03,-0.04
166.53,5.26,5.32,5.26,5.32,-5.32,-5.28,-4.74,-0.06,-0.06,-0.07
168.19,5.26,5.35,5.26,5.35,-5.35,-5.29,-4.73,-0.10,-0.10,-0.10
169.87,5.26,5.39,5.26,5.38,-5.39,-5.31,-4.72,-0.13,-0.13,-0.13
171.57,5.26,5.42,5.26,5.42,-5.43,-5.32,-4.72,-0.17,-0.17,-0.16
173.29,5.26,5.45,5.26,5.46,-5.46,-5.33,-4.73,-0.21,-0.20,-0.20
175.02,5.27,5.50,5.27,5.50,-5.50,-5.34,-4.73,-0.23,-0.23,-0.23
176.77,5.28,5.54,5.28,5.54,-5.54,-5.35,-4.74,-0.26,-0.26,-0.27
178.54,5.29,5.58,5.28,5.58,-5.57,-5.37,-4.76,-0.29,-0.29,-0.29
180.32,5.29,5.62,5.28,5.61,-5.61,-5.38,-4.77,-0.32,-0.32,-0.33
182.13,5.28,5.64,5.28,5.64,-5.64,-5.39,-4.79,-0.36,-0.36,-0.37
183.95,5.27,5.66,5.26,5.66,-5.66,-5.40,-4.82,-0.40,-0.40,-0.40
185.79,5.25,5.68,5.25,5.68,-5.68,-5.41,-4.84,-0.44,-0.44,-0.44
187.65,5.23,5.69,5.23,5.70,-5.70,-5.42,-4.88,-0.48,-0.48,-0.47
189.52,5.21,5.71,5.21,5.71,-5.72,-5.43,-4.91,-0.51,-0.51,-0.51
191.42,5.19,5.72,5.19,5.72,-5.73,-5.44,-4.95,-0.54,-0.54,-0.54
193.33,5.17,5.73,5.16,5.74,-5.73,-5.45,-4.99,-0.57,-0.57,-0.57
195.27,5.14,5.74,5.14,5.74,-5.73,-5.46,-5.03,-0.60,-0.60,-0.60
197.22,5.11,5.75,5.10,5.74,-5.73,-5.46,-5.08,-0.62,-0.63,-0.64
199.19,5.07,5.72,5.06,5.73,-5.72,-5.47,-5.13,-0.65,-0.65,-0.66
201.18,5.02,5.71,5.02,5.71,-5.70,-5.48,-5.18,-0.69,-0.68,-0.69
203.19,4.98,5.69,4.97,5.68,-5.68,-5.48,-5.23,-0.71,-0.71,-0.71
205.23,4.93,5.66,4.93,5.66,-5.66,-5.49,-5.28,-0.73,-0.73,-0.74
207.28,4.88,5.63,4.88,5.64,-5.64,-5.50,-5.34,-0.76,-0.76,-0.75
209.35,4.84,5.62,4.83,5.61,-5.62,-5.50,-5.40,-0.79,-0.79,-0.78
211.44,4.79,5.59,4.79,5.59,-5.61,-5.50,-5.45,-0.82,-0.82,-0.81
213.56,4.76,5.58,4.76,5.58,-5.60,-5.51,-5.51,-0.84,-0.84,-0.82
215.69,4.74,5.58,4.74,5.58,-5.59,-5.51,-5.57,-0.85,-0.85,-0.84
217.85,4.73,5.59,4.72,5.59,-5.58,-5.51,-5.63,-0.86,-0.86,-0.87
220.03,4.71,5.59,4.70,5.59,-5.58,-5.51,-5.68,-0.87,-0.87,-0.89
222.23,4.68,5.59,4.68,5.59,-5.57,-5.51,-5.73,-0.89,-0.89,-0.91
224.45,4.65,5.58,4.64,5.57,-5.56,-5.51,-5.78,-0.92,-0.92,-0.93
226.70,4.61,5.55,4.61,5.55,-5.55,-5.51,-5.83,-0.94,-0.94,-0.94
228.96,4.58,5.53,4.57,5.53,-5.53,-5.51,-5.88,-0.96,-0.96,-0.95
231.25,4.54,5.51,4.54,5.51,-5.52,-5.51,-5.92,-0.98,-0.98,-0.97
233.57,4.51,5.49,4.51,5.49,-5.50,-5.51,-5.95,-0.99,-0.99,-0.98
235.90,4.48,5.48,4.48,5.48,-5.48,-5.50,-5.98,-1.00,-1.00,-1.00
238.26,4.46,5.47,4.46,5.46,-5.46,-5.50,-6.01,-1.00,-1.00,-1.01
240.64,4.44,5.43,4.43,5.44,-5.44,-5.49,-6.03,-1.01,-1.01,-1.00
243.05,4.42,5.42,4.41,5.43,-5.42,-5.48,-6.04,-1.01,-1.01,-1.01
245.48,4.39,5.41,4.39,5.41,-5.41,-5.48,-6.05,-1.02,-1.02,-1.02
247.93,4.37,5.40,4.37,5.39,-5.39,-5.47,-6.05,-1.02,-1.02,-1.03
250.41,4.35,5.37,4.34,5.37,-5.36,-5.46,-6.04,-1.02,-1.02,-1.02
252.92,4.32,5.33,4.32,5.34,-5.34,-5.45,-6.03,-1.02,-1.02,-1.02
255.45,4.30,5.32,4.29,5.31,-5.31,-5.44,-6.01,-1.02,-1.02,-1.02
258.00,4.27,5.29,4.26,5.29,-5.29,-5.43,-5.98,-1.02,-1.02,-1.02
260.58,4.24,5.26,4.24,5.26,-5.26,-5.41,-5.95,-1.03,-1.03,-1.03
263.19,4.21,5.23,4.21,5.23,-5.24,-5.40,-5.91,-1.03,-1.03,-1.02
265.82,4.19,5.21,4.19,5.21,-5.22,-5.39,-5.86,-1.03,-1.03,-1.03
268.48,4.17,5.19,4.17,5.19,-5.19,-5.37,-5.81,-1.02,-1.03,-1.02
271.16,4.15,5.18,4.14,5.17,-5.17,-5.35,-5.76,-1.02,-1.02,-1.03
273.87,4.12,5.14,4.12,5.15,-5.14,-5.34,-5.70,-1.02,-1.02,-1.03
276.61,4.09,5.12,4.09,5.12,-5.11,-5.32,-5.63,-1.02,-1.02,-1.03
279.38,4.06,5.10,4.06,5.09,-5.08,-5.30,-5.56,-1.03,-1.03,-1.05
282.17,4.03,5.06,4.02,5.06,-5.06,-5.28,-5.49,-1.03,-1.03,-1.03
284.99,4.00,5.02,4.00,5.03,-5.03,-5.26,-5.42,-1.04,-1.04,-1.02
287.84,3.98,4.99,3.98,5.00,-5.01,-5.24,-5.35,-1.04,-1.04,-1.02
290.72,3.97,5.00,3.96,4.99,-5.00,-5.21,-5.27,-1.03,-1.04,-1.03
293.63,3.96,4.98,3.96,4.98,-4.99,-5.19,-5.19,-1.03,-1.03,-1.03
296.57,3.96,4.97,3.96,4.98,-4.98,-5.17,-5.12,-1.02,-1.02,-1.01
299.53,3.96,4.97,3.96,4.97,-4.97,-5.14,-5.04,-1.02,-1.01,-1.01
302.53,3.97,4.97,3.96,4.97,-4.96,-5.12,-4.96,-1.00,-1.00,-1.01
305.55,3.97,4.97,3.96,4.97,-4.95,-5.09,-4.88,-0.99,-0.99,-1.00
308.61,3.96,4.95,3.95,4.95,-4.94,-5.06,-4.81,-0.98,-0.98,-0.99
311.69,3.94,4.92,3.94,4.92,-4.92,-5.03,-4.74,-0.98,-0.98,-0.99
314.81,3.91,4.89,3.91,4.89,-4.89,-5.01,-4.66,-0.98,-0.98,-0.98
317.96,3.89,4.86,3.88,4.86,-4.86,-4.98,-4.59,-0.97,-0.97,-0.97
321.14,3.86,4.82,3.86,4.82,-4.82,-4.95,-4.53,-0.97,-0.97,-0.97
324.35,3.83,4.80,3.82,4.78,-4.78,-4.91,-4.46,-0.96,-0.96,-0.97
327.59,3.79,4.73,3.79,4.74,-4.74,-4.88,-4.40,-0.96,-0.96,-0.94
330.87,3.76,4.70,3.76,4.70,-4.71,-4.85,-4.34,-0.95,-0.95,-0.94
334.18,3.73,4.67,3.73,4.66,-4.67,-4.82,-4.28,-0.94,-0.94,-0.95
337.52,3.71,4.64,3.70,4.64,-4.64,-4.78,-4.23,-0.93,-0.94,-0.93
340.90,3.68,4.60,3.68,4.60,-4.61,-4.75,-4.17,-0.93,-0.93,-0.92
344.30,3.67,4.58,3.67,4.58,-4.58,-4.71,-4.13,-0.92,-0.92,-0.91
347.75,3.66,4.56,3.65,4.56,-4.56,-4.68,-4.08,-0.91,-0.91,-0.91
351.23,3.65,4.54,3.65,4.54,-4.55,-4.64,-4.04,-0.90,-0.90,-0.90
354.74,3.64,4.52,3.64,4.53,-4.53,-4.60,-4.00,-0.89,-0.89,-0.88
358.28,3.64,4.52,3.63,4.52,-4.51,-4.57,-3.96,-0.88,-0.88,-0.88
361.87,3.63,4.51,3.63,4.50,-4.49,-4.53,-3.93,-0.87,-0.87,-0.88
365.49,3.62,4.48,3.62,4.48,-4.47,-4.49,-3.90,-0.86,-0.86,-0.87
369.14,3.60,4.45,3.60,4.46,-4.45,-4.45,-3.87,-0.85,-0.85,-0.86
372.83,3.58,4.42,3.57,4.42,-4.42,-4.41,-3.85,-0.85,-0.85,-0.85
376.56,3.55,4.40,3.55,4.39,-4.39,-4.37,-3.83,-0.85,-0.84,-0.85
380.33,3.52,4.36,3.52,4.36,-4.36,-4.33,-3.81,-0.84,-0.84,-0.84
384.13,3.49,4.32,3.49,4.32,-4.32,-4.29,-3.79,-0.83,-0.83,-0.83
387.97,3.46,4.28,3.46,4.28,-4.28,-4.25,-3.78,-0.82,-0.82,-0.82
391.85,3.43,4.23,3.43,4.24,-4.24,-4.20,-3.77,-0.81,-0.81,-0.81
395.77,3.40,4.20,3.40,4.20,-4.20,-4.16,-3.76,-0.80,-0.80,-0.81
399.73,3.37,4.16,3.37,4.16,-4.17,-4.12,-3.75,-0.80,-0.80,-0.80
403.72,3.35,4.12,3.34,4.13,-4.14,-4.08,-3.75,-0.79,-0.79,-0.78
407.76,3.33,4.10,3.33,4.10,-4.11,-4.03,-3.74,-0.78,-0.78,-0.77
411.84,3.32,4.08,3.32,4.08,-4.09,-3.99,-3.74,-0.77,-0.77,-0.76
415.96,3.32,4.07,3.31,4.07,-4.07,-3.94,-3.74,-0.76,-0.76,-0.75
420.12,3.32,4.07,3.31,4.06,-4.06,-3.90,-3.74,-0.74,-0.74,-0.75
424.32,3.31,4.05,3.31,4.05,-4.04,-3.85,-3.74,-0.74,-0.73,-0.74
428.56,3.31,4.03,3.31,4.03,-4.03,-3.81,-3.74,-0.72,-0.72,-0.72
432.85,3.30,4.00,3.30,4.01,-4.01,-3.76,-3.75,-0.71,-0.71,-0.71
437.18,3.29,4.00,3.28,3.99,-3.99,-3.72,-3.75,-0.70,-0.71,-0.72
441.55,3.26,3.96,3.26,3.97,-3.97,-3.67,-3.75,-0.71,-0.71,-0.71
445.96,3.24,3.93,3.24,3.94,-3.94,-3.63,-3.75,-0.70,-0.70,-0.70
450.42,3.22,3.90,3.22,3.91,-3.90,-3.58,-3.75,-0.69,-0.69,-0.69
454.93,3.20,3.88,3.19,3.87,-3.87,-3.54,-3.75,-0.67,-0.67,-0.68
459.48,3.17,3.84,3.16,3.83,-3.82,-3.49,-3.75,-0.66,-0.66,-0.67
464.07,3.13,3.78,3.13,3.79,-3.78,-3.44,-3.74,-0.65,-0.65,-0.65
468.71,3.09,3.74,3.08,3.73,-3.73,-3.40,-3.73,-0.64,-0.65,-0.65
473.40,3.04,3.68,3.04,3.68,-3.68,-3.35,-3.72,-0.64,-0.64,-0.64
478.13,2.99,3.62,2.99,3.62,-3.63,-3.30,-3.71,-0.64,-0.64,-0.63
482.91,2.95,3.57,2.94,3.57,-3.58,-3.26,-3.70,-0.63,-0.63,-0.62
487.74,2.91,3.52,2.90,3.52,-3.53,-3.21,-3.68,-0.62,-0.62,-0.61
492.62,2.87,3.47,2.87,3.47,-3.48,-3.16,-3.65,-0.61,-0.61,-0.60
497.55,2.84,3.43,2.84,3.43,-3.43,-3.12,-3.63,-0.59,-0.59,-0.59
502.52,2.81,3.39,2.80,3.39,-3.38,-3.07,-3.60,-0.57,-0.58,-0.58
507.55,2.77,3.33,2.77,3.34,-3.33,-3.02,-3.57,-0.56,-0.56,-0.57
512.62,2.74,3.29,2.73,3.29,-3.28,-2.97,-3.53,-0.54,-0.55,-0.56
517.75,2.70,3.23,2.69,3.23,-3.23,-2.93,-3.49,-0.54,-0.54,-0.54
