frequency,raw,error,smoothed,error_smoothed,equalization,parametric_eq,fixed_band_eq,equalized_raw,equalized_smoothed,target
20.00,0.45,2.16,0.45,2.17,-2.17,-2.04,-1.98,-1.72,-1.72,-1.72
20.20,0.50,2.21,0.49,2.21,-2.21,-2.08,-2.04,-1.71,-1.72,-1.72
20.40,0.54,2.25,0.54,2.25,-2.25,-2.12,-2.09,-1.72,-1.71,-1.72
20.61,0.59,2.29,0.59,2.30,-2.30,-2.16,-2.15,-1.71,-1.71,-1.71
20.81,0.64,2.34,0.64,2.34,-2.34,-2.20,-2.21,-1.71,-1.71,-1.71
21.02,0.69,2.39,0.69,2.39,-2.39,-2.24,-2.27,-1.70,-1.71,-1.71
21.23,0.74,2.44,0.74,2.44,-2.44,-2.28,-2.34,-1.70,-1.70,-1.71
21.44,0.79,2.49,0.79,2.49,-2.49,-2.33,-2.40,-1.70,-1.70,-1.70
21.66,0.85,2.54,0.84,2.54,-2.54,-2.37,-2.47,-1.70,-1.70,-1.70
21.87,0.90,2.60,0.90,2.59,-2.60,-2.41,-2.54,-1.70,-1.70,-1.70
22.09,0.95,2.64,0.95,2.65,-2.65,-2.46,-2.61,-1.70,-1.70,-1.70
22.31,1.01,2.70,1.01,2.70,-2.70,-2.50,-2.68,-1.70,-1.70,-1.69
22.54,1.07,2.76,1.07,2.76,-2.76,-2.55,-2.76,-1.69,-1.69,-1.70
22.76,1.13,2.81,1.13,2.82,-2.81,-2.59,-2.84,-1.68,-1.68,-1.69
22.99,1.19,2.87,1.18,2.87,-2.86,-2.64,-2.92,-1.67,-1.68,-1.69
23.22,1.23,2.91,1.23,2.91,-2.91,-2.69,-3.00,-1.68,-1.68,-1.69
23.45,1.27,2.95,1.27,2.95,-2.96,-2.74,-3.08,-1.69,-1.69,-1.69
23.69,1.31,2.99,1.31,2.99,-3.00,-2.79,-3.16,-1.70,-1.69,-1.69
23.92,1.36,3.04,1.36,3.04,-3.05,-2.84,-3.25,-1.70,-1.70,-1.68
24.16,1.41,3.09,1.41,3.09,-3.10,-2.89,-3.34,-1.69,-1.70,-1.69
24.40,1.46,3.15,1.46,3.15,-3.15,-2.94,-3.43,-1.69,-1.69,-1.69
24.65,1.51,3.19,1.51,3.20,-3.19,-2.99,-3.52,-1.68,-1.68,-1.69
24.89,1.57,3.26,1.56,3.25,-3.23,-3.04,-3.61,-1.66,-1.67,-1.70
25.14,1.60,3.29,1.60,3.30,-3.28,-3.09,-3.70,-1.68,-1.68,-1.70
25.39,1.63,3.33,1.62,3.33,-3.32,-3.14,-3.79,-1.70,-1.70,-1.71
25.65,1.65,3.35,1.64,3.35,-3.38,-3.20,-3.88,-1.73,-1.73,-1.71
25.91,1.67,3.38,1.68,3.39,-3.43,-3.25,-3.98,-1.76,-1.75,-1.72
26.16,1.73,3.45,1.73,3.45,-3.49,-3.31,-4.07,-1.76,-1.75,-1.72
26.43,1.81,3.53,1.81,3.54,-3.54,-3.36,-4.16,-1.73,-1.73,-1.73
26.69,1.90,3.62,1.89,3.62,-3.59,-3.42,-4.25,-1.69,-1.70,-1.73
26.96,1.98,3.70,1.96,3.69,-3.64,-3.47,-4.34,-1.67,-1.68,-1.73
27.23,2.00,3.72,2.00,3.73,-3.69,-3.53,-4.43,-1.70,-1.69,-1.73
27.50,2.02,3.75,2.02,3.75,-3.74,-3.59,-4.52,-1.72,-1.72,-1.74
27.77,2.04,3.77,2.04,3.77,-3.79,-3.64,-4.60,-1.75,-1.75,-1.74
28.05,2.06,3.78,2.07,3.80,-3.83,-3.70,-4.68,-1.78,-1.76,-1.73
28.33,2.13,3.85,2.12,3.85,-3.88,-3.76,-4.76,-1.75,-1.76,-1.73
28.62,2.19,3.91,2.19,3.91,-3.93,-3.82,-4.83,-1.74,-1.74,-1.73
28.90,2.26,3.98,2.26,3.98,-3.98,-3.88,-4.90,-1.72,-1.73,-1.73
29.19,2.32,4.04,2.32,4.04,-4.03,-3.93,-4.96,-1.72,-1.71,-1.73
29.48,2.38,4.10,2.38,4.11,-4.08,-3.99,-5.02,-1.71,-1.70,-1.73
29.78,2.44,4.16,2.43,4.16,-4.13,-4.05,-5.08,-1.70,-1.70,-1.73
30.08,2.48,4.21,2.47,4.20,-4.18,-4.11,-5.12,-1.70,-1.71,-1.74
30.38,2.49,4.22,2.49,4.22,-4.22,-4.17,-5.16,-1.74,-1.74,-1.74
30.68,2.50,4.23,2.50,4.24,-4.27,-4.23,-5.20,-1.77,-1.77,-1.74
30.99,2.51,4.25,2.52,4.27,-4.31,-4.29,-5.22,-1.80,-1.78,-1.75
31.30,2.58,4.32,2.58,4.32,-4.34,-4.34,-5.25,-1.76,-1.77,-1.75
31.61,2.64,4.39,2.64,4.39,-4.38,-4.40,-5.26,-1.74,-1.74,-1.76
31.93,2.71,4.46,2.69,4.45,-4.42,-4.46,-5.27,-1.71,-1.72,-1.76
32.24,2.73,4.49,2.72,4.49,-4.46,-4.52,-5.27,-1.73,-1.74,-1.77
32.57,2.73,4.50,2.73,4.50,-4.51,-4.58,-5.26,-1.78,-1.78,-1.78
32.89,2.73,4.50,2.74,4.52,-4.56,-4.63,-5.25,-1.83,-1.81,-1.78
33.22,2.78,4.55,2.79,4.57,-4.60,-4.69,-5.24,-1.82,-1.81,-1.78
33.55,2.86,4.65,2.85,4.64,-4.63,-4.74,-5.22,-1.78,-1.78,-1.79
33.89,2.93,4.72,2.92,4.71,-4.67,-4.80,-5.19,-1.75,-1.76,-1.80
34.23,2.96,4.75,2.95,4.75,-4.72,-4.85,-5.16,-1.76,-1.77,-1.80
34.57,2.96,4.76,2.96,4.76,-4.77,-4.91,-5.13,-1.81,-1.81,-1.81
34.92,2.96,4.76,2.98,4.78,-4.82,-4.96,-5.09,-1.86,-1.84,-1.81
35.27,3.02,4.82,3.03,4.83,-4.86,-5.01,-5.05,-1.85,-1.84,-1.81
35.62,3.10,4.90,3.09,4.90,-4.90,-5.06,-5.01,-1.80,-1.81,-1.81
35.97,3.17,4.98,3.15,4.96,-4.93,-5.11,-4.97,-1.76,-1.78,-1.82
36.33,3.18,4.99,3.18,5.00,-4.96,-5.16,-4.93,-1.78,-1.78,-1.82
36.70,3.19,5.00,3.19,5.01,-4.99,-5.21,-4.88,-1.80,-1.80,-1.82
37.06,3.19,5.00,3.19,5.01,-5.02,-5.25,-4.84,-1.83,-1.83,-1.82
37.43,3.21,5.02,3.20,5.02,-5.05,-5.30,-4.79,-1.85,-1.85,-1.82
37.81,3.23,5.03,3.23,5.04,-5.08,-5.34,-4.75,-1.86,-1.85,-1.81
38.19,3.27,5.07,3.28,5.09,-5.11,-5.38,-4.71,-1.84,-1.83,-1.81
38.57,3.34,5.14,3.34,5.14,-5.13,-5.42,-4.67,-1.79,-1.79,-1.81
38.95,3.41,5.21,3.39,5.19,-5.15,-5.46,-4.63,-1.74,-1.76,-1.81
39.34,3.42,5.22,3.42,5.22,-5.18,-5.49,-4.59,-1.76,-1.76,-1.81
39.74,3.42,5.22,3.42,5.23,-5.21,-5.53,-4.55,-1.79,-1.78,-1.81
40.14,3.42,5.22,3.41,5.22,-5.24,-5.56,-4.52,-1.82,-1.83,-1.81
40.54,3.42,5.22,3.41,5.22,-5.27,-5.59,-4.49,-1.86,-1.86,-1.81
40.94,3.42,5.22,3.44,5.25,-5.31,-5.62,-4.46,-1.89,-1.86,-1.81
41.35,3.50,5.31,3.50,5.32,-5.33,-5.64,-4.44,-1.84,-1.83,-1.82
41.76,3.59,5.42,3.57,5.40,-5.37,-5.67,-4.42,-1.78,-1.79,-1.83
42.18,3.64,5.47,3.62,5.46,-5.40,-5.69,-4.40,-1.77,-1.78,-1.84
42.60,3.64,5.48,3.64,5.49,-5.45,-5.71,-4.38,-1.81,-1.81,-1.85
43.03,3.64,5.49,3.63,5.49,-5.50,-5.73,-4.37,-1.87,-1.87,-1.86
43.46,3.64,5.51,3.63,5.51,-5.56,-5.75,-4.36,-1.92,-1.92,-1.88
43.90,3.64,5.52,3.66,5.55,-5.61,-5.76,-4.36,-1.97,-1.94,-1.89
44.33,3.72,5.62,3.73,5.62,-5.65,-5.77,-4.35,-1.93,-1.92,-1.90
44.78,3.82,5.72,3.80,5.70,-5.69,-5.78,-4.35,-1.87,-1.89,-1.91
45.23,3.87,5.78,3.85,5.77,-5.72,-5.79,-4.36,-1.86,-1.87,-1.92
45.68,3.87,5.79,3.87,5.80,-5.76,-5.80,-4.37,-1.89,-1.88,-1.93
46.13,3.87,5.79,3.87,5.80,-5.79,-5.80,-4.38,-1.92,-1.91,-1.93
46.60,3.87,5.79,3.87,5.80,-5.80,-5.80,-4.39,-1.94,-1.94,-1.93
47.06,3.87,5.79,3.87,5.79,-5.81,-5.80,-4.41,-1.94,-1.94,-1.93
47.53,3.87,5.79,3.87,5.79,-5.79,-5.80,-4.43,-1.93,-1.93,-1.93
48.01,3.87,5.78,3.87,5.78,-5.78,-5.80,-4.45,-1.91,-1.91,-1.92
48.49,3.87,5.77,3.87,5.78,-5.77,-5.79,-4.48,-1.90,-1.90,-1.91
48.97,3.87,5.76,3.87,5.76,-5.77,-5.79,-4.51,-1.90,-1.90,-1.90
49.46,3.87,5.75,3.87,5.75,-5.77,-5.78,-4.54,-1.91,-1.91,-1.89
49.96,3.87,5.74,3.87,5.74,-5.79,-5.77,-4.57,-1.92,-1.92,-1.88
50.46,3.89,5.74,3.89,5.75,-5.79,-5.76,-4.61,-1.90,-1.91,-1.86
50.96,3.92,5.76,3.95,5.80,-5.79,-5.75,-4.65,-1.88,-1.84,-1.85
51.47,4.01,5.84,4.01,5.85,-5.79,-5.74,-4.69,-1.78,-1.78,-1.84
51.99,4.10,5.93,4.02,5.86,-5.78,-5.73,-4.73,-1.69,-1.76,-1.84
52.51,3.98,5.82,3.99,5.82,-5.78,-5.71,-4.78,-1.80,-1.79,-1.84
53.03,3.87,5.70,3.92,5.75,-5.77,-5.70,-4.82,-1.90,-1.85,-1.84
53.56,3.87,5.70,3.86,5.70,-5.76,-5.68,-4.87,-1.90,-1.90,-1.84
54.10,3.87,5.70,3.86,5.70,-5.76,-5.66,-4.91,-1.89,-1.90,-1.84
54.64,3.87,5.71,3.87,5.71,-5.74,-5.64,-4.96,-1.87,-1.87,-1.85
55.18,3.87,5.72,3.87,5.72,-5.72,-5.63,-5.00,-1.85,-1.85,-1.86
55.74,3.87,5.73,3.88,5.75,-5.71,-5.61,-5.05,-1.84,-1.83,-1.87
56.29,3.87,5.75,3.88,5.76,-5.69,-5.59,-5.09,-1.83,-1.82,-1.89
56.86,3.87,5.76,3.83,5.73,-5.68,-5.57,-5.13,-1.82,-1.86,-1.90
57.42,3.77,5.68,3.76,5.67,-5.67,-5.55,-5.17,-1.91,-1.92,-1.92
58.00,3.64,5.57,3.69,5.62,-5.66,-5.52,-5.21,-2.02,-1.97,-1.94
58.58,3.64,5.59,3.63,5.59,-5.64,-5.50,-5.25,-2.01,-2.01,-1.96
59.16,3.64,5.61,3.63,5.60,-5.64,-5.48,-5.28,-2.00,-2.01,-1.98
59.76,3.64,5.63,3.64,5.64,-5.63,-5.46,-5.31,-1.99,-1.99,-2.00
60.35,3.64,5.65,3.64,5.65,-5.64,-5.43,-5.34,-2.00,-2.00,-2.02
60.96,3.64,5.67,3.64,5.67,-5.66,-5.41,-5.36,-2.02,-2.02,-2.04
61.57,3.64,5.68,3.64,5.69,-5.68,-5.38,-5.38,-2.05,-2.05,-2.05
62.18,3.64,5.70,3.64,5.70,-5.72,-5.35,-5.40,-2.08,-2.08,-2.07
62.80,3.64,5.72,3.64,5.72,-5.75,-5.32,-5.41,-2.11,-2.11,-2.09
63.43,3.64,5.74,3.64,5.74,-5.77,-5.28,-5.42,-2.13,-2.13,-2.11
64.07,3.64,5.76,3.64,5.77,-5.78,-5.25,-5.43,-2.14,-2.14,-2.13
64.71,3.64,5.78,3.65,5.80,-5.78,-5.20,-5.43,-2.14,-2.13,-2.15
65.35,3.64,5.80,3.64,5.80,-5.77,-5.16,-5.43,-2.13,-2.13,-2.17
66.01,3.64,5.81,3.59,5.77,-5.74,-5.11,-5.43,-2.10,-2.15,-2.18
66.67,3.49,5.67,3.51,5.70,-5.70,-5.05,-5.42,-2.21,-2.18,-2.19
67.33,3.39,5.57,3.41,5.60,-5.63,-4.98,-5.41,-2.24,-2.21,-2.19
68.01,3.32,5.51,3.30,5.50,-5.53,-4.90,-5.40,-2.21,-2.23,-2.20
68.69,3.21,5.40,3.21,5.40,-5.40,-4.82,-5.39,-2.19,-2.19,-2.20
69.37,3.08,5.26,3.09,5.27,-5.24,-4.71,-5.37,-2.17,-2.16,-2.19
70.07,2.94,5.11,2.92,5.09,-5.06,-4.59,-5.35,-2.12,-2.14,-2.18
70.77,2.71,4.87,2.71,4.88,-4.86,-4.45,-5.34,-2.15,-2.15,-2.17
71.48,2.46,4.62,2.46,4.62,-4.62,-4.29,-5.32,-2.16,-2.15,-2.16
72.19,2.20,4.34,2.20,4.35,-4.35,-4.11,-5.30,-2.15,-2.15,-2.15
72.91,1.94,4.06,1.94,4.07,-4.05,-3.89,-5.29,-2.12,-2.11,-2.13
73.64,1.68,3.79,1.67,3.79,-3.74,-3.65,-5.27,-2.06,-2.07,-2.12
74.38,1.38,3.48,1.36,3.47,-3.42,-3.38,-5.26,-2.04,-2.06,-2.11
75.12,1.05,3.14,1.03,3.13,-3.11,-3.08,-5.24,-2.06,-2.08,-2.10
75.87,0.68,2.77,0.70,2.79,-2.81,-2.76,-5.23,-2.13,-2.11,-2.10
76.63,0.40,2.48,0.43,2.51,-2.55,-2.44,-5.22,-2.15,-2.12,-2.09
77.40,0.23,2.30,0.22,2.30,-2.34,-2.13,-5.21,-2.11,-2.12,-2.08
78.17,0.13,2.19,0.10,2.17,-2.20,-1.87,-5.21,-2.07,-2.10,-2.07
78.95,0.01,2.07,0.03,2.09,-2.14,-1.69,-5.21,-2.13,-2.11,-2.07
79.74,-0.00,2.05,-0.01,2.04,-2.16,-1.63,-5.21,-2.16,-2.17,-2.06
80.54,-0.00,2.04,-0.02,2.02,-2.25,-1.71,-5.21,-2.26,-2.28,-2.05
81.35,0.05,2.08,0.06,2.10,-2.41,-1.91,-5.22,-2.36,-2.35,-2.04
82.16,0.20,2.22,0.25,2.28,-2.62,-2.22,-5.23,-2.42,-2.37,-2.03
82.98,0.55,2.57,0.52,2.54,-2.86,-2.59,-5.24,-2.31,-2.33,-2.02
83.81,0.89,2.89,0.86,2.86,-3.13,-3.00,-5.26,-2.24,-2.27,-2.00
84.65,1.20,3.18,1.22,3.20,-3.41,-3.42,-5.28,-2.21,-2.19,-1.99
85.50,1.55,3.51,1.55,3.52,-3.69,-3.82,-5.31,-2.14,-2.14,-1.97
86.35,1.91,3.86,1.90,3.85,-3.96,-4.19,-5.34,-2.05,-2.06,-1.95
87.22,2.23,4.15,2.24,4.17,-4.22,-4.52,-5.37,-1.99,-1.98,-1.93
88.09,2.58,4.48,2.55,4.46,-4.48,-4.82,-5.41,-1.90,-1.92,-1.91
88.97,2.84,4.72,2.84,4.73,-4.73,-5.08,-5.45,-1.90,-1.89,-1.89
89.86,3.10,4.97,3.11,4.98,-4.99,-5.31,-5.49,-1.89,-1.88,-1.88
90.76,3.37,5.22,3.35,5.21,-5.23,-5.51,-5.54,-1.86,-1.88,-1.86
91.66,3.60,5.44,3.61,5.45,-5.46,-5.67,-5.60,-1.86,-1.85,-1.84
92.58,3.84,5.65,3.87,5.68,-5.67,-5.82,-5.66,-1.83,-1.80,-1.82
93.51,4.13,5.92,4.09,5.89,-5.86,-5.94,-5.72,-1.73,-1.77,-1.80
94.44,4.31,6.08,4.29,6.07,-6.03,-6.04,-5.78,-1.73,-1.74,-1.78
95.39,4.43,6.18,4.45,6.21,-6.19,-6.12,-5.85,-1.76,-1.74,-1.76
96.34,4.59,6.32,4.57,6.31,-6.32,-6.19,-5.93,-1.74,-1.75,-1.74
97.30,4.70,6.41,4.71,6.43,-6.44,-6.25,-6.00,-1.74,-1.73,-1.72
98.28,4.83,6.52,4.84,6.54,-6.54,-6.30,-6.08,-1.71,-1.70,-1.70
99.26,4.98,6.65,4.93,6.61,-6.62,-6.34,-6.16,-1.64,-1.68,-1.68
100.25,5.02,6.68,5.04,6.70,-6.70,-6.37,-6.25,-1.68,-1.65,-1.67
101.25,5.09,6.73,5.12,6.77,-6.77,-6.39,-6.34,-1.68,-1.65,-1.65
102.27,5.24,6.87,5.18,6.82,-6.84,-6.42,-6.42,-1.60,-1.66,-1.64
103.29,5.24,6.86,5.25,6.88,-6.91,-6.44,-6.51,-1.67,-1.65,-1.63
104.32,5.29,6.91,5.33,6.95,-6.97,-6.46,-6.61,-1.68,-1.64,-1.63
105.37,5.41,7.03,5.39,7.01,-7.03,-6.47,-6.70,-1.62,-1.65,-1.63
106.42,5.47,7.09,5.45,7.08,-7.08,-6.49,-6.79,-1.62,-1.64,-1.63
107.48,5.47,7.10,5.48,7.12,-7.11,-6.51,-6.88,-1.65,-1.64,-1.64
108.56,5.47,7.12,5.49,7.14,-7.12,-6.53,-6.97,-1.65,-1.63,-1.66
109.64,5.47,7.13,5.46,7.13,-7.10,-6.55,-7.06,-1.63,-1.64,-1.67
110.74,5.46,7.13,5.42,7.10,-7.04,-6.57,-7.15,-1.58,-1.62,-1.68
111.85,5.27,6.95,5.32,7.01,-6.95,-6.59,-7.23,-1.68,-1.62,-1.69
112.97,5.22,6.92,5.16,6.86,-6.83,-6.62,-7.30,-1.61,-1.67,-1.71
114.10,4.97,6.69,4.97,6.68,-6.69,-6.64,-7.38,-1.72,-1.72,-1.72
115.24,4.75,6.47,4.80,6.53,-6.54,-6.67,-7.44,-1.79,-1.74,-1.73
116.39,4.63,6.36,4.62,6.36,-6.40,-6.70,-7.50,-1.77,-1.77,-1.74
117.55,4.54,6.28,4.50,6.24,-6.27,-6.73,-7.55,-1.73,-1.77,-1.75
118.73,4.38,6.12,4.41,6.15,-6.17,-6.76,-7.59,-1.79,-1.76,-1.75
119.92,4.33,6.07,4.33,6.08,-6.12,-6.79,-7.63,-1.79,-1.78,-1.75
121.12,4.33,6.07,4.31,6.05,-6.11,-6.82,-7.65,-1.78,-1.80,-1.75
122.33,4.33,6.07,4.35,6.09,-6.14,-6.86,-7.66,-1.81,-1.79,-1.75
123.55,4.43,6.16,4.43,6.17,-6.20,-6.89,-7.66,-1.77,-1.77,-1.74
124.79,4.55,6.28,4.55,6.28,-6.28,-6.92,-7.65,-1.73,-1.73,-1.74
126.03,4.71,6.43,4.70,6.43,-6.38,-6.94,-7.63,-1.67,-1.68,-1.73
127.29,4.83,6.54,4.83,6.55,-6.49,-6.97,-7.60,-1.66,-1.66,-1.72
128.57,4.96,6.67,4.93,6.64,-6.62,-6.99,-7.56,-1.66,-1.69,-1.72
129.85,5.01,6.71,5.00,6.71,-6.74,-7.01,-7.50,-1.73,-1.74,-1.71
131.15,5.06,6.75,5.09,6.80,-6.84,-7.02,-7.44,-1.79,-1.75,-1.70
132.46,5.19,6.88,5.21,6.91,-6.94,-7.03,-7.36,-1.75,-1.72,-1.70
133.79,5.38,7.07,5.34,7.04,-7.01,-7.03,-7.28,-1.63,-1.67,-1.70
135.12,5.47,7.15,5.44,7.13,-7.07,-7.03,-7.19,-1.60,-1.63,-1.69
136.48,5.47,7.15,5.48,7.17,-7.11,-7.02,-7.09,-1.64,-1.63,-1.69
137.84,5.47,7.15,5.48,7.16,-7.14,-7.00,-6.99,-1.68,-1.67,-1.69
139.22,5.47,7.14,5.47,7.15,-7.16,-6.98,-6.87,-1.70,-1.70,-1.68
140.61,5.47,7.14,5.47,7.14,-7.17,-6.95,-6.76,-1.70,-1.70,-1.68
142.02,5.47,7.14,5.47,7.14,-7.17,-6.91,-6.64,-1.70,-1.70,-1.68
143.44,5.47,7.14,5.47,7.14,-7.16,-6.87,-6.51,-1.70,-1.70,-1.68
144.87,5.47,7.14,5.47,7.15,-7.17,-6.82,-6.38,-1.70,-1.70,-1.68
146.32,5.47,7.15,5.47,7.15,-7.19,-6.77,-6.25,-1.72,-1.72,-1.69
147.78,5.47,7.16,5.47,7.16,-7.21,-6.72,-6.12,-1.74,-1.74,-1.70
149.26,5.47,7.17,5.48,7.19,-7.22,-6.66,-5.99,-1.75,-1.74,-1.71
150.75,5.47,7.19,5.46,7.19,-7.20,-6.59,-5.86,-1.73,-1.73,-1.73
152.26,5.45,7.19,5.42,7.17,-7.14,-6.53,-5.73,-1.69,-1.72,-1.75
153.78,5.31,7.08,5.35,7.12,-7.03,-6.46,-5.60,-1.72,-1.69,-1.78
155.32,5.20,7.00,5.19,7.00,-6.88,-6.39,-5.47,-1.68,-1.69,-1.81
156.88,5.00,6.83,4.95,6.79,-6.68,-6.32,-5.34,-1.69,-1.73,-1.84
158.44,4.62,6.47,4.63,6.49,-6.42,-6.25,-5.21,-1.80,-1.79,-1.86
160.03,4.23,6.10,4.22,6.10,-6.12,-6.19,-5.08,-1.89,-1.90,-1.88
161.63,3.78,5.67,3.77,5.66,-5.82,-6.12,-4.96,-2.04,-2.05,-1.90
163.24,3.35,5.25,3.34,5.25,-5.56,-6.06,-4.84,-2.21,-2.22,-1.91
164.88,3.02,4.93,3.02,4.94,-5.36,-6.00,-4.72,-2.35,-2.34,-1.92
166.53,2.83,4.74,2.90,4.82,-5.25,-5.94,-4.60,-2.42,-2.35,-1.92
168.19,2.97,4.88,2.97,4.89,-5.22,-5.89,-4.49,-2.26,-2.25,-1.92
169.87,3.23,5.13,3.19,5.10,-5.26,-5.84,-4.38,-2.04,-2.07,-1.91
171.57,3.49,5.37,3.49,5.38,-5.36,-5.80,-4.27,-1.87,-1.86,-1.89
173.29,3.75,5.61,3.76,5.63,-5.48,-5.75,-4.17,-1.73,-1.72,-1.87
175.02,4.01,5.85,3.96,5.80,-5.62,-5.71,-4.07,-1.61,-1.66,-1.85
176.77,4.09,5.90,4.08,5.89,-5.75,-5.68,-3.97,-1.67,-1.68,-1.82
178.54,4.10,5.88,4.12,5.90,-5.86,-5.64,-3.87,-1.76,-1.75,-1.79
180.32,4.10,5.85,4.10,5.86,-5.91,-5.60,-3.78,-1.81,-1.80,-1.76
182.13,4.10,5.82,4.11,5.84,-5.87,-5.56,-3.69,-1.78,-1.76,-1.73
183.95,4.10,5.80,4.11,5.82,-5.79,-5.52,-3.60,-1.70,-1.68,-1.71
185.79,4.10,5.78,4.04,5.73,-5.68,-5.47,-3.52,-1.59,-1.64,-1.69
187.65,3.94,5.60,3.92,5.59,-5.56,-5.42,-3.44,-1.62,-1.64,-1.67
189.52,3.70,5.35,3.76,5.41,-5.42,-5.36,-3.36,-1.72,-1.66,-1.66
191.42,3.59,5.23,3.58,5.23,-5.27,-5.29,-3.28,-1.68,-1.69,-1.65
193.33,3.47,5.11,3.45,5.09,-5.12,-5.21,-3.21,-1.65,-1.67,-1.65
195.27,3.31,4.94,3.32,4.96,-4.97,-5.13,-3.14,-1.66,-1.65,-1.64
197.22,3.21,4.83,3.18,4.81,-4.84,-5.02,-3.07,-1.63,-1.65,-1.63
199.19,3.05,4.67,3.07,4.70,-4.72,-4.91,-3.00,-1.67,-1.65,-1.63
201.18,2.96,4.58,2.97,4.60,-4.63,-4.79,-2.94,-1.67,-1.66,-1.63
203.19,2.92,4.54,2.87,4.50,-4.54,-4.65,-2.88,-1.62,-1.67,-1.63
205.23,2.79,4.41,2.82,4.45,-4.46,-4.50,-2.82,-1.67,-1.64,-1.63
207.28,2.73,4.36,2.77,4.40,-4.37,-4.35,-2.76,-1.64,-1.60,-1.64
209.35,2.73,4.37,2.67,4.32,-4.28,-4.18,-2.71,-1.55,-1.60,-1.65
211.44,2.61,4.25,2.57,4.22,-4.17,-4.01,-2.65,-1.57,-1.60,-1.65
213.56,2.36,4.01,2.42,4.08,-4.06,-3.84,-2.60,-1.70,-1.64,-1.66
215.69,2.28,3.93,2.25,3.91,-3.92,-3.66,-2.55,-1.64,-1.67,-1.66
217.85,2.07,3.73,2.10,3.76,-3.76,-3.48,-2.50,-1.70,-1.67,-1.67
220.03,1.96,3.62,1.93,3.60,-3.59,-3.29,-2.46,-1.64,-1.66,-1.67
222.23,1.77,3.44,1.74,3.41,-3.41,-3.11,-2.41,-1.64,-1.67,-1.68
224.45,1.51,3.18,1.56,3.24,-3.23,-2.93,-2.37,-1.73,-1.67,-1.68
226.70,1.38,3.06,1.36,3.04,-3.06,-2.76,-2.33,-1.68,-1.70,-1.69
228.96,1.21,2.89,1.18,2.87,-2.89,-2.59,-2.28,-1.68,-1.71,-1.69
231.25,0.98,2.67,1.02,2.71,-2.73,-2.42,-2.25,-1.75,-1.71,-1.70
233.57,0.88,2.57,0.85,2.54,-2.57,-2.26,-2.21,-1.69,-1.72,-1.70
235.90,0.69,2.38,0.71,2.41,-2.41,-2.10,-2.17,-1.72,-1.70,-1.70
238.26,0.57,2.27,0.59,2.29,-2.26,-1.95,-2.13,-1.69,-1.67,-1.71
240.64,0.47,2.17,0.42,2.13,-2.11,-1.81,-2.10,-1.64,-1.68,-1.71
243.05,0.29,1.99,0.28,1.99,-1.96,-1.67,-2.06,-1.68,-1.68,-1.71
245.48,0.06,1.76,0.11,1.82,-1.82,-1.54,-2.03,-1.77,-1.71,-1.71
247.93,-0.00,1.70,-0.04,1.66,-1.69,-1.41,-1.99,-1.69,-1.73,-1.71
250.41,-0.19,1.51,-0.18,1.52,-1.56,-1.29,-1.96,-1.75,-1.74,-1.71
252.92,-0.28,1.42,-0.29,1.42,-1.44,-1.18,-1.93,-1.72,-1.72,-1.71
255.45,-0.43,1.27,-0.40,1.30,-1.31,-1.07,-1.90,-1.74,-1.72,-1.71
258.00,-0.46,1.24,-0.49,1.22,-1.20,-0.97,-1.87,-1.66,-1.68,-1.71
260.58,-0.60,1.10,-0.60,1.11,-1.08,-0.88,-1.83,-1.68,-1.68,-1.71
263.19,-0.69,1.02,-0.72,1.00,-0.97,-0.79,-1.81,-1.66,-1.69,-1.72
265.82,-0.89,0.82,-0.86,0.86,-0.85,-0.71,-1.78,-1.75,-1.71,-1.72
268.48,-0.97,0.74,-0.98,0.74,-0.74,-0.63,-1.75,-1.71,-1.72,-1.72
271.16,-1.10,0.62,-1.12,0.60,-0.62,-0.56,-1.72,-1.72,-1.74,-1.73
273.87,-1.22,0.50,-1.21,0.51,-0.51,-0.49,-1.69,-1.74,-1.73,-1.73
276.61,-1.35,0.37,-1.32,0.41,-0.41,-0.43,-1.67,-1.77,-1.74,-1.73
279.38,-1.37,0.36,-1.43,0.30,-0.33,-0.37,-1.64,-1.70,-1.76,-1.74
282.17,-1.54,0.19,-1.52,0.22,-0.24,-0.32,-1.61,-1.79,-1.76,-1.74
284.99,-1.60,0.13,-1.57,0.17,-0.17,-0.27,-1.59,-1.77,-1.74,-1.74
287.84,-1.60,0.13,-1.61,0.13,-0.11,-0.23,-1.56,-1.71,-1.72,-1.74
290.72,-1.60,0.13,-1.65,0.09,-0.05,-0.19,-1.54,-1.66,-1.70,-1.74
293.63,-1.71,0.02,-1.71,0.03,-0.01,-0.15,-1.52,-1.72,-1.72,-1.74
296.57,-1.81,-0.08,-1.78,-0.04,0.03,-0.12,-1.50,-1.78,-1.75,-1.74
299.53,-1.83,-0.10,-1.83,-0.09,0.05,-0.09,-1.47,-1.78,-1.78,-1.74
302.53,-1.83,-0.09,-1.84,-0.10,0.07,-0.06,-1.45,-1.76,-1.77,-1.75
305.55,-1.83,-0.09,-1.83,-0.09,0.09,-0.04,-1.43,-1.75,-1.75,-1.75
308.61,-1.83,-0.09,-1.83,-0.08,0.09,-0.02,-1.42,-1.74,-1.74,-1.75
311.69,-1.83,-0.08,-1.83,-0.08,0.09,-0.01,-1.40,-1.74,-1.74,-1.76
314.81,-1.83,-0.07,-1.83,-0.07,0.08,0.00,-1.38,-1.75,-1.75,-1.77
317.96,-1.83,-0.06,-1.83,-0.05,0.07,0.01,-1.36,-1.76,-1.76,-1.78
321.14,-1.83,-0.04,-1.83,-0.04,0.05,0.02,-1.35,-1.78,-1.78,-1.80
324.35,-1.83,-0.03,-1.83,-0.03,0.03,0.02,-1.33,-1.80,-1.80,-1.81
327.59,-1.83,-0.02,-1.84,-0.03,-0.00,0.02,-1.32,-1.84,-1.85,-1.82
330.87,-1.83,-0.01,-1.83,-0.01,-0.04,0.02,-1.31,-1.88,-1.88,-1.83
334.18,-1.83,0.00,-1.79,0.05,-0.08,0.02,-1.29,-1.92,-1.87,-1.84
337.52,-1.70,0.14,-1.72,0.13,-0.12,0.01,-1.28,-1.82,-1.84,-1.85
340.90,-1.62,0.22,-1.65,0.20,-0.15,-0.00,-1.27,-1.78,-1.80,-1.85
344.30,-1.60,0.25,-1.60,0.25,-0.19,-0.01,-1.26,-1.79,-1.79,-1.86
347.75,-1.60,0.25,-1.60,0.26,-0.22,-0.03,-1.25,-1.82,-1.82,-1.86
351.23,-1.60,0.25,-1.60,0.26,-0.26,-0.05,-1.24,-1.86,-1.86,-1.86
354.74,-1.60,0.25,-1.62,0.24,-0.29,-0.07,-1.24,-1.89,-1.91,-1.86
358.28,-1.60,0.25,-1.60,0.25,-0.32,-0.09,-1.23,-1.92,-1.92,-1.86
361.87,-1.60,0.24,-1.54,0.31,-0.35,-0.11,-1.22,-1.95,-1.89,-1.85
365.49,-1.43,0.41,-1.47,0.38,-0.37,-0.14,-1.22,-1.80,-1.84,-1.85
369.14,-1.38,0.46,-1.40,0.44,-0.39,-0.17,-1.22,-1.77,-1.79,-1.85
372.83,-1.37,0.47,-1.36,0.48,-0.41,-0.20,-1.21,-1.79,-1.77,-1.85
376.56,-1.37,0.46,-1.37,0.47,-0.44,-0.23,-1.21,-1.81,-1.81,-1.84
380.33,-1.37,0.46,-1.37,0.46,-0.48,-0.26,-1.21,-1.85,-1.85,-1.84
384.13,-1.37,0.46,-1.39,0.45,-0.51,-0.30,-1.21,-1.88,-1.89,-1.84
387.97,-1.37,0.46,-1.37,0.47,-0.53,-0.34,-1.21,-1.90,-1.90,-1.84
391.85,-1.36,0.47,-1.31,0.53,-0.55,-0.38,-1.21,-1.91,-1.86,-1.84
395.77,-1.20,0.63,-1.24,0.60,-0.57,-0.42,-1.21,-1.77,-1.81,-1.84
399.73,-1.14,0.68,-1.17,0.66,-0.60,-0.46,-1.21,-1.75,-1.77,-1.83
403.72,-1.14,0.68,-1.13,0.70,-0.65,-0.51,-1.21,-1.79,-1.78,-1.83
407.76,-1.14,0.68,-1.15,0.67,-0.69,-0.56,-1.21,-1.83,-1.84,-1.83
411.84,-1.14,0.68,-1.14,0.69,-0.73,-0.60,-1.22,-1.88,-1.87,-1.83
415.96,-1.14,0.68,-1.08,0.75,-0.78,-0.65,-1.22,-1.92,-1.86,-1.83
420.12,-0.96,0.86,-1.01,0.82,-0.82,-0.70,-1.23,-1.78,-1.83,-1.83
424.32,-0.91,0.91,-0.95,0.88,-0.87,-0.76,-1.23,-1.78,-1.81,-1.83
428.56,-0.91,0.91,-0.90,0.92,-0.91,-0.81,-1.24,-1.82,-1.81,-1.83
432.85,-0.91,0.91,-0.87,0.95,-0.96,-0.86,-1.24,-1.87,-1.83,-1.83
437.18,-0.81,1.01,-0.81,1.02,-1.02,-0.92,-1.25,-1.83,-1.83,-1.83
441.55,-0.72,1.11,-0.75,1.09,-1.07,-0.97,-1.25,-1.79,-1.81,-1.84
445.96,-0.69,1.14,-0.70,1.13,-1.11,-1.03,-1.26,-1.80,-1.81,-1.84
450.42,-0.69,1.14,-0.70,1.14,-1.15,-1.08,-1.27,-1.85,-1.85,-1.84
454.93,-0.69,1.14,-0.67,1.17,-1.20,-1.14,-1.27,-1.89,-1.87,-1.84
