frequency,raw
20.00,-3.77
20.20,-3.65
20.40,-3.54
20.61,-3.42
20.81,-3.31
21.02,-3.19
21.23,-3.10
21.44,-2.99
21.66,-2.89
21.87,-2.78
22.09,-2.66
22.31,-2.53
22.54,-2.39
22.76,-2.25
22.99,-2.12
23.22,-2.00
23.45,-1.90
23.69,-1.79
23.92,-1.69
24.16,-1.58
24.40,-1.45
24.65,-1.33
24.89,-1.19
25.14,-1.08
25.39,-0.96
25.65,-0.84
25.91,-0.73
26.16,-0.62
26.43,-0.51
26.69,-0.40
26.96,-0.28
27.23,-0.15
27.50,-0.01
27.77,0.12
28.05,0.24
28.33,0.32
28.62,0.40
28.90,0.48
29.19,0.60
29.48,0.72
29.78,0.85
30.08,0.98
30.38,1.11
30.68,1.24
30.99,1.37
31.30,1.48
31.61,1.58
31.93,1.68
32.24,1.81
32.57,1.93
32.89,2.07
33.22,2.18
33.55,2.29
33.89,2.40
34.23,2.51
34.57,2.61
34.92,2.72
35.27,2.86
35.62,3.00
35.97,3.14
36.33,3.26
36.70,3.39
37.06,3.51
37.43,3.64
37.81,3.77
38.19,3.85
38.57,3.91
38.95,3.96
39.34,4.07
39.74,4.18
40.14,4.31
40.54,4.47
40.94,4.63
41.35,4.73
41.76,4.81
42.18,4.90
42.60,5.00
43.03,5.09
43.46,5.22
43.90,5.35
44.33,5.43
44.78,5.49
45.23,5.57
45.68,5.67
46.13,5.77
46.60,5.89
47.06,5.99
47.53,6.04
48.01,6.08
48.49,6.19
48.97,6.29
49.46,6.41
49.96,6.51
50.46,6.56
50.96,6.60
51.47,6.64
51.99,6.68
52.51,6.77
53.03,6.87
53.56,6.96
54.10,7.03
54.64,7.03
55.18,7.04
55.74,7.08
56.29,7.11
56.86,7.11
57.42,7.20
58.00,7.31
58.58,7.31
59.16,7.31
59.76,7.32
60.35,7.37
60.96,7.44
61.57,7.45
62.18,7.47
62.80,7.49
63.43,7.52
64.07,7.55
64.71,7.57
65.35,7.60
66.01,7.62
66.67,7.64
67.33,7.65
68.01,7.67
68.69,7.68
69.37,7.69
70.07,7.71
70.77,7.71
71.48,7.70
72.19,7.67
72.91,7.63
73.64,7.57
74.38,7.56
75.12,7.57
75.87,7.58
76.63,7.56
77.40,7.54
78.17,7.54
78.95,7.53
79.74,7.42
80.54,7.38
81.35,7.40
82.16,7.41
82.98,7.42
83.81,7.27
84.65,7.23
85.50,7.19
86.35,7.12
87.22,7.07
88.09,7.08
88.97,7.09
89.86,7.09
90.76,7.11
91.66,7.12
92.58,7.07
93.51,7.01
94.44,6.96
95.39,6.93
96.34,6.90
97.30,6.83
98.28,6.79
99.26,6.71
100.25,6.66
101.25,6.53
102.27,6.45
103.29,6.36
104.32,6.29
105.37,6.20
106.42,6.08
107.48,6.02
108.56,5.94
109.64,5.83
110.74,5.72
111.85,5.65
112.97,5.55
114.10,5.49
115.24,5.43
116.39,5.40
117.55,5.35
118.73,5.24
119.92,5.20
121.12,5.18
122.33,5.10
123.55,5.01
124.79,4.94
126.03,4.85
127.29,4.83
128.57,4.78
129.85,4.70
131.15,4.62
132.46,4.54
133.79,4.49
135.12,4.46
136.48,4.45
137.84,4.39
139.22,4.32
140.61,4.26
142.02,4.23
143.44,4.23
144.87,4.17
146.32,4.07
147.78,4.04
149.26,4.01
150.75,3.92
152.26,3.91
153.78,3.93
155.32,3.90
156.88,3.87
158.44,3.86
160.03,3.88
161.63,3.83
163.24,3.72
164.88,3.61
166.53,3.56
168.19,3.54
169.87,3.52
171.57,3.50
173.29,3.50
175.02,3.54
176.77,3.56
178.54,3.57
180.32,3.66
182.13,3.78
183.95,3.91
185.79,3.93
187.65,3.99
189.52,4.06
191.42,4.02
193.33,3.92
195.27,3.89
197.22,3.84
199.19,3.71
201.18,3.62
203.19,3.55
205.23,3.46
207.28,3.37
209.35,3.28
211.44,3.23
213.56,3.16
215.69,3.10
217.85,3.04
220.03,2.97
222.23,2.91
224.45,2.86
226.70,2.78
228.96,2.74
231.25,2.68
233.57,2.63
235.90,2.56
238.26,2.55
240.64,2.45
243.05,2.39
245.48,2.38
247.93,2.33
250.41,2.29
252.92,2.23
255.45,2.23
258.00,2.24
260.58,2.25
263.19,2.19
265.82,2.07
268.48,2.05
271.16,2.05
273.87,2.05
276.61,1.98
279.38,1.92
282.17,1.86
284.99,1.84
287.84,1.79
290.72,1.74
293.63,1.76
296.57,1.76
299.53,1.68
302.53,1.64
305.55,1.59
308.61,1.59
311.69,1.59
314.81,1.53
317.96,1.52
321.14,1.49
324.35,1.44
327.59,1.36
330.87,1.35
334.18,1.36
337.52,1.37
340.90,1.29
344.30,1.26
347.75,1.30
351.23,1.26
354.74,1.15
358.28,1.15
361.87,1.17
365.49,1.18
369.14,1.14
372.83,1.12
376.56,1.16
380.33,1.07
384.13,0.97
387.97,0.97
391.85,1.01
395.77,1.03
399.73,1.04
403.72,1.04
407.76,1.06
411.84,1.10
415.96,1.02
420.12,0.92
424.32,0.90
428.56,0.91
432.85,0.91
437.18,0.93
441.55,0.95
445.96,0.97
450.42,0.94
454.93,0.88
459.48,0.93
464.07,0.97
468.71,0.99
473.40,1.01
478.13,1.04
482.91,1.05
487.74,1.06
492.62,1.08
497.55,1.08
502.52,0.97
507.55,1.02
512.62,1.06
517.75,1.00
522.93,0.89
528.16,0.87
533.44,0.99
538.77,1.04
544.16,0.93
549.60,0.93
555.10,0.94
560.65,0.96
566.25,0.98
571.92,1.01
577.64,1.03
583.41,1.07
589.25,1.10
595.14,1.13
601.09,1.15
607.10,1.18
613.17,1.20
619.30,1.22
625.50,1.23
631.75,1.23
638.07,1.29
644.45,1.27
650.89,1.08
657.40,1.02
663.98,1.06
670.62,1.10
677.32,1.11
684.10,1.08
690.94,1.09
697.85,1.27
704.83,1.31
711.87,1.25
718.99,1.21
726.18,1.19
733.44,1.19
740.78,1.30
748.19,1.34
755.67,1.35
763.23,1.32
770.86,1.28
778.57,1.27
786.35,1.29
794.22,1.30
802.16,1.31
810.18,1.31
818.28,1.32
826.46,1.31
834.73,1.23
843.08,1.15
851.51,1.09
860.02,0.99
868.62,0.85
877.31,0.62
886.08,0.40
894.94,0.31
903.89,0.27
912.93,0.24
922.06,0.19
931.28,0.20
940.59,0.21
950.00,0.20
959.50,0.21
969.09,0.15
978.78,0.13
988.57,0.09
998.46,0.08
1008.44,0.10
1018.53,0.10
1028.71,0.09
1039.00,0.05
1049.39,0.15
1059.88,0.22
1070.48,0.34
1081.19,0.37
1092.00,0.34
1102.92,0.27
1113.95,0.22
1125.09,0.18
1136.34,0.14
1147.70,0.10
1159.18,0.02
1170.77,-0.09
1182.48,-0.19
1194.30,-0.25
1206.25,-0.23
1218.31,-0.22
1230.49,-0.21
1242.80,-0.16
1255.22,-0.10
1267.78,0.09
1280.45,0.31
1293.26,0.50
1306.19,0.80
1319.25,0.93
1332.45,1.03
1345.77,1.22
1359.23,1.43
1372.82,1.67
1386.55,1.93
1400.41,2.11
1414.42,2.26
1428.56,2.41
1442.85,2.54
1457.28,2.70
1471.85,2.90
1486.57,3.03
1501.43,3.15
1516.45,3.31
1531.61,3.47
1546.93,3.59
1562.40,3.66
1578.02,3.76
1593.80,3.92
1609.74,3.94
1625.84,4.00
1642.10,4.06
1658.52,4.13
1675.10,4.19
1691.85,4.27
1708.77,4.35
1725.86,4.43
1743.12,4.43
1760.55,4.53
1778.15,4.69
1795.94,4.69
1813.90,4.72
1832.03,4.78
1850.36,4.92
1868.86,5.06
1887.55,5.23
1906.42,5.38
1925.49,5.45
1944.74,5.67
1964.19,5.83
1983.83,5.96
2003.67,6.15
2023.71,6.32
2043.94,6.43
2064.38,6.41
2085.03,6.43
2105.88,6.50
2126.94,6.55
2148.20,6.63
2169.69,6.80
2191.38,6.99
2213.30,7.18
2235.43,7.32
2257.78,7.48
2280.36,7.60
2303.17,7.79
2326.20,7.96
2349.46,8.13
2372.95,8.31
2396.68,8.56
2420.65,8.83
2444.86,8.98
2469.31,9.07
2494.00,9.11
2518.94,9.15
2544.13,9.18
2569.57,9.22
2595.27,9.22
2621.22,9.11
2647.43,8.94
2673.90,8.76
2700.64,8.57
2727.65,8.17
2754.93,7.73
2782.48,7.41
2810.30,6.97
2838.40,6.73
2866.79,6.66
2895.46,6.62
2924.41,6.70
2953.65,6.92
2983.19,7.10
3013.02,7.30
3043.15,7.53
3073.58,7.68
3104.32,7.88
3135.36,8.16
3166.72,8.34
3198.38,8.45
3230.37,8.56
3262.67,8.68
3295.30,8.80
3328.25,8.93
3361.53,9.10
3395.15,9.33
3429.10,9.48
3463.39,9.54
3498.03,9.58
3533.01,9.63
3568.34,9.50
3604.02,9.64
3640.06,9.67
3676.46,9.48
3713.22,9.62
3750.36,9.64
3787.86,9.42
3825.74,9.18
3864.00,9.03
3902.64,8.92
3941.66,9.03
3981.08,8.96
4020.89,8.90
4061.10,8.88
4101.71,8.80
4142.73,8.81
4184.15,8.80
4226.00,8.78
4268.26,8.80
4310.94,8.81
4354.05,8.70
4397.59,8.66
4441.56,8.64
4485.98,8.71
4530.84,8.86
4576.15,9.03
4621.91,9.10
4668.13,9.20
4714.81,9.30
4761.96,9.35
4809.58,9.34
4857.67,9.39
4906.25,9.59
4955.31,9.81
5004.87,10.01
5054.91,10.16
5105.46,10.29
5156.52,10.44
5208.08,10.72
5260.16,11.02
5312.77,11.22
5365.89,11.52
5419.55,11.77
5473.75,12.00
5528.49,12.20
5583.77,12.33
5639.61,12.37
5696.00,12.36
5752.96,12.25
5810.49,12.18
5868.60,11.99
5927.28,11.71
5986.56,11.40
6046.42,11.04
6106.89,10.61
6167.96,10.20
6229.64,9.81
6291.93,9.40
6354.85,8.89
6418.40,8.35
6482.58,7.74
6547.41,7.25
6612.88,6.84
6679.01,6.38
6745.80,6.03
6813.26,5.87
6881.39,5.79
6950.21,5.83
7019.71,6.07
7089.91,6.34
7160.81,6.61
7232.41,6.88
7304.74,7.23
7377.79,7.36
7451.56,7.29
7526.08,7.35
7601.34,7.26
7677.35,7.08
7754.13,6.98
7831.67,6.80
7909.98,6.63
7989.08,6.56
8068.98,6.50
8149.67,6.40
8231.16,6.21
8313.47,6.04
8396.61,5.92
8480.57,5.71
8565.38,5.49
8651.03,4.88
8737.54,4.28
8824.92,3.49
8913.17,2.64
9002.30,2.11
9092.32,1.92
9183.25,1.88
9275.08,1.56
9367.83,1.04
9461.51,0.71
9556.12,0.46
9651.68,0.19
9748.20,-0.15
9845.68,-0.52
9944.14,-1.19
10043.58,-2.22
10144.02,-3.47
10245.46,-4.11
10347.91,-4.69
10451.39,-4.96
10555.91,-4.50
10661.46,-3.81
10768.08,-2.79
10875.76,-1.27
10984.52,-0.55
11094.36,-0.99
11205.31,-1.37
11317.36,-1.53
11430.53,-1.76
11544.84,-2.66
11660.29,-3.65
11776.89,-4.94
11894.66,-5.91
12013.60,-5.64
12133.74,-4.96
12255.08,-4.40
12377.63,-3.97
12501.41,-3.84
12626.42,-3.63
12752.68,-4.19
12880.21,-4.84
13009.01,-5.48
13139.10,-6.67
13270.49,-7.85
13403.20,-8.64
13537.23,-8.91
13672.60,-8.37
13809.33,-8.47
13947.42,-8.41
14086.90,-9.11
14227.77,-11.58
14370.04,-13.74
14513.74,-14.88
14658.88,-15.13
14805.47,-15.19
14953.52,-14.15
15103.06,-12.88
15254.09,-11.68
15406.63,-10.77
15560.70,-8.40
15716.30,-6.44
15873.47,-5.04
16032.20,-3.44
16192.52,-2.41
16354.45,-2.27
16517.99,-1.07
16683.17,-1.08
16850.01,-2.15
17018.51,-3.98
17188.69,-5.45
17360.58,-6.39
17534.18,-6.92
17709.53,-7.31
17886.62,-7.87
18065.49,-8.32
18246.14,-8.56
18428.60,-9.34
18612.89,-10.82
18799.02,-12.67
18987.01,-14.65
19176.88,-15.51
19368.65,-15.58
19562.33,-16.13
19757.96,-17.57
19955.54,-18.51
