frequency,raw,error,smoothed,error_smoothed,equalization,parametric_eq,fixed_band_eq,equalized_raw,equalized_smoothed,target
20.00,-0.65,-1.70,-0.65,-1.70,1.71,1.59,-0.48,1.06,1.06,1.06
20.20,-0.58,-1.60,-0.58,-1.61,1.61,1.50,-0.50,1.03,1.03,1.03
20.40,-0.50,-1.51,-0.50,-1.51,1.51,1.42,-0.51,1.01,1.01,1.01
20.61,-0.44,-1.43,-0.43,-1.42,1.42,1.34,-0.52,0.98,0.99,0.99
20.81,-0.35,-1.32,-0.36,-1.33,1.32,1.25,-0.53,0.97,0.97,0.97
21.02,-0.29,-1.23,-0.29,-1.23,1.23,1.17,-0.55,0.95,0.95,0.95
21.23,-0.22,-1.14,-0.21,-1.14,1.14,1.09,-0.56,0.93,0.93,0.93
21.44,-0.14,-1.05,-0.15,-1.05,1.05,1.01,-0.58,0.91,0.91,0.91
21.66,-0.08,-0.97,-0.08,-0.97,0.97,0.93,-0.59,0.89,0.89,0.89
21.87,-0.00,-0.88,-0.00,-0.88,0.88,0.85,-0.61,0.88,0.88,0.88
22.09,0.07,-0.79,0.07,-0.80,0.80,0.77,-0.62,0.86,0.86,0.86
22.31,0.14,-0.71,0.14,-0.71,0.71,0.69,-0.64,0.85,0.85,0.85
22.54,0.20,-0.64,0.20,-0.63,0.63,0.61,-0.65,0.84,0.84,0.84
22.76,0.28,-0.55,0.27,-0.55,0.55,0.53,-0.67,0.83,0.83,0.83
22.99,0.34,-0.47,0.34,-0.47,0.47,0.45,-0.69,0.82,0.82,0.82
23.22,0.41,-0.39,0.41,-0.39,0.39,0.38,-0.70,0.81,0.81,0.81
23.45,0.49,-0.31,0.48,-0.31,0.32,0.30,-0.72,0.80,0.80,0.80
23.69,0.55,-0.24,0.56,-0.24,0.24,0.22,-0.74,0.79,0.80,0.79
23.92,0.63,-0.16,0.62,-0.16,0.16,0.15,-0.76,0.79,0.79,0.79
24.16,0.70,-0.08,0.69,-0.09,0.09,0.07,-0.78,0.78,0.78,0.78
24.40,0.76,-0.02,0.76,-0.02,0.01,0.00,-0.80,0.77,0.77,0.78
24.65,0.82,0.06,0.83,0.05,-0.06,-0.07,-0.82,0.76,0.77,0.77
24.89,0.90,0.13,0.89,0.13,-0.13,-0.14,-0.84,0.76,0.76,0.77
25.14,0.97,0.21,0.97,0.21,-0.21,-0.22,-0.86,0.76,0.76,0.76
25.39,1.04,0.29,1.03,0.28,-0.28,-0.29,-0.88,0.76,0.76,0.75
25.65,1.10,0.36,1.10,0.36,-0.35,-0.36,-0.90,0.75,0.75,0.75
25.91,1.16,0.42,1.17,0.43,-0.43,-0.43,-0.92,0.74,0.74,0.74
26.16,1.24,0.50,1.23,0.50,-0.50,-0.50,-0.94,0.74,0.73,0.74
26.43,1.30,0.56,1.30,0.57,-0.57,-0.56,-0.96,0.73,0.73,0.74
26.69,1.37,0.65,1.38,0.64,-0.64,-0.63,-0.99,0.73,0.73,0.73
26.96,1.44,0.72,1.44,0.72,-0.72,-0.70,-1.01,0.73,0.73,0.73
27.23,1.51,0.79,1.51,0.79,-0.79,-0.76,-1.03,0.73,0.73,0.72
27.50,1.57,0.86,1.58,0.86,-0.86,-0.83,-1.05,0.72,0.72,0.72
27.77,1.65,0.93,1.64,0.93,-0.93,-0.89,-1.08,0.72,0.72,0.72
28.05,1.70,1.00,1.70,0.99,-0.99,-0.96,-1.10,0.71,0.71,0.71
28.33,1.77,1.06,1.77,1.06,-1.06,-1.02,-1.12,0.71,0.71,0.71
28.62,1.83,1.12,1.83,1.13,-1.12,-1.08,-1.15,0.71,0.71,0.71
28.90,1.89,1.20,1.89,1.19,-1.19,-1.15,-1.17,0.71,0.70,0.70
29.19,1.95,1.26,1.95,1.26,-1.25,-1.21,-1.20,0.70,0.70,0.70
29.48,2.02,1.32,2.02,1.32,-1.32,-1.27,-1.22,0.70,0.70,0.70
29.78,2.07,1.38,2.08,1.38,-1.39,-1.33,-1.24,0.69,0.69,0.70
30.08,2.14,1.44,2.14,1.44,-1.45,-1.39,-1.27,0.69,0.69,0.70
30.38,2.20,1.51,2.21,1.52,-1.52,-1.45,-1.29,0.69,0.69,0.69
30.68,2.27,1.59,2.28,1.59,-1.58,-1.51,-1.31,0.69,0.70,0.69
30.99,2.34,1.65,2.34,1.65,-1.64,-1.57,-1.34,0.70,0.70,0.69
31.30,2.39,1.71,2.40,1.71,-1.70,-1.63,-1.36,0.69,0.69,0.69
31.61,2.44,1.77,2.45,1.76,-1.76,-1.69,-1.39,0.68,0.68,0.68
31.93,2.49,1.82,2.49,1.82,-1.82,-1.74,-1.41,0.68,0.68,0.68
32.24,2.55,1.87,2.54,1.87,-1.87,-1.80,-1.43,0.67,0.67,0.68
32.57,2.59,1.93,2.59,1.92,-1.93,-1.86,-1.46,0.67,0.67,0.67
32.89,2.65,1.98,2.65,1.98,-1.98,-1.91,-1.48,0.67,0.67,0.67
33.22,2.69,2.03,2.69,2.03,-2.03,-1.97,-1.51,0.67,0.67,0.67
33.55,2.75,2.09,2.74,2.08,-2.08,-2.02,-1.53,0.67,0.66,0.66
33.89,2.78,2.13,2.79,2.13,-2.13,-2.08,-1.56,0.66,0.66,0.66
34.23,2.83,2.18,2.83,2.18,-2.18,-2.13,-1.58,0.66,0.65,0.66
34.57,2.87,2.23,2.88,2.22,-2.23,-2.18,-1.61,0.65,0.65,0.65
34.92,2.92,2.28,2.92,2.27,-2.27,-2.24,-1.64,0.65,0.65,0.65
35.27,2.96,2.32,2.96,2.32,-2.32,-2.29,-1.67,0.65,0.65,0.65
35.62,3.00,2.37,3.01,2.36,-2.36,-2.34,-1.69,0.64,0.64,0.64
35.97,3.05,2.41,3.04,2.40,-2.41,-2.39,-1.72,0.64,0.64,0.64
36.33,3.09,2.45,3.09,2.45,-2.45,-2.44,-1.76,0.64,0.64,0.64
36.70,3.12,2.49,3.13,2.49,-2.49,-2.49,-1.79,0.63,0.64,0.64
37.06,3.18,2.54,3.17,2.54,-2.54,-2.54,-1.82,0.64,0.63,0.64
37.43,3.22,2.59,3.21,2.58,-2.58,-2.59,-1.85,0.63,0.63,0.63
37.81,3.25,2.63,3.25,2.63,-2.63,-2.64,-1.89,0.63,0.63,0.63
38.19,3.29,2.67,3.30,2.67,-2.67,-2.69,-1.92,0.62,0.63,0.63
38.57,3.33,2.72,3.34,2.72,-2.72,-2.74,-1.96,0.62,0.62,0.62
38.95,3.39,2.77,3.38,2.76,-2.76,-2.78,-2.00,0.62,0.62,0.62
39.34,3.42,2.81,3.42,2.81,-2.81,-2.83,-2.04,0.61,0.61,0.61
39.74,3.45,2.85,3.46,2.85,-2.85,-2.88,-2.08,0.60,0.61,0.61
40.14,3.49,2.90,3.49,2.89,-2.89,-2.92,-2.13,0.60,0.60,0.60
40.54,3.53,2.94,3.53,2.94,-2.94,-2.97,-2.17,0.60,0.60,0.60
40.94,3.57,2.98,3.58,2.98,-2.98,-3.01,-2.22,0.60,0.60,0.60
41.35,3.62,3.03,3.62,3.02,-3.02,-3.06,-2.27,0.61,0.60,0.60
41.76,3.67,3.07,3.66,3.07,-3.06,-3.10,-2.32,0.61,0.61,0.60
42.18,3.70,3.11,3.70,3.10,-3.10,-3.14,-2.37,0.61,0.60,0.60
42.60,3.74,3.14,3.74,3.14,-3.14,-3.19,-2.43,0.60,0.60,0.60
43.03,3.77,3.17,3.78,3.17,-3.18,-3.23,-2.48,0.59,0.60,0.61
43.46,3.82,3.22,3.82,3.21,-3.22,-3.27,-2.54,0.60,0.60,0.61
43.90,3.87,3.27,3.87,3.26,-3.27,-3.31,-2.60,0.61,0.61,0.61
44.33,3.93,3.32,3.92,3.32,-3.31,-3.35,-2.66,0.61,0.61,0.61
44.78,3.97,3.37,3.97,3.36,-3.36,-3.39,-2.73,0.62,0.61,0.61
45.23,4.01,3.41,4.02,3.41,-3.41,-3.43,-2.79,0.61,0.61,0.61
45.68,4.06,3.46,4.06,3.45,-3.46,-3.47,-2.86,0.61,0.60,0.61
46.13,4.11,3.50,4.11,3.50,-3.51,-3.51,-2.93,0.60,0.60,0.61
46.60,4.16,3.56,4.16,3.55,-3.56,-3.55,-3.01,0.61,0.60,0.61
47.06,4.21,3.61,4.21,3.61,-3.61,-3.58,-3.08,0.61,0.61,0.61
47.53,4.25,3.66,4.26,3.66,-3.65,-3.62,-3.15,0.60,0.61,0.60
48.01,4.30,3.71,4.30,3.70,-3.70,-3.66,-3.23,0.61,0.60,0.60
48.49,4.34,3.75,4.34,3.75,-3.74,-3.69,-3.31,0.60,0.60,0.60
48.97,4.38,3.79,4.38,3.78,-3.78,-3.73,-3.39,0.60,0.60,0.60
49.46,4.41,3.82,4.42,3.82,-3.82,-3.76,-3.47,0.60,0.60,0.60
49.96,4.45,3.86,4.45,3.85,-3.85,-3.79,-3.56,0.60,0.60,0.60
50.46,4.48,3.89,4.48,3.88,-3.88,-3.83,-3.64,0.60,0.60,0.60
50.96,4.51,3.92,4.52,3.91,-3.91,-3.86,-3.72,0.60,0.60,0.60
51.47,4.54,3.94,4.54,3.94,-3.94,-3.89,-3.81,0.60,0.60,0.61
51.99,4.57,3.97,4.57,3.97,-3.97,-3.92,-3.89,0.60,0.60,0.61
52.51,4.60,4.00,4.60,4.00,-4.00,-3.95,-3.98,0.61,0.61,0.61
53.03,4.63,4.03,4.63,4.03,-4.02,-3.98,-4.06,0.61,0.61,0.61
53.56,4.66,4.06,4.66,4.05,-4.05,-4.01,-4.15,0.61,0.61,0.61
54.10,4.69,4.08,4.69,4.08,-4.08,-4.04,-4.23,0.61,0.61,0.62
54.64,4.72,4.11,4.72,4.11,-4.11,-4.07,-4.31,0.62,0.62,0.62
55.18,4.75,4.14,4.75,4.13,-4.14,-4.10,-4.39,0.62,0.62,0.62
55.74,4.78,4.17,4.79,4.16,-4.16,-4.13,-4.47,0.62,0.62,0.62
56.29,4.81,4.19,4.82,4.19,-4.19,-4.15,-4.54,0.63,0.63,0.63
56.86,4.84,4.22,4.84,4.21,-4.21,-4.18,-4.61,0.64,0.63,0.63
57.42,4.86,4.24,4.87,4.23,-4.23,-4.21,-4.68,0.64,0.64,0.63
58.00,4.88,4.25,4.89,4.25,-4.25,-4.23,-4.75,0.64,0.64,0.64
58.58,4.90,4.27,4.90,4.26,-4.26,-4.26,-4.80,0.64,0.64,0.64
59.16,4.91,4.28,4.92,4.27,-4.28,-4.28,-4.86,0.64,0.64,0.64
59.76,4.93,4.29,4.94,4.29,-4.29,-4.31,-4.91,0.64,0.64,0.65
60.35,4.95,4.31,4.95,4.31,-4.31,-4.33,-4.95,0.65,0.65,0.65
60.96,4.97,4.33,4.97,4.32,-4.33,-4.35,-4.99,0.65,0.65,0.65
61.57,4.99,4.35,4.99,4.34,-4.35,-4.37,-5.02,0.65,0.65,0.65
62.18,5.01,4.37,5.01,4.37,-4.37,-4.39,-5.05,0.65,0.65,0.65
62.80,5.03,4.39,5.04,4.39,-4.39,-4.42,-5.07,0.64,0.64,0.65
63.43,5.06,4.42,5.07,4.42,-4.42,-4.44,-5.08,0.65,0.65,0.65
64.07,5.09,4.45,5.10,4.45,-4.45,-4.46,-5.09,0.65,0.65,0.65
64.71,5.13,4.49,5.13,4.48,-4.48,-4.48,-5.09,0.66,0.65,0.65
65.35,5.15,4.51,5.16,4.51,-4.51,-4.50,-5.09,0.65,0.65,0.65
66.01,5.18,4.54,5.19,4.54,-4.54,-4.51,-5.08,0.65,0.65,0.65
66.67,5.21,4.57,5.21,4.57,-4.56,-4.53,-5.07,0.65,0.65,0.65
67.33,5.24,4.60,5.24,4.59,-4.59,-4.55,-5.05,0.66,0.65,0.65
68.01,5.26,4.62,5.27,4.62,-4.61,-4.57,-5.03,0.65,0.65,0.65
68.69,5.28,4.64,5.29,4.64,-4.63,-4.58,-5.00,0.65,0.65,0.65
69.37,5.30,4.66,5.30,4.65,-4.65,-4.60,-4.97,0.65,0.65,0.65
70.07,5.31,4.67,5.32,4.67,-4.67,-4.62,-4.94,0.64,0.65,0.65
70.77,5.33,4.69,5.34,4.68,-4.69,-4.63,-4.91,0.65,0.65,0.65
71.48,5.35,4.70,5.35,4.70,-4.70,-4.65,-4.87,0.65,0.65,0.66
72.19,5.37,4.72,5.38,4.72,-4.72,-4.66,-4.84,0.66,0.66,0.66
72.91,5.39,4.74,5.39,4.73,-4.73,-4.68,-4.80,0.66,0.66,0.66
73.64,5.40,4.75,5.41,4.74,-4.74,-4.69,-4.76,0.67,0.67,0.66
74.38,5.41,4.75,5.42,4.75,-4.74,-4.70,-4.72,0.67,0.67,0.67
75.12,5.42,4.76,5.42,4.75,-4.74,-4.72,-4.68,0.68,0.68,0.67
75.87,5.42,4.75,5.42,4.75,-4.74,-4.73,-4.65,0.68,0.68,0.68
76.63,5.41,4.74,5.42,4.74,-4.74,-4.74,-4.61,0.68,0.68,0.68
77.40,5.41,4.74,5.41,4.73,-4.73,-4.75,-4.57,0.69,0.68,0.68
78.17,5.40,4.72,5.41,4.72,-4.72,-4.77,-4.54,0.68,0.68,0.69
78.95,5.40,4.72,5.40,4.71,-4.72,-4.78,-4.51,0.68,0.68,0.69
79.74,5.40,4.72,5.41,4.71,-4.72,-4.79,-4.48,0.68,0.68,0.69
80.54,5.41,4.72,5.42,4.72,-4.73,-4.80,-4.45,0.69,0.69,0.70
81.35,5.43,4.74,5.43,4.73,-4.74,-4.81,-4.43,0.70,0.69,0.70
82.16,5.45,4.76,5.45,4.75,-4.75,-4.82,-4.41,0.70,0.70,0.70
82.98,5.47,4.78,5.48,4.78,-4.77,-4.83,-4.39,0.70,0.70,0.70
83.81,5.50,4.81,5.50,4.80,-4.80,-4.84,-4.38,0.71,0.71,0.70
84.65,5.53,4.83,5.53,4.82,-4.82,-4.85,-4.36,0.71,0.70,0.71
85.50,5.55,4.85,5.56,4.85,-4.85,-4.86,-4.35,0.70,0.71,0.71
86.35,5.58,4.88,5.59,4.88,-4.88,-4.86,-4.35,0.70,0.71,0.71
87.22,5.62,4.92,5.62,4.91,-4.91,-4.87,-4.35,0.71,0.71,0.71
88.09,5.64,4.94,5.65,4.94,-4.94,-4.88,-4.35,0.71,0.71,0.71
88.97,5.67,4.97,5.68,4.97,-4.97,-4.89,-4.35,0.71,0.71,0.71
89.86,5.70,5.00,5.70,4.99,-4.99,-4.89,-4.36,0.71,0.71,0.71
90.76,5.72,5.02,5.72,5.01,-5.01,-4.90,-4.37,0.71,0.71,0.71
91.66,5.73,5.03,5.74,5.03,-5.03,-4.90,-4.38,0.71,0.71,0.71
92.58,5.75,5.05,5.75,5.04,-5.04,-4.91,-4.40,0.72,0.71,0.71
93.51,5.75,5.05,5.76,5.05,-5.04,-4.92,-4.42,0.71,0.71,0.71
94.44,5.75,5.05,5.76,5.05,-5.04,-4.92,-4.44,0.71,0.71,0.71
95.39,5.75,5.05,5.75,5.04,-5.04,-4.92,-4.47,0.71,0.71,0.71
96.34,5.74,5.04,5.75,5.04,-5.04,-4.93,-4.50,0.71,0.71,0.71
97.30,5.74,5.03,5.74,5.03,-5.03,-4.93,-4.53,0.71,0.71,0.72
98.28,5.73,5.02,5.74,5.02,-5.03,-4.94,-4.57,0.71,0.71,0.72
99.26,5.73,5.02,5.74,5.02,-5.02,-4.94,-4.60,0.71,0.71,0.72
100.25,5.73,5.02,5.73,5.01,-5.02,-4.94,-4.64,0.72,0.72,0.72
101.25,5.73,5.02,5.73,5.02,-5.01,-4.94,-4.69,0.72,0.72,0.72
102.27,5.73,5.02,5.73,5.02,-5.01,-4.95,-4.73,0.72,0.72,0.72
103.29,5.73,5.02,5.73,5.01,-5.01,-4.95,-4.77,0.72,0.72,0.72
104.32,5.73,5.01,5.73,5.01,-5.01,-4.95,-4.82,0.73,0.73,0.73
105.37,5.73,5.01,5.73,5.01,-5.01,-4.95,-4.87,0.73,0.73,0.73
106.42,5.73,5.01,5.73,5.00,-5.00,-4.95,-4.91,0.73,0.73,0.73
107.48,5.73,5.00,5.73,5.00,-5.00,-4.95,-4.96,0.73,0.73,0.74
108.56,5.73,5.00,5.73,5.00,-5.00,-4.95,-5.00,0.74,0.74,0.74
109.64,5.73,5.00,5.73,5.00,-4.99,-4.95,-5.05,0.74,0.74,0.74
110.74,5.73,5.00,5.73,5.00,-4.99,-4.94,-5.09,0.74,0.74,0.74
111.85,5.73,5.00,5.73,4.99,-4.99,-4.94,-5.14,0.74,0.74,0.74
112.97,5.73,4.99,5.73,4.99,-4.99,-4.94,-5.18,0.74,0.74,0.75
114.10,5.73,4.99,5.74,4.99,-5.00,-4.94,-5.21,0.74,0.74,0.75
115.24,5.74,5.00,5.74,4.99,-5.00,-4.93,-5.25,0.75,0.75,0.75
116.39,5.75,5.01,5.75,5.00,-5.00,-4.93,-5.28,0.76,0.75,0.75
117.55,5.75,5.00,5.76,5.00,-5.00,-4.92,-5.31,0.76,0.76,0.76
118.73,5.75,5.00,5.75,5.00,-4.99,-4.92,-5.33,0.76,0.76,0.76
119.92,5.74,4.99,5.75,4.99,-4.98,-4.91,-5.35,0.76,0.76,0.76
121.12,5.73,4.98,5.74,4.98,-4.97,-4.91,-5.36,0.76,0.77,0.76
122.33,5.72,4.96,5.72,4.96,-4.95,-4.90,-5.37,0.77,0.77,0.77
123.55,5.70,4.94,5.70,4.93,-4.92,-4.89,-5.37,0.78,0.78,0.77
124.79,5.67,4.90,5.67,4.90,-4.89,-4.89,-5.36,0.78,0.78,0.78
126.03,5.63,4.86,5.64,4.86,-4.86,-4.88,-5.35,0.78,0.78,0.78
127.29,5.60,4.82,5.61,4.82,-4.82,-4.87,-5.34,0.78,0.78,0.79
128.57,5.57,4.79,5.57,4.78,-4.78,-4.86,-5.32,0.79,0.79,0.79
129.85,5.53,4.75,5.54,4.74,-4.74,-4.85,-5.29,0.79,0.79,0.79
131.15,5.49,4.71,5.50,4.71,-4.71,-4.84,-5.26,0.79,0.79,0.79
132.46,5.47,4.68,5.47,4.67,-4.68,-4.83,-5.22,0.80,0.79,0.80
133.79,5.44,4.65,5.45,4.65,-4.65,-4.82,-5.18,0.79,0.80,0.80
135.12,5.42,4.63,5.43,4.63,-4.63,-4.80,-5.14,0.79,0.80,0.80
136.48,5.41,4.62,5.41,4.61,-4.62,-4.79,-5.09,0.80,0.79,0.80
137.84,5.39,4.60,5.40,4.60,-4.61,-4.78,-5.04,0.79,0.79,0.80
139.22,5.39,4.60,5.40,4.60,-4.61,-4.76,-4.98,0.79,0.79,0.80
140.61,5.40,4.61,5.40,4.60,-4.61,-4.75,-4.92,0.80,0.80,0.80
142.02,5.41,4.61,5.42,4.61,-4.61,-4.73,-4.86,0.81,0.81,0.81
143.44,5.42,4.62,5.43,4.62,-4.61,-4.72,-4.80,0.82,0.82,0.81
144.87,5.43,4.63,5.43,4.62,-4.61,-4.70,-4.74,0.83,0.82,0.81
146.32,5.42,4.61,5.43,4.61,-4.60,-4.68,-4.67,0.82,0.82,0.82
147.78,5.41,4.60,5.42,4.60,-4.59,-4.66,-4.61,0.82,0.82,0.82
149.26,5.40,4.59,5.40,4.58,-4.57,-4.65,-4.54,0.83,0.82,0.82
150.75,5.37,4.55,5.38,4.55,-4.55,-4.63,-4.48,0.82,0.83,0.83
152.26,5.35,4.53,5.36,4.53,-4.52,-4.61,-4.42,0.83,0.83,0.83
153.78,5.32,4.50,5.32,4.49,-4.49,-4.59,-4.35,0.84,0.83,0.83
155.32,5.29,4.46,5.29,4.45,-4.45,-4.57,-4.29,0.84,0.84,0.84
156.88,5.24,4.41,5.25,4.41,-4.42,-4.55,-4.23,0.82,0.83,0.84
158.44,5.22,4.39,5.22,4.38,-4.39,-4.52,-4.18,0.84,0.83,0.84
160.03,5.18,4.35,5.19,4.35,-4.36,-4.50,-4.12,0.83,0.83,0.84
161.63,5.16,4.33,5.17,4.32,-4.33,-4.48,-4.07,0.84,0.84,0.84
163.24,5.14,4.30,5.14,4.30,-4.30,-4.46,-4.01,0.84,0.84,0.85
164.88,5.12,4.28,5.13,4.28,-4.28,-4.43,-3.97,0.85,0.85,0.85
166.53,5.10,4.26,5.11,4.26,-4.26,-4.41,-3.92,0.85,0.85,0.85
168.19,5.09,4.25,5.09,4.24,-4.24,-4.38,-3.88,0.86,0.85,0.85
169.87,5.06,4.21,5.07,4.22,-4.21,-4.36,-3.83,0.85,0.86,0.86
171.57,5.05,4.20,5.05,4.20,-4.19,-4.33,-3.80,0.86,0.86,0.86
173.29,5.03,4.18,5.03,4.17,-4.17,-4.30,-3.76,0.87,0.86,0.86
175.02,5.00,4.15,5.01,4.14,-4.14,-4.28,-3.73,0.86,0.86,0.86
176.77,4.97,4.11,4.98,4.11,-4.12,-4.25,-3.70,0.86,0.86,0.87
178.54,4.95,4.09,4.95,4.08,-4.09,-4.22,-3.67,0.87,0.86,0.87
180.32,4.92,4.06,4.93,4.06,-4.06,-4.19,-3.65,0.87,0.87,0.87
182.13,4.90,4.04,4.90,4.03,-4.03,-4.17,-3.63,0.88,0.87,0.87
183.95,4.86,4.00,4.87,4.00,-4.00,-4.14,-3.61,0.87,0.87,0.87
185.79,4.83,3.97,4.84,3.97,-3.96,-4.11,-3.59,0.87,0.87,0.87
187.65,4.80,3.94,4.80,3.93,-3.93,-4.08,-3.58,0.87,0.87,0.87
189.52,4.76,3.90,4.77,3.90,-3.90,-4.05,-3.57,0.87,0.87,0.87
191.42,4.73,3.87,4.73,3.86,-3.87,-4.02,-3.56,0.87,0.86,0.87
193.33,4.69,3.83,4.70,3.83,-3.84,-3.99,-3.55,0.85,0.86,0.87
195.27,4.66,3.80,4.67,3.80,-3.81,-3.96,-3.55,0.85,0.86,0.87
197.22,4.64,3.78,4.65,3.78,-3.78,-3.92,-3.55,0.86,0.87,0.87
199.19,4.63,3.77,4.63,3.76,-3.75,-3.89,-3.55,0.88,0.88,0.87
201.18,4.60,3.73,4.61,3.73,-3.71,-3.86,-3.55,0.89,0.89,0.88
203.19,4.57,3.70,4.57,3.69,-3.67,-3.83,-3.55,0.90,0.90,0.88
205.23,4.52,3.64,4.53,3.64,-3.63,-3.80,-3.56,0.90,0.90,0.89
207.28,4.47,3.59,4.48,3.59,-3.58,-3.77,-3.57,0.89,0.90,0.89
209.35,4.42,3.54,4.42,3.53,-3.53,-3.73,-3.57,0.89,0.89,0.89
211.44,4.36,3.47,4.37,3.47,-3.48,-3.70,-3.58,0.88,0.89,0.90
213.56,4.31,3.42,4.32,3.42,-3.43,-3.67,-3.59,0.88,0.88,0.90
215.69,4.27,3.38,4.27,3.37,-3.39,-3.63,-3.60,0.89,0.88,0.90
217.85,4.23,3.34,4.24,3.34,-3.35,-3.60,-3.61,0.89,0.90,0.90
220.03,4.22,3.32,4.22,3.32,-3.31,-3.57,-3.62,0.91,0.91,0.91
222.23,4.20,3.30,4.20,3.29,-3.28,-3.54,-3.63,0.93,0.92,0.91
224.45,4.17,3.27,4.17,3.26,-3.25,-3.50,-3.63,0.92,0.92,0.91
226.70,4.13,3.23,4.14,3.23,-3.23,-3.47,-3.64,0.91,0.91,0.91
228.96,4.11,3.20,4.12,3.20,-3.21,-3.44,-3.64,0.90,0.91,0.92
231.25,4.10,3.19,4.10,3.18,-3.20,-3.41,-3.64,0.91,0.91,0.92
233.57,4.09,3.18,4.10,3.17,-3.18,-3.38,-3.64,0.91,0.91,0.92
235.90,4.09,3.17,4.10,3.17,-3.17,-3.34,-3.64,0.92,0.92,0.93
238.26,4.10,3.18,4.10,3.17,-3.17,-3.31,-3.63,0.94,0.94,0.93
240.64,4.11,3.18,4.11,3.17,-3.16,-3.28,-3.63,0.95,0.95,0.94
243.05,4.11,3.17,4.12,3.17,-3.16,-3.25,-3.61,0.96,0.96,0.95
245.48,4.11,3.16,4.12,3.16,-3.15,-3.22,-3.60,0.96,0.96,0.96
247.93,4.11,3.16,4.11,3.15,-3.15,-3.19,-3.58,0.96,0.96,0.96
250.41,4.11,3.15,4.11,3.14,-3.15,-3.16,-3.56,0.97,0.97,0.97
252.92,4.11,3.14,4.11,3.14,-3.14,-3.13,-3.53,0.97,0.97,0.98
255.45,4.11,3.13,4.11,3.13,-3.14,-3.10,-3.51,0.98,0.98,0.99
258.00,4.11,3.13,4.12,3.13,-3.14,-3.07,-3.47,0.98,0.98,0.99
260.58,4.12,3.13,4.12,3.13,-3.13,-3.05,-3.44,0.99,0.99,1.00
263.19,4.13,3.14,4.13,3.13,-3.13,-3.02,-3.40,1.00,1.00,1.00
265.82,4.13,3.14,4.14,3.13,-3.13,-2.99,-3.36,1.01,1.01,1.00
268.48,4.13,3.13,4.13,3.13,-3.12,-2.97,-3.31,1.02,1.02,1.01
271.16,4.12,3.12,4.13,3.12,-3.11,-2.94,-3.26,1.02,1.02,1.01
273.87,4.11,3.11,4.11,3.10,-3.09,-2.92,-3.21,1.02,1.02,1.01
276.61,4.08,3.07,4.09,3.07,-3.07,-2.90,-3.16,1.01,1.02,1.02
279.38,4.06,3.05,4.07,3.04,-3.05,-2.88,-3.11,1.02,1.02,1.02
282.17,4.04,3.02,4.04,3.01,-3.02,-2.85,-3.05,1.02,1.02,1.03
284.99,4.01,2.99,4.02,2.99,-2.99,-2.84,-2.99,1.02,1.02,1.03
287.84,3.98,2.96,3.99,2.96,-2.96,-2.82,-2.93,1.03,1.03,1.03
290.72,3.95,2.93,3.96,2.93,-2.92,-2.80,-2.87,1.03,1.03,1.03
293.63,3.92,2.90,3.92,2.89,-2.89,-2.78,-2.81,1.04,1.04,1.03
296.57,3.88,2.86,3.88,2.85,-2.84,-2.76,-2.75,1.04,1.04,1.03
299.53,3.84,2.81,3.84,2.81,-2.80,-2.75,-2.69,1.04,1.04,1.04
302.53,3.79,2.76,3.80,2.76,-2.76,-2.73,-2.63,1.04,1.04,1.04
305.55,3.75,2.72,3.75,2.71,-2.71,-2.71,-2.57,1.04,1.03,1.04
308.61,3.70,2.66,3.71,2.66,-2.67,-2.69,-2.51,1.03,1.03,1.05
311.69,3.66,2.62,3.67,2.62,-2.64,-2.67,-2.45,1.03,1.03,1.05
314.81,3.64,2.59,3.64,2.59,-2.60,-2.65,-2.39,1.05,1.05,1.06
317.96,3.62,2.57,3.62,2.56,-2.56,-2.62,-2.33,1.06,1.06,1.06
321.14,3.60,2.54,3.60,2.54,-2.52,-2.60,-2.27,1.08,1.08,1.07
324.35,3.57,2.51,3.57,2.50,-2.48,-2.57,-2.22,1.09,1.09,1.07
327.59,3.53,2.47,3.53,2.46,-2.44,-2.53,-2.16,1.09,1.09,1.07
330.87,3.48,2.41,3.49,2.41,-2.40,-2.50,-2.11,1.08,1.08,1.08
334.18,3.44,2.36,3.44,2.36,-2.37,-2.46,-2.05,1.08,1.08,1.09
337.52,3.39,2.31,3.40,2.31,-2.33,-2.41,-2.00,1.07,1.07,1.09
340.90,3.36,2.27,3.36,2.27,-2.29,-2.37,-1.95,1.08,1.08,1.10
344.30,3.33,2.24,3.34,2.24,-2.25,-2.32,-1.90,1.08,1.09,1.10
347.75,3.31,2.22,3.32,2.22,-2.21,-2.27,-1.85,1.10,1.11,1.10
351.23,3.30,2.21,3.30,2.19,-2.18,-2.22,-1.81,1.13,1.12,1.10
354.74,3.26,2.16,3.26,2.16,-2.14,-2.17,-1.76,1.13,1.12,1.11
358.28,3.21,2.11,3.22,2.11,-2.10,-2.12,-1.72,1.12,1.12,1.11
361.87,3.16,2.06,3.17,2.06,-2.06,-2.06,-1.67,1.11,1.11,1.11
365.49,3.12,2.02,3.12,2.01,-2.01,-2.01,-1.63,1.11,1.11,1.11
369.14,3.07,1.97,3.07,1.96,-1.97,-1.96,-1.59,1.10,1.10,1.11
372.83,3.02,1.92,3.03,1.92,-1.93,-1.91,-1.55,1.09,1.10,1.11
376.56,2.98,1.87,2.99,1.87,-1.89,-1.86,-1.51,1.09,1.10,1.12
380.33,2.96,1.85,2.97,1.85,-1.86,-1.81,-1.48,1.11,1.11,1.12
384.13,2.94,1.83,2.95,1.83,-1.82,-1.76,-1.44,1.12,1.13,1.12
387.97,2.93,1.82,2.92,1.80,-1.79,-1.71,-1.41,1.14,1.13,1.12
391.85,2.89,1.77,2.89,1.77,-1.76,-1.67,-1.38,1.14,1.14,1.13
395.77,2.85,1.73,2.86,1.73,-1.73,-1.62,-1.34,1.13,1.14,1.13
399.73,2.82,1.69,2.82,1.69,-1.69,-1.57,-1.31,1.13,1.13,1.14
403.72,2.79,1.66,2.79,1.65,-1.66,-1.53,-1.28,1.14,1.14,1.14
407.76,2.75,1.61,2.76,1.61,-1.62,-1.49,-1.26,1.14,1.14,1.15
411.84,2.72,1.58,2.72,1.57,-1.57,-1.45,-1.23,1.15,1.15,1.15
415.96,2.68,1.53,2.69,1.53,-1.53,-1.40,-1.20,1.16,1.16,1.16
420.12,2.64,1.49,2.65,1.49,-1.48,-1.36,-1.17,1.16,1.16,1.16
424.32,2.60,1.45,2.60,1.44,-1.43,-1.32,-1.15,1.17,1.17,1.16
428.56,2.55,1.39,2.55,1.39,-1.38,-1.28,-1.12,1.17,1.17,1.17
432.85,2.49,1.33,2.50,1.33,-1.33,-1.24,-1.10,1.16,1.17,1.17
437.18,2.44,1.28,2.45,1.28,-1.28,-1.20,-1.07,1.17,1.17,1.17
441.55,2.39,1.23,2.39,1.22,-1.22,-1.17,-1.05,1.17,1.17,1.17
445.96,2.34,1.18,2.34,1.17,-1.17,-1.13,-1.02,1.18,1.17,1.17
450.42,2.27,1.11,2.28,1.11,-1.11,-1.09,-1.00,1.16,1.17,1.17
454.93,2.21,1.05,2.22,1.05,-1.06,-1.05,-0.98,1.16,1.16,1.17
459.48,2.17,1.01,2.17,1.00,-1.01,-1.02,-0.95,1.17,1.16,1.17
464.07,2.12,0.96,2.13,0.96,-0.96,-0.98,-0.93,1.16,1.16,1.17
468.71,2.08,0.92,2.09,0.92,-0.92,-0.94,-0.90,1.17,1.17,1.17
473.40,2.04,0.88,2.05,0.87,-0.88,-0.90,-0.88,1.17,1.17,1.17
478.13,2.01,0.84,2.01,0.84,-0.84,-0.87,-0.86,1.18,1.18,1.18
482.91,1.97,0.80,1.98,0.80,-0.80,-0.83,-0.83,1.18,1.18,1.18
487.74,1.94,0.77,1.94,0.76,-0.76,-0.79,-0.81,1.19,1.19,1.18
492.62,1.90,0.73,1.90,0.72,-0.72,-0.76,-0.78,1.19,1.19,1.18
497.55,1.86,0.68,1.86,0.68,-0.68,-0.72,-0.76,1.19,1.19,1.19
502.52,1.81,0.63,1.82,0.63,-0.64,-0.68,-0.73,1.18,1.18,1.19
507.55,1.77,0.59,1.78,0.59,-0.60,-0.64,-0.70,1.18,1.18,1.19
512.62,1.74,0.56,1.74,0.55,-0.55,-0.61,-0.68,1.19,1.19,1.19
517.75,1.70,0.51,1.71,0.51,-0.51,-0.57,-0.65,1.19,1.20,1.20
522.93,1.67,0.48,1.67,0.48,-0.47,-0.53,-0.62,1.21,1.21,1.20
528.16,1.63,0.44,1.63,0.43,-0.42,-0.49,-0.59,1.21,1.21,1.20
533.44,1.58,0.39,1.58,0.38,-0.37,-0.45,-0.56,1.21,1.21,1.20
538.77,1.53,0.33,1.53,0.33,-0.33,-0.41,-0.53,1.21,1.20,1.21
544.16,1.47,0.27,1.48,0.27,-0.28,-0.37,-0.50,1.19,1.20,1.21
