frequency,raw,error,smoothed,error_smoothed,equalization,parametric_eq,fixed_band_eq,equalized_raw,equalized_smoothed,target
20.00,-0.03,-0.52,-0.03,-0.52,0.52,-0.12,-0.05,0.49,0.49,0.49
20.20,0.01,-0.51,0.01,-0.51,0.52,-0.12,-0.05,0.53,0.53,0.52
20.40,0.05,-0.51,0.05,-0.51,0.51,-0.12,-0.06,0.56,0.56,0.56
20.61,0.09,-0.49,0.09,-0.50,0.50,-0.12,-0.06,0.59,0.59,0.58
20.81,0.13,-0.49,0.13,-0.50,0.49,-0.13,-0.06,0.62,0.62,0.62
21.02,0.17,-0.49,0.17,-0.49,0.48,-0.13,-0.06,0.65,0.65,0.66
21.23,0.21,-0.47,0.21,-0.48,0.47,-0.13,-0.06,0.68,0.68,0.68
21.44,0.25,-0.45,0.25,-0.46,0.45,-0.13,-0.06,0.70,0.70,0.70
21.66,0.28,-0.44,0.28,-0.44,0.44,-0.13,-0.06,0.71,0.72,0.72
21.87,0.32,-0.41,0.32,-0.42,0.42,-0.14,-0.06,0.74,0.74,0.73
22.09,0.36,-0.39,0.36,-0.39,0.39,-0.14,-0.06,0.75,0.75,0.75
22.31,0.39,-0.37,0.39,-0.37,0.37,-0.14,-0.06,0.76,0.76,0.76
22.54,0.42,-0.34,0.42,-0.34,0.35,-0.14,-0.06,0.77,0.77,0.76
22.76,0.45,-0.32,0.45,-0.32,0.33,-0.14,-0.07,0.78,0.77,0.77
22.99,0.47,-0.30,0.47,-0.30,0.30,-0.15,-0.07,0.77,0.77,0.77
23.22,0.49,-0.29,0.50,-0.28,0.28,-0.15,-0.07,0.77,0.78,0.78
23.45,0.53,-0.26,0.53,-0.26,0.25,-0.15,-0.07,0.78,0.78,0.79
23.69,0.57,-0.23,0.57,-0.24,0.23,-0.15,-0.07,0.80,0.79,0.80
23.92,0.61,-0.21,0.61,-0.21,0.20,-0.16,-0.07,0.81,0.81,0.82
24.16,0.66,-0.18,0.66,-0.17,0.17,-0.16,-0.07,0.83,0.83,0.84
24.40,0.71,-0.14,0.71,-0.14,0.14,-0.16,-0.07,0.85,0.85,0.85
24.65,0.75,-0.10,0.75,-0.10,0.12,-0.16,-0.08,0.87,0.87,0.85
24.89,0.79,-0.08,0.79,-0.08,0.09,-0.17,-0.08,0.88,0.88,0.87
25.14,0.81,-0.07,0.81,-0.06,0.07,-0.17,-0.08,0.88,0.88,0.88
25.39,0.84,-0.04,0.84,-0.05,0.05,-0.17,-0.08,0.89,0.88,0.88
25.65,0.86,-0.03,0.86,-0.03,0.02,-0.18,-0.08,0.88,0.88,0.89
25.91,0.89,-0.01,0.89,-0.01,0.00,-0.18,-0.08,0.89,0.89,0.90
26.16,0.92,0.01,0.93,0.01,-0.02,-0.18,-0.09,0.90,0.90,0.91
26.43,0.97,0.05,0.97,0.04,-0.04,-0.19,-0.09,0.92,0.92,0.92
26.69,1.01,0.07,1.01,0.07,-0.07,-0.19,-0.09,0.94,0.94,0.94
26.96,1.05,0.10,1.05,0.10,-0.09,-0.19,-0.09,0.96,0.96,0.95
27.23,1.09,0.13,1.09,0.13,-0.12,-0.20,-0.10,0.97,0.97,0.96
27.50,1.12,0.14,1.12,0.15,-0.14,-0.20,-0.10,0.98,0.98,0.98
27.77,1.15,0.17,1.15,0.16,-0.16,-0.20,-0.10,0.99,0.98,0.98
28.05,1.17,0.17,1.17,0.18,-0.18,-0.21,-0.10,0.99,0.99,1.00
28.33,1.19,0.19,1.19,0.19,-0.20,-0.21,-0.11,0.99,1.00,1.00
28.62,1.22,0.20,1.22,0.21,-0.21,-0.21,-0.11,1.01,1.01,1.01
28.90,1.25,0.23,1.25,0.22,-0.22,-0.22,-0.12,1.03,1.02,1.02
29.19,1.27,0.24,1.27,0.23,-0.23,-0.22,-0.12,1.04,1.04,1.03
29.48,1.29,0.24,1.29,0.24,-0.23,-0.22,-0.12,1.06,1.06,1.05
29.78,1.30,0.24,1.30,0.24,-0.23,-0.23,-0.13,1.07,1.07,1.06
30.08,1.30,0.23,1.30,0.23,-0.23,-0.23,-0.14,1.07,1.08,1.07
30.38,1.30,0.22,1.30,0.22,-0.22,-0.24,-0.14,1.08,1.08,1.08
30.68,1.30,0.21,1.30,0.21,-0.21,-0.24,-0.15,1.09,1.09,1.09
30.99,1.30,0.20,1.30,0.20,-0.21,-0.25,-0.15,1.09,1.09,1.10
31.30,1.30,0.20,1.30,0.20,-0.21,-0.25,-0.16,1.09,1.10,1.10
31.61,1.31,0.19,1.31,0.20,-0.21,-0.26,-0.17,1.10,1.11,1.12
31.93,1.34,0.22,1.33,0.21,-0.22,-0.26,-0.17,1.12,1.12,1.12
32.24,1.36,0.23,1.36,0.23,-0.23,-0.27,-0.18,1.13,1.13,1.13
32.57,1.39,0.25,1.39,0.25,-0.25,-0.27,-0.19,1.14,1.14,1.14
32.89,1.42,0.26,1.42,0.27,-0.27,-0.28,-0.20,1.15,1.15,1.16
33.22,1.45,0.30,1.45,0.29,-0.29,-0.28,-0.21,1.16,1.16,1.15
33.55,1.48,0.31,1.48,0.31,-0.31,-0.29,-0.22,1.17,1.17,1.17
33.89,1.51,0.34,1.51,0.34,-0.34,-0.29,-0.23,1.17,1.18,1.17
34.23,1.54,0.35,1.54,0.36,-0.36,-0.30,-0.24,1.18,1.18,1.19
34.57,1.57,0.38,1.57,0.38,-0.38,-0.30,-0.25,1.19,1.19,1.19
34.92,1.59,0.39,1.59,0.39,-0.40,-0.31,-0.26,1.19,1.20,1.19
35.27,1.61,0.41,1.61,0.42,-0.41,-0.31,-0.27,1.20,1.20,1.20
35.62,1.63,0.43,1.63,0.43,-0.42,-0.32,-0.28,1.21,1.21,1.20
35.97,1.64,0.44,1.64,0.43,-0.43,-0.33,-0.30,1.21,1.21,1.20
36.33,1.64,0.42,1.64,0.44,-0.42,-0.33,-0.31,1.22,1.22,1.22
36.70,1.64,0.43,1.64,0.43,-0.42,-0.34,-0.32,1.22,1.22,1.21
37.06,1.63,0.43,1.63,0.42,-0.41,-0.35,-0.34,1.22,1.21,1.20
37.43,1.61,0.40,1.61,0.41,-0.41,-0.35,-0.35,1.20,1.21,1.21
37.81,1.60,0.39,1.60,0.40,-0.40,-0.36,-0.37,1.20,1.20,1.21
38.19,1.60,0.40,1.60,0.39,-0.40,-0.37,-0.38,1.20,1.19,1.20
38.57,1.60,0.39,1.60,0.40,-0.41,-0.37,-0.39,1.19,1.19,1.21
38.95,1.61,0.41,1.61,0.41,-0.42,-0.38,-0.41,1.19,1.19,1.20
39.34,1.63,0.44,1.63,0.44,-0.44,-0.39,-0.43,1.19,1.19,1.19
39.74,1.65,0.47,1.65,0.47,-0.46,-0.40,-0.44,1.19,1.19,1.18
40.14,1.68,0.49,1.68,0.49,-0.49,-0.41,-0.46,1.19,1.18,1.19
40.54,1.70,0.53,1.70,0.52,-0.52,-0.41,-0.48,1.18,1.18,1.17
40.94,1.73,0.55,1.73,0.56,-0.56,-0.42,-0.49,1.17,1.18,1.18
41.35,1.77,0.60,1.77,0.59,-0.59,-0.43,-0.51,1.18,1.17,1.17
41.76,1.80,0.63,1.80,0.63,-0.62,-0.44,-0.53,1.18,1.18,1.17
42.18,1.83,0.65,1.83,0.66,-0.66,-0.45,-0.55,1.17,1.18,1.18
42.60,1.86,0.69,1.86,0.69,-0.69,-0.46,-0.57,1.17,1.17,1.17
43.03,1.89,0.71,1.89,0.71,-0.72,-0.47,-0.59,1.17,1.17,1.18
43.46,1.91,0.74,1.91,0.74,-0.74,-0.48,-0.61,1.17,1.17,1.17
43.90,1.93,0.76,1.93,0.76,-0.76,-0.49,-0.63,1.17,1.17,1.17
44.33,1.95,0.79,1.95,0.78,-0.78,-0.50,-0.65,1.17,1.17,1.16
44.78,1.96,0.80,1.96,0.80,-0.79,-0.51,-0.67,1.17,1.17,1.16
45.23,1.97,0.81,1.97,0.81,-0.80,-0.52,-0.70,1.17,1.17,1.16
45.68,1.97,0.81,1.97,0.81,-0.80,-0.53,-0.72,1.17,1.17,1.16
46.13,1.96,0.80,1.96,0.80,-0.80,-0.54,-0.74,1.16,1.17,1.16
46.60,1.95,0.77,1.95,0.79,-0.79,-0.55,-0.76,1.16,1.16,1.18
47.06,1.95,0.78,1.95,0.78,-0.79,-0.56,-0.79,1.16,1.16,1.17
47.53,1.95,0.78,1.95,0.77,-0.78,-0.58,-0.81,1.17,1.17,1.17
48.01,1.95,0.76,1.95,0.77,-0.78,-0.59,-0.84,1.17,1.17,1.19
48.49,1.95,0.77,1.95,0.77,-0.78,-0.60,-0.86,1.17,1.17,1.18
48.97,1.95,0.79,1.95,0.78,-0.78,-0.61,-0.89,1.17,1.17,1.16
49.46,1.95,0.80,1.95,0.79,-0.78,-0.63,-0.91,1.17,1.16,1.15
49.96,1.94,0.80,1.94,0.80,-0.79,-0.64,-0.94,1.15,1.16,1.14
50.46,1.94,0.79,1.94,0.80,-0.79,-0.65,-0.97,1.15,1.15,1.15
50.96,1.93,0.79,1.93,0.80,-0.79,-0.67,-0.99,1.14,1.14,1.14
51.47,1.93,0.81,1.93,0.80,-0.80,-0.68,-1.02,1.13,1.13,1.12
51.99,1.93,0.81,1.93,0.80,-0.81,-0.70,-1.05,1.12,1.12,1.12
52.51,1.93,0.81,1.93,0.81,-0.82,-0.71,-1.08,1.11,1.11,1.12
53.03,1.94,0.82,1.94,0.83,-0.84,-0.73,-1.10,1.10,1.11,1.12
53.56,1.96,0.85,1.96,0.85,-0.86,-0.74,-1.13,1.10,1.10,1.11
54.10,1.98,0.89,1.98,0.89,-0.89,-0.76,-1.16,1.09,1.09,1.09
54.64,2.00,0.92,2.00,0.93,-0.93,-0.78,-1.18,1.07,1.08,1.08
55.18,2.03,0.97,2.03,0.97,-0.97,-0.79,-1.21,1.06,1.06,1.06
55.74,2.06,1.02,2.06,1.01,-1.01,-0.81,-1.23,1.05,1.05,1.04
56.29,2.09,1.05,2.09,1.05,-1.06,-0.83,-1.26,1.03,1.03,1.04
56.86,2.12,1.10,2.12,1.10,-1.10,-0.85,-1.28,1.02,1.02,1.02
57.42,2.15,1.15,2.15,1.15,-1.14,-0.87,-1.31,1.01,1.01,1.00
58.00,2.18,1.19,2.18,1.20,-1.19,-0.89,-1.33,0.99,0.99,0.99
58.58,2.21,1.24,2.21,1.23,-1.23,-0.91,-1.35,0.98,0.98,0.97
59.16,2.23,1.27,2.23,1.27,-1.27,-0.93,-1.37,0.96,0.96,0.96
59.76,2.25,1.30,2.25,1.31,-1.31,-0.95,-1.39,0.94,0.94,0.95
60.35,2.27,1.35,2.27,1.35,-1.35,-0.97,-1.41,0.92,0.92,0.92
60.96,2.28,1.38,2.28,1.39,-1.39,-0.99,-1.43,0.89,0.90,0.90
61.57,2.29,1.43,2.29,1.42,-1.42,-1.01,-1.45,0.87,0.87,0.86
62.18,2.29,1.45,2.29,1.45,-1.44,-1.03,-1.47,0.85,0.84,0.84
62.80,2.28,1.47,2.28,1.48,-1.47,-1.05,-1.48,0.81,0.81,0.81
63.43,2.28,1.50,2.28,1.49,-1.50,-1.08,-1.49,0.78,0.78,0.78
64.07,2.27,1.51,2.27,1.51,-1.52,-1.10,-1.51,0.75,0.75,0.76
64.71,2.27,1.53,2.27,1.54,-1.54,-1.13,-1.52,0.73,0.73,0.74
65.35,2.27,1.56,2.27,1.56,-1.56,-1.15,-1.53,0.71,0.71,0.71
66.01,2.27,1.58,2.27,1.58,-1.58,-1.18,-1.54,0.69,0.69,0.69
66.67,2.27,1.61,2.27,1.61,-1.61,-1.20,-1.55,0.66,0.66,0.66
67.33,2.27,1.64,2.27,1.63,-1.63,-1.23,-1.56,0.64,0.64,0.63
68.01,2.27,1.66,2.27,1.66,-1.66,-1.26,-1.57,0.61,0.61,0.61
68.69,2.27,1.69,2.27,1.69,-1.68,-1.28,-1.58,0.59,0.59,0.58
69.37,2.27,1.71,2.27,1.71,-1.71,-1.31,-1.58,0.56,0.56,0.56
70.07,2.27,1.73,2.27,1.73,-1.73,-1.34,-1.59,0.54,0.54,0.54
70.77,2.27,1.75,2.27,1.75,-1.76,-1.37,-1.60,0.51,0.51,0.52
71.48,2.27,1.78,2.27,1.78,-1.78,-1.40,-1.60,0.49,0.49,0.49
72.19,2.27,1.80,2.27,1.80,-1.80,-1.43,-1.61,0.47,0.47,0.47
72.91,2.27,1.82,2.27,1.82,-1.82,-1.46,-1.62,0.45,0.45,0.45
73.64,2.27,1.85,2.27,1.85,-1.84,-1.49,-1.63,0.43,0.43,0.42
74.38,2.27,1.86,2.27,1.86,-1.86,-1.52,-1.63,0.41,0.41,0.41
75.12,2.27,1.88,2.27,1.88,-1.88,-1.55,-1.64,0.39,0.39,0.39
75.87,2.27,1.89,2.27,1.89,-1.89,-1.58,-1.65,0.38,0.38,0.38
76.63,2.27,1.90,2.27,1.90,-1.90,-1.61,-1.66,0.37,0.37,0.37
77.40,2.27,1.91,2.27,1.91,-1.91,-1.64,-1.67,0.36,0.36,0.36
78.17,2.27,1.93,2.27,1.92,-1.92,-1.67,-1.68,0.35,0.35,0.34
78.95,2.27,1.93,2.27,1.93,-1.93,-1.71,-1.70,0.34,0.34,0.34
79.74,2.27,1.93,2.27,1.94,-1.94,-1.74,-1.71,0.33,0.33,0.34
80.54,2.27,1.94,2.27,1.94,-1.95,-1.77,-1.73,0.32,0.32,0.33
81.35,2.27,1.95,2.27,1.95,-1.96,-1.80,-1.74,0.31,0.31,0.32
82.16,2.27,1.97,2.27,1.96,-1.96,-1.83,-1.76,0.31,0.31,0.30
82.98,2.27,1.97,2.27,1.97,-1.97,-1.87,-1.78,0.30,0.30,0.30
83.81,2.27,1.99,2.27,1.98,-1.98,-1.90,-1.80,0.29,0.29,0.28
84.65,2.27,1.99,2.27,1.99,-1.99,-1.93,-1.82,0.28,0.28,0.28
85.50,2.27,1.99,2.27,2.00,-2.00,-1.96,-1.85,0.27,0.27,0.28
86.35,2.27,2.01,2.27,2.00,-2.00,-1.99,-1.87,0.27,0.27,0.26
87.22,2.27,2.01,2.27,2.01,-2.01,-2.02,-1.90,0.26,0.26,0.26
88.09,2.27,2.02,2.27,2.02,-2.02,-2.04,-1.93,0.25,0.25,0.25
88.97,2.27,2.02,2.27,2.03,-2.03,-2.07,-1.96,0.24,0.24,0.25
89.86,2.27,2.03,2.27,2.03,-2.03,-2.10,-1.99,0.24,0.24,0.24
90.76,2.27,2.05,2.27,2.04,-2.04,-2.12,-2.02,0.23,0.23,0.22
91.66,2.27,2.04,2.27,2.05,-2.05,-2.14,-2.05,0.22,0.22,0.23
92.58,2.27,2.06,2.27,2.06,-2.05,-2.16,-2.09,0.22,0.22,0.21
93.51,2.27,2.06,2.27,2.06,-2.06,-2.18,-2.13,0.21,0.21,0.21
94.44,2.27,2.06,2.27,2.07,-2.07,-2.20,-2.17,0.20,0.20,0.21
95.39,2.27,2.07,2.27,2.08,-2.08,-2.21,-2.20,0.19,0.19,0.20
96.34,2.27,2.10,2.27,2.09,-2.09,-2.22,-2.25,0.18,0.18,0.17
97.30,2.27,2.10,2.27,2.10,-2.10,-2.24,-2.29,0.17,0.17,0.17
98.28,2.27,2.11,2.27,2.12,-2.11,-2.25,-2.33,0.16,0.16,0.16
99.26,2.27,2.13,2.27,2.13,-2.13,-2.26,-2.37,0.14,0.14,0.14
100.25,2.27,2.14,2.27,2.14,-2.14,-2.26,-2.42,0.13,0.13,0.13
101.25,2.27,2.16,2.27,2.16,-2.16,-2.27,-2.46,0.11,0.11,0.11
102.27,2.27,2.17,2.27,2.18,-2.18,-2.28,-2.51,0.09,0.09,0.10
103.29,2.27,2.20,2.27,2.20,-2.19,-2.29,-2.55,0.08,0.08,0.07
104.32,2.27,2.21,2.27,2.22,-2.21,-2.30,-2.60,0.06,0.06,0.06
105.37,2.27,2.24,2.27,2.24,-2.24,-2.32,-2.64,0.03,0.03,0.03
106.42,2.27,2.26,2.27,2.26,-2.26,-2.34,-2.69,0.01,0.01,0.01
107.48,2.27,2.29,2.27,2.29,-2.29,-2.36,-2.73,-0.02,-0.02,-0.02
108.56,2.27,2.32,2.27,2.32,-2.32,-2.39,-2.78,-0.05,-0.05,-0.05
109.64,2.27,2.35,2.27,2.35,-2.35,-2.42,-2.82,-0.08,-0.08,-0.08
110.74,2.27,2.39,2.27,2.39,-2.39,-2.46,-2.86,-0.12,-0.12,-0.12
111.85,2.27,2.42,2.27,2.42,-2.43,-2.49,-2.90,-0.16,-0.16,-0.15
112.97,2.27,2.47,2.27,2.46,-2.46,-2.53,-2.93,-0.19,-0.19,-0.20
114.10,2.27,2.50,2.27,2.50,-2.50,-2.57,-2.96,-0.23,-0.23,-0.23
115.24,2.27,2.54,2.27,2.54,-2.55,-2.61,-2.99,-0.28,-0.28,-0.27
116.39,2.27,2.59,2.27,2.59,-2.59,-2.65,-3.02,-0.32,-0.32,-0.32
117.55,2.27,2.62,2.27,2.63,-2.62,-2.68,-3.04,-0.35,-0.35,-0.35
118.73,2.27,2.67,2.27,2.67,-2.66,-2.72,-3.06,-0.39,-0.39,-0.40
119.92,2.27,2.71,2.27,2.71,-2.70,-2.75,-3.08,-0.43,-0.43,-0.44
121.12,2.27,2.74,2.27,2.74,-2.74,-2.79,-3.09,-0.47,-0.47,-0.47
122.33,2.27,2.78,2.27,2.77,-2.78,-2.81,-3.09,-0.51,-0.51,-0.51
123.55,2.27,2.80,2.27,2.81,-2.82,-2.84,-3.10,-0.55,-0.55,-0.53
124.79,2.28,2.85,2.28,2.85,-2.86,-2.86,-3.09,-0.58,-0.58,-0.57
126.03,2.29,2.89,2.29,2.89,-2.89,-2.88,-3.09,-0.60,-0.61,-0.60
127.29,2.29,2.93,2.29,2.93,-2.93,-2.90,-3.07,-0.64,-0.63,-0.64
128.57,2.29,2.97,2.29,2.96,-2.96,-2.92,-3.06,-0.67,-0.67,-0.68
129.85,2.28,2.98,2.28,2.99,-2.98,-2.93,-3.03,-0.70,-0.70,-0.70
131.15,2.27,3.00,2.27,3.00,-3.00,-2.94,-3.01,-0.73,-0.73,-0.73
132.46,2.26,3.02,2.26,3.02,-3.01,-2.95,-2.98,-0.75,-0.76,-0.76
133.79,2.24,3.02,2.24,3.02,-3.02,-2.96,-2.95,-0.78,-0.78,-0.78
135.12,2.22,3.03,2.21,3.02,-3.02,-2.96,-2.91,-0.80,-0.81,-0.81
136.48,2.18,3.01,2.18,3.01,-3.01,-2.96,-2.87,-0.83,-0.83,-0.83
137.84,2.14,2.99,2.15,3.00,-3.00,-2.96,-2.82,-0.86,-0.86,-0.85
139.22,2.11,3.00,2.10,2.98,-2.98,-2.96,-2.77,-0.87,-0.88,-0.89
140.61,2.06,2.97,2.06,2.96,-2.96,-2.95,-2.72,-0.90,-0.90,-0.91
142.02,2.01,2.93,2.01,2.94,-2.93,-2.94,-2.67,-0.92,-0.92,-0.92
143.44,1.96,2.90,1.96,2.90,-2.90,-2.92,-2.62,-0.94,-0.94,-0.94
144.87,1.90,2.87,1.90,2.87,-2.87,-2.90,-2.56,-0.97,-0.97,-0.97
146.32,1.84,2.84,1.84,2.83,-2.83,-2.87,-2.50,-0.99,-0.99,-1.00
147.78,1.77,2.78,1.77,2.79,-2.79,-2.84,-2.45,-1.02,-1.02,-1.01
149.26,1.70,2.74,1.70,2.74,-2.75,-2.80,-2.39,-1.05,-1.05,-1.04
150.75,1.63,2.70,1.63,2.70,-2.70,-2.76,-2.33,-1.07,-1.07,-1.07
152.26,1.56,2.67,1.56,2.66,-2.66,-2.72,-2.27,-1.10,-1.10,-1.11
153.78,1.49,2.62,1.49,2.62,-2.62,-2.67,-2.21,-1.13,-1.13,-1.13
155.32,1.41,2.57,1.41,2.57,-2.57,-2.62,-2.15,-1.16,-1.16,-1.16
156.88,1.34,2.53,1.33,2.52,-2.53,-2.56,-2.09,-1.18,-1.19,-1.19
158.44,1.25,2.47,1.25,2.47,-2.48,-2.50,-2.03,-1.23,-1.23,-1.22
160.03,1.17,2.43,1.17,2.43,-2.43,-2.44,-1.97,-1.26,-1.26,-1.26
161.63,1.09,2.38,1.09,2.38,-2.38,-2.38,-1.91,-1.29,-1.29,-1.29
163.24,1.01,2.34,1.01,2.33,-2.33,-2.32,-1.85,-1.32,-1.32,-1.33
164.88,0.92,2.27,0.92,2.28,-2.27,-2.25,-1.79,-1.35,-1.35,-1.35
166.53,0.84,2.23,0.83,2.22,-2.22,-2.19,-1.73,-1.38,-1.39,-1.39
168.19,0.74,2.16,0.74,2.16,-2.17,-2.12,-1.68,-1.43,-1.42,-1.42
169.87,0.65,2.11,0.65,2.11,-2.11,-2.06,-1.62,-1.46,-1.46,-1.46
171.57,0.56,2.05,0.56,2.05,-2.06,-1.99,-1.57,-1.50,-1.50,-1.49
173.29,0.47,2.01,0.47,2.00,-2.00,-1.93,-1.52,-1.53,-1.54,-1.54
175.02,0.37,1.95,0.37,1.95,-1.95,-1.87,-1.47,-1.58,-1.58,-1.58
176.77,0.27,1.89,0.27,1.90,-1.90,-1.81,-1.41,-1.63,-1.63,-1.62
178.54,0.17,1.85,0.17,1.85,-1.84,-1.75,-1.37,-1.67,-1.67,-1.68
180.32,0.07,1.79,0.07,1.79,-1.79,-1.68,-1.32,-1.72,-1.72,-1.72
182.13,-0.04,1.73,-0.04,1.73,-1.73,-1.63,-1.27,-1.77,-1.77,-1.77
183.95,-0.16,1.66,-0.15,1.67,-1.67,-1.57,-1.22,-1.83,-1.82,-1.82
185.79,-0.26,1.61,-0.26,1.61,-1.60,-1.51,-1.18,-1.86,-1.86,-1.87
187.65,-0.37,1.55,-0.38,1.54,-1.53,-1.45,-1.13,-1.90,-1.91,-1.92
189.52,-0.50,1.46,-0.50,1.47,-1.47,-1.39,-1.09,-1.97,-1.96,-1.96
191.42,-0.62,1.39,-0.62,1.39,-1.40,-1.34,-1.05,-2.02,-2.01,-2.01
193.33,-0.73,1.32,-0.73,1.32,-1.33,-1.28,-1.01,-2.06,-2.06,-2.05
195.27,-0.84,1.25,-0.84,1.25,-1.26,-1.22,-0.97,-2.10,-2.10,-2.09
197.22,-0.95,1.19,-0.95,1.20,-1.19,-1.17,-0.93,-2.14,-2.14,-2.14
199.19,-1.06,1.13,-1.06,1.13,-1.13,-1.11,-0.89,-2.19,-2.18,-2.19
201.18,-1.16,1.07,-1.17,1.07,-1.06,-1.05,-0.85,-2.22,-2.23,-2.23
203.19,-1.28,0.99,-1.27,1.00,-0.99,-0.99,-0.82,-2.27,-2.26,-2.27
205.23,-1.38,0.93,-1.38,0.92,-0.92,-0.93,-0.78,-2.30,-2.30,-2.31
207.28,-1.48,0.86,-1.49,0.85,-0.86,-0.88,-0.75,-2.34,-2.34,-2.34
209.35,-1.60,0.78,-1.59,0.79,-0.79,-0.81,-0.72,-2.39,-2.38,-2.38
211.44,-1.70,0.73,-1.70,0.72,-0.72,-0.75,-0.68,-2.42,-2.42,-2.43
213.56,-1.81,0.65,-1.81,0.65,-0.65,-0.69,-0.65,-2.46,-2.47,-2.46
215.69,-1.92,0.57,-1.91,0.58,-0.59,-0.62,-0.62,-2.51,-2.51,-2.49
217.85,-2.01,0.52,-2.01,0.52,-0.53,-0.56,-0.59,-2.54,-2.54,-2.53
220.03,-2.10,0.47,-2.10,0.46,-0.47,-0.49,-0.56,-2.57,-2.57,-2.57
222.23,-2.18,0.42,-2.18,0.41,-0.40,-0.42,-0.54,-2.58,-2.58,-2.60
224.45,-2.26,0.35,-2.26,0.35,-0.34,-0.36,-0.51,-2.60,-2.60,-2.61
226.70,-2.34,0.29,-2.34,0.29,-0.28,-0.29,-0.49,-2.62,-2.62,-2.63
228.96,-2.43,0.23,-2.42,0.23,-0.22,-0.22,-0.46,-2.65,-2.64,-2.66
231.25,-2.50,0.16,-2.51,0.16,-0.16,-0.16,-0.44,-2.66,-2.66,-2.66
233.57,-2.59,0.09,-2.59,0.09,-0.10,-0.10,-0.42,-2.69,-2.69,-2.68
235.90,-2.66,0.03,-2.66,0.03,-0.05,-0.05,-0.40,-2.71,-2.70,-2.69
238.26,-2.71,-0.01,-2.71,-0.01,0.00,0.01,-0.38,-2.71,-2.71,-2.70
240.64,-2.75,-0.05,-2.75,-0.05,0.04,0.05,-0.36,-2.71,-2.71,-2.70
243.05,-2.77,-0.08,-2.77,-0.07,0.07,0.08,-0.34,-2.70,-2.70,-2.69
245.48,-2.79,-0.09,-2.79,-0.09,0.09,0.10,-0.32,-2.70,-2.69,-2.70
247.93,-2.79,-0.10,-2.80,-0.10,0.11,0.12,-0.31,-2.68,-2.69,-2.69
250.41,-2.80,-0.10,-2.80,-0.11,0.12,0.12,-0.29,-2.68,-2.68,-2.70
252.92,-2.80,-0.13,-2.80,-0.12,0.12,0.12,-0.28,-2.68,-2.67,-2.67
255.45,-2.79,-0.13,-2.79,-0.12,0.12,0.11,-0.27,-2.67,-2.67,-2.66
258.00,-2.77,-0.12,-2.77,-0.12,0.11,0.09,-0.26,-2.66,-2.66,-2.65
260.58,-2.75,-0.10,-2.75,-0.10,0.10,0.07,-0.25,-2.65,-2.65,-2.65
263.19,-2.72,-0.09,-2.72,-0.08,0.08,0.05,-0.24,-2.64,-2.64,-2.63
265.82,-2.68,-0.05,-2.68,-0.06,0.05,0.02,-0.23,-2.63,-2.63,-2.63
268.48,-2.63,-0.03,-2.63,-0.02,0.02,-0.01,-0.22,-2.61,-2.61,-2.60
271.16,-2.57,0.01,-2.57,0.02,-0.02,-0.04,-0.21,-2.59,-2.59,-2.58
273.87,-2.51,0.07,-2.52,0.06,-0.05,-0.07,-0.21,-2.56,-2.56,-2.58
276.61,-2.47,0.09,-2.47,0.10,-0.08,-0.10,-0.20,-2.55,-2.54,-2.56
279.38,-2.43,0.12,-2.43,0.12,-0.10,-0.13,-0.20,-2.53,-2.53,-2.55
282.17,-2.40,0.14,-2.41,0.13,-0.12,-0.15,-0.19,-2.52,-2.53,-2.54
284.99,-2.39,0.13,-2.39,0.14,-0.14,-0.18,-0.19,-2.53,-2.52,-2.52
287.84,-2.37,0.14,-2.37,0.14,-0.15,-0.20,-0.19,-2.52,-2.52,-2.51
290.72,-2.35,0.15,-2.35,0.15,-0.17,-0.22,-0.19,-2.52,-2.52,-2.50
293.63,-2.32,0.17,-2.32,0.17,-0.18,-0.24,-0.18,-2.50,-2.50,-2.49
296.57,-2.28,0.19,-2.28,0.19,-0.20,-0.25,-0.18,-2.48,-2.48,-2.47
299.53,-2.25,0.22,-2.25,0.22,-0.21,-0.27,-0.18,-2.46,-2.46,-2.47
302.53,-2.21,0.25,-2.21,0.24,-0.23,-0.28,-0.18,-2.44,-2.44,-2.46
305.55,-2.18,0.26,-2.18,0.26,-0.25,-0.29,-0.18,-2.43,-2.43,-2.44
308.61,-2.15,0.28,-2.15,0.28,-0.27,-0.30,-0.18,-2.42,-2.42,-2.43
311.69,-2.13,0.28,-2.13,0.28,-0.29,-0.31,-0.18,-2.42,-2.42,-2.41
314.81,-2.11,0.29,-2.11,0.29,-0.31,-0.32,-0.18,-2.42,-2.42,-2.40
317.96,-2.08,0.31,-2.08,0.31,-0.33,-0.33,-0.18,-2.41,-2.41,-2.39
321.14,-2.04,0.34,-2.04,0.34,-0.35,-0.34,-0.18,-2.39,-2.39,-2.38
324.35,-2.00,0.37,-2.00,0.37,-0.37,-0.34,-0.18,-2.37,-2.37,-2.37
327.59,-1.97,0.40,-1.97,0.39,-0.38,-0.35,-0.18,-2.35,-2.36,-2.36
330.87,-1.95,0.41,-1.95,0.41,-0.40,-0.36,-0.19,-2.35,-2.35,-2.36
334.18,-1.94,0.41,-1.94,0.41,-0.40,-0.36,-0.19,-2.34,-2.34,-2.35
337.52,-1.94,0.41,-1.94,0.41,-0.40,-0.37,-0.19,-2.34,-2.34,-2.35
340.90,-1.94,0.39,-1.94,0.39,-0.39,-0.37,-0.19,-2.33,-2.33,-2.33
344.30,-1.96,0.37,-1.96,0.37,-0.36,-0.37,-0.19,-2.32,-2.32,-2.33
347.75,-1.99,0.33,-1.99,0.34,-0.33,-0.38,-0.19,-2.32,-2.32,-2.32
351.23,-2.03,0.30,-2.03,0.30,-0.30,-0.38,-0.20,-2.33,-2.33,-2.33
354.74,-2.07,0.26,-2.07,0.26,-0.26,-0.38,-0.20,-2.33,-2.33,-2.33
358.28,-2.10,0.22,-2.10,0.22,-0.23,-0.39,-0.20,-2.33,-2.33,-2.32
361.87,-2.14,0.18,-2.14,0.18,-0.19,-0.39,-0.20,-2.33,-2.33,-2.32
365.49,-2.17,0.15,-2.17,0.16,-0.16,-0.39,-0.20,-2.33,-2.33,-2.32
369.14,-2.20,0.13,-2.20,0.13,-0.13,-0.39,-0.21,-2.33,-2.33,-2.33
372.83,-2.22,0.11,-2.22,0.11,-0.10,-0.40,-0.21,-2.32,-2.32,-2.33
376.56,-2.25,0.09,-2.25,0.08,-0.08,-0.40,-0.21,-2.33,-2.32,-2.34
380.33,-2.27,0.06,-2.27,0.06,-0.06,-0.40,-0.21,-2.33,-2.33,-2.33
384.13,-2.30,0.04,-2.30,0.04,-0.05,-0.41,-0.22,-2.35,-2.34,-2.34
387.97,-2.31,0.03,-2.31,0.03,-0.04,-0.41,-0.22,-2.35,-2.35,-2.34
391.85,-2.32,0.03,-2.32,0.03,-0.04,-0.41,-0.22,-2.36,-2.36,-2.35
395.77,-2.31,0.03,-2.31,0.04,-0.05,-0.41,-0.23,-2.36,-2.35,-2.34
399.73,-2.29,0.06,-2.29,0.06,-0.06,-0.42,-0.23,-2.35,-2.35,-2.35
403.72,-2.26,0.09,-2.26,0.09,-0.08,-0.42,-0.23,-2.34,-2.34,-2.35
407.76,-2.24,0.11,-2.24,0.11,-0.11,-0.42,-0.24,-2.35,-2.34,-2.35
411.84,-2.21,0.13,-2.21,0.14,-0.13,-0.43,-0.24,-2.34,-2.34,-2.34
415.96,-2.18,0.16,-2.18,0.16,-0.17,-0.43,-0.24,-2.35,-2.35,-2.34
420.12,-2.15,0.20,-2.15,0.19,-0.20,-0.44,-0.25,-2.35,-2.35,-2.35
424.32,-2.12,0.23,-2.12,0.23,-0.23,-0.44,-0.25,-2.35,-2.35,-2.35
428.56,-2.09,0.27,-2.09,0.26,-0.26,-0.44,-0.26,-2.35,-2.35,-2.36
432.85,-2.06,0.30,-2.06,0.30,-0.29,-0.45,-0.26,-2.35,-2.35,-2.36
437.18,-2.03,0.33,-2.03,0.33,-0.32,-0.45,-0.27,-2.35,-2.35,-2.36
441.55,-2.00,0.35,-2.00,0.35,-0.34,-0.46,-0.28,-2.34,-2.35,-2.35
445.96,-1.98,0.37,-1.98,0.37,-0.36,-0.46,-0.28,-2.34,-2.35,-2.35
450.42,-1.97,0.39,-1.97,0.38,-0.38,-0.47,-0.29,-2.35,-2.35,-2.36
454.93,-1.96,0.39,-1.96,0.40,-0.39,-0.48,-0.30,-2.35,-2.35,-2.35
459.48,-1.95,0.40,-1.95,0.40,-0.40,-0.48,-0.31,-2.35,-2.35,-2.35
464.07,-1.94,0.41,-1.94,0.41,-0.41,-0.49,-0.32,-2.35,-2.35,-2.35
468.71,-1.93,0.41,-1.93,0.42,-0.42,-0.50,-0.32,-2.35,-2.35,-2.34
473.40,-1.92,0.43,-1.92,0.43,-0.43,-0.50,-0.34,-2.35,-2.35,-2.35
478.13,-1.90,0.44,-1.90,0.44,-0.45,-0.51,-0.35,-2.35,-2.35,-2.34
482.91,-1.88,0.46,-1.88,0.47,-0.47,-0.52,-0.36,-2.35,-2.35,-2.34
487.74,-1.85,0.49,-1.85,0.49,-0.49,-0.53,-0.37,-2.34,-2.34,-2.34
