frequency,raw,error,smoothed,error_smoothed,equalization,parametric_eq,fixed_band_eq,equalized_raw,equalized_smoothed,target
20.00,-21.82,-19.26,-21.82,-19.26,6.00,4.91,2.76,-15.82,-15.82,-2.57
20.20,-21.71,-19.15,-21.71,-19.15,6.00,4.96,2.84,-15.71,-15.71,-2.57
20.40,-21.60,-19.03,-21.60,-19.03,6.00,5.01,2.92,-15.60,-15.60,-2.58
20.61,-21.50,-18.92,-21.49,-18.91,6.00,5.06,3.01,-15.50,-15.49,-2.58
20.81,-21.37,-18.79,-21.38,-18.79,6.00,5.10,3.09,-15.37,-15.38,-2.59
21.02,-21.26,-18.68,-21.26,-18.67,6.00,5.15,3.18,-15.26,-15.26,-2.59
21.23,-21.14,-18.55,-21.15,-18.55,6.00,5.20,3.27,-15.14,-15.15,-2.60
21.44,-21.03,-18.44,-21.04,-18.44,6.00,5.25,3.36,-15.03,-15.04,-2.60
21.66,-20.93,-18.33,-20.93,-18.33,6.00,5.30,3.46,-14.93,-14.93,-2.60
21.87,-20.82,-18.22,-20.82,-18.21,6.00,5.34,3.56,-14.82,-14.82,-2.61
22.09,-20.71,-18.10,-20.71,-18.10,6.00,5.39,3.66,-14.71,-14.71,-2.62
22.31,-20.60,-17.99,-20.61,-17.99,6.00,5.44,3.77,-14.60,-14.61,-2.62
22.54,-20.50,-17.89,-20.50,-17.88,6.00,5.49,3.87,-14.50,-14.50,-2.62
22.76,-20.38,-17.76,-20.39,-17.76,6.00,5.53,3.98,-14.38,-14.39,-2.63
22.99,-20.27,-17.65,-20.27,-17.65,6.00,5.58,4.10,-14.27,-14.27,-2.63
23.22,-20.16,-17.53,-20.16,-17.53,6.00,5.62,4.21,-14.16,-14.16,-2.64
23.45,-20.04,-17.41,-20.04,-17.41,6.00,5.67,4.33,-14.04,-14.04,-2.64
23.69,-19.93,-17.29,-19.93,-17.29,6.00,5.71,4.45,-13.93,-13.93,-2.64
23.92,-19.81,-17.17,-19.81,-17.17,6.00,5.76,4.58,-13.81,-13.81,-2.65
24.16,-19.69,-17.05,-19.70,-17.05,6.00,5.80,4.70,-13.69,-13.70,-2.65
24.40,-19.58,-16.94,-19.58,-16.94,6.00,5.84,4.83,-13.58,-13.58,-2.65
24.65,-19.47,-16.83,-19.47,-16.82,6.00,5.89,4.96,-13.47,-13.47,-2.65
24.89,-19.35,-16.70,-19.35,-16.70,6.00,5.93,5.09,-13.35,-13.35,-2.66
25.14,-19.23,-16.58,-19.24,-16.58,6.00,5.97,5.23,-13.23,-13.24,-2.66
25.39,-19.12,-16.47,-19.12,-16.46,6.00,6.01,5.36,-13.12,-13.12,-2.66
25.65,-19.00,-16.35,-19.00,-16.35,6.00,6.05,5.50,-13.00,-13.00,-2.66
25.91,-18.89,-16.23,-18.88,-16.23,6.00,6.09,5.63,-12.89,-12.88,-2.66
26.16,-18.76,-16.11,-18.76,-16.11,6.00,6.12,5.77,-12.76,-12.76,-2.66
26.43,-18.64,-15.99,-18.64,-15.99,6.00,6.16,5.91,-12.64,-12.64,-2.66
26.69,-18.52,-15.86,-18.52,-15.86,6.00,6.20,6.04,-12.52,-12.52,-2.67
26.96,-18.40,-15.74,-18.41,-15.74,6.00,6.23,6.17,-12.40,-12.41,-2.67
27.23,-18.28,-15.62,-18.29,-15.62,6.00,6.27,6.31,-12.28,-12.29,-2.67
27.50,-18.17,-15.51,-18.17,-15.50,6.00,6.30,6.43,-12.17,-12.17,-2.67
27.77,-18.04,-15.38,-18.05,-15.38,6.00,6.33,6.56,-12.04,-12.05,-2.67
28.05,-17.92,-15.25,-17.92,-15.25,6.00,6.36,6.68,-11.92,-11.92,-2.68
28.33,-17.80,-15.13,-17.80,-15.12,6.00,6.39,6.80,-11.80,-11.80,-2.68
28.62,-17.68,-15.00,-17.68,-15.00,6.00,6.42,6.90,-11.68,-11.68,-2.68
28.90,-17.56,-14.88,-17.56,-14.88,6.00,6.45,7.01,-11.56,-11.56,-2.69
29.19,-17.44,-14.76,-17.44,-14.76,6.00,6.48,7.10,-11.44,-11.44,-2.69
29.48,-17.32,-14.64,-17.32,-14.63,6.00,6.50,7.19,-11.32,-11.32,-2.69
29.78,-17.20,-14.51,-17.20,-14.51,6.00,6.53,7.27,-11.20,-11.20,-2.69
30.08,-17.09,-14.39,-17.09,-14.39,6.00,6.55,7.33,-11.09,-11.09,-2.70
30.38,-16.97,-14.28,-16.97,-14.27,6.00,6.57,7.39,-10.97,-10.97,-2.70
30.68,-16.85,-14.16,-16.85,-14.16,6.00,6.59,7.44,-10.85,-10.85,-2.70
30.99,-16.72,-14.03,-16.73,-14.04,6.00,6.61,7.47,-10.72,-10.73,-2.70
31.30,-16.61,-13.92,-16.61,-13.92,6.00,6.63,7.50,-10.61,-10.61,-2.70
31.61,-16.48,-13.80,-16.49,-13.80,6.00,6.64,7.51,-10.48,-10.49,-2.69
31.93,-16.36,-13.68,-16.37,-13.68,6.00,6.66,7.51,-10.36,-10.37,-2.69
32.24,-16.25,-13.57,-16.25,-13.56,6.00,6.67,7.50,-10.25,-10.25,-2.69
32.57,-16.12,-13.44,-16.12,-13.44,6.00,6.68,7.48,-10.12,-10.12,-2.69
32.89,-16.00,-13.32,-16.00,-13.32,6.00,6.69,7.45,-10.00,-10.00,-2.69
33.22,-15.87,-13.19,-15.88,-13.20,6.00,6.70,7.41,-9.87,-9.88,-2.69
33.55,-15.76,-13.08,-15.76,-13.07,6.00,6.71,7.36,-9.76,-9.76,-2.69
33.89,-15.64,-12.96,-15.64,-12.95,6.00,6.71,7.31,-9.64,-9.64,-2.69
34.23,-15.51,-12.82,-15.52,-12.83,6.00,6.72,7.25,-9.51,-9.52,-2.70
34.57,-15.39,-12.70,-15.39,-12.70,6.00,6.72,7.18,-9.39,-9.39,-2.70
34.92,-15.27,-12.57,-15.27,-12.57,6.00,6.72,7.10,-9.27,-9.27,-2.70
35.27,-15.15,-12.44,-15.15,-12.44,6.00,6.72,7.03,-9.15,-9.15,-2.71
35.62,-15.03,-12.31,-15.03,-12.31,6.00,6.72,6.94,-9.03,-9.03,-2.73
35.97,-14.91,-12.19,-14.91,-12.18,6.00,6.71,6.86,-8.91,-8.91,-2.73
36.33,-14.78,-12.05,-14.79,-12.05,6.00,6.71,6.77,-8.78,-8.79,-2.74
36.70,-14.66,-11.91,-14.66,-11.91,6.00,6.70,6.68,-8.66,-8.66,-2.75
37.06,-14.54,-11.78,-14.54,-11.77,6.00,6.69,6.60,-8.54,-8.54,-2.77
37.43,-14.41,-11.64,-14.42,-11.64,6.00,6.68,6.51,-8.41,-8.42,-2.78
37.81,-14.29,-11.51,-14.29,-11.51,6.00,6.67,6.42,-8.29,-8.29,-2.79
38.19,-14.16,-11.37,-14.17,-11.37,6.00,6.65,6.33,-8.16,-8.17,-2.80
38.57,-14.04,-11.25,-14.04,-11.24,6.00,6.64,6.25,-8.04,-8.04,-2.80
38.95,-13.92,-11.12,-13.92,-11.11,6.00,6.62,6.17,-7.92,-7.92,-2.81
39.34,-13.79,-10.98,-13.80,-10.98,6.00,6.60,6.09,-7.79,-7.80,-2.82
39.74,-13.67,-10.86,-13.67,-10.85,6.00,6.58,6.01,-7.67,-7.67,-2.82
40.14,-13.54,-10.72,-13.55,-10.72,6.00,6.56,5.93,-7.54,-7.55,-2.82
40.54,-13.42,-10.60,-13.42,-10.60,6.00,6.54,5.86,-7.42,-7.42,-2.83
40.94,-13.29,-10.47,-13.29,-10.47,6.00,6.51,5.79,-7.29,-7.29,-2.83
41.35,-13.17,-10.35,-13.17,-10.34,6.00,6.49,5.73,-7.17,-7.17,-2.83
41.76,-13.03,-10.21,-13.04,-10.21,6.00,6.46,5.67,-7.03,-7.04,-2.83
42.18,-12.91,-10.09,-12.91,-10.09,6.00,6.43,5.61,-6.91,-6.91,-2.83
42.60,-12.79,-9.97,-12.79,-9.96,6.00,6.41,5.56,-6.79,-6.79,-2.83
43.03,-12.66,-9.84,-12.67,-9.84,6.00,6.38,5.51,-6.66,-6.67,-2.83
43.46,-12.54,-9.72,-12.54,-9.71,6.00,6.34,5.47,-6.54,-6.54,-2.83
43.90,-12.41,-9.59,-12.41,-9.59,6.00,6.31,5.43,-6.41,-6.41,-2.83
44.33,-12.28,-9.47,-12.29,-9.47,6.00,6.28,5.40,-6.28,-6.29,-2.82
44.78,-12.17,-9.36,-12.17,-9.35,6.00,6.25,5.36,-6.17,-6.17,-2.82
45.23,-12.04,-9.23,-12.04,-9.23,6.00,6.21,5.34,-6.04,-6.04,-2.82
45.68,-11.92,-9.12,-11.92,-9.11,6.00,6.18,5.31,-5.92,-5.92,-2.81
46.13,-11.79,-8.99,-11.80,-8.99,6.00,6.14,5.30,-5.79,-5.80,-2.81
46.60,-11.67,-8.87,-11.67,-8.87,6.00,6.11,5.28,-5.67,-5.67,-2.81
47.06,-11.54,-8.74,-11.55,-8.74,6.00,6.07,5.27,-5.54,-5.55,-2.81
47.53,-11.42,-8.62,-11.42,-8.62,6.00,6.04,5.26,-5.42,-5.42,-2.81
48.01,-11.30,-8.50,-11.30,-8.49,6.00,6.00,5.26,-5.30,-5.30,-2.81
48.49,-11.18,-8.37,-11.18,-8.37,6.00,5.97,5.26,-5.18,-5.18,-2.82
48.97,-11.06,-8.25,-11.06,-8.25,6.00,5.93,5.26,-5.06,-5.06,-2.82
49.46,-10.93,-8.12,-10.94,-8.12,6.00,5.90,5.27,-4.93,-4.94,-2.82
49.96,-10.81,-7.99,-10.81,-7.99,6.00,5.87,5.27,-4.81,-4.81,-2.83
50.46,-10.68,-7.86,-10.69,-7.86,6.00,5.84,5.28,-4.68,-4.69,-2.83
50.96,-10.56,-7.73,-10.56,-7.73,6.00,5.82,5.30,-4.56,-4.56,-2.84
51.47,-10.44,-7.61,-10.44,-7.60,6.00,5.79,5.31,-4.44,-4.44,-2.84
51.99,-10.32,-7.48,-10.32,-7.48,6.00,5.77,5.33,-4.32,-4.32,-2.84
52.51,-10.19,-7.35,-10.20,-7.35,6.00,5.75,5.35,-4.19,-4.20,-2.85
53.03,-10.07,-7.23,-10.07,-7.22,6.00,5.74,5.36,-4.07,-4.07,-2.85
53.56,-9.94,-7.09,-9.94,-7.09,6.00,5.73,5.38,-3.94,-3.94,-2.86
54.10,-9.81,-6.96,-9.82,-6.96,6.00,5.72,5.40,-3.81,-3.82,-2.86
54.64,-9.69,-6.84,-9.69,-6.84,6.00,5.72,5.42,-3.69,-3.69,-2.86
55.18,-9.57,-6.72,-9.57,-6.72,6.01,5.71,5.44,-3.56,-3.56,-2.86
55.74,-9.44,-6.60,-9.45,-6.60,6.02,5.71,5.45,-3.42,-3.43,-2.85
56.29,-9.32,-6.48,-9.32,-6.48,6.02,5.71,5.46,-3.30,-3.30,-2.85
56.86,-9.19,-6.35,-9.20,-6.35,6.02,5.71,5.47,-3.18,-3.18,-2.85
57.42,-9.07,-6.23,-9.07,-6.23,6.00,5.69,5.48,-3.08,-3.08,-2.85
58.00,-8.94,-6.10,-8.94,-6.10,5.96,5.66,5.48,-2.98,-2.99,-2.85
58.58,-8.82,-5.98,-8.82,-5.98,5.90,5.62,5.48,-2.92,-2.92,-2.85
59.16,-8.69,-5.85,-8.70,-5.85,5.83,5.55,5.47,-2.86,-2.87,-2.85
59.76,-8.58,-5.74,-8.58,-5.73,5.74,5.47,5.46,-2.85,-2.84,-2.85
60.35,-8.45,-5.61,-8.46,-5.61,5.63,5.37,5.44,-2.82,-2.83,-2.85
60.96,-8.34,-5.49,-8.34,-5.49,5.51,5.25,5.42,-2.84,-2.83,-2.86
61.57,-8.21,-5.36,-8.21,-5.36,5.38,5.12,5.39,-2.84,-2.84,-2.86
62.18,-8.09,-5.24,-8.09,-5.24,5.25,4.99,5.35,-2.85,-2.85,-2.86
62.80,-7.97,-5.11,-7.98,-5.11,5.12,4.86,5.31,-2.86,-2.86,-2.87
63.43,-7.86,-5.00,-7.86,-4.99,4.99,4.72,5.26,-2.87,-2.87,-2.87
64.07,-7.75,-4.88,-7.75,-4.87,4.87,4.59,5.20,-2.88,-2.87,-2.88
64.71,-7.62,-4.75,-7.63,-4.76,4.75,4.46,5.14,-2.87,-2.88,-2.88
65.35,-7.51,-4.64,-7.51,-4.64,4.63,4.34,5.07,-2.88,-2.88,-2.88
66.01,-7.39,-4.52,-7.39,-4.52,4.52,4.22,5.00,-2.88,-2.87,-2.88
66.67,-7.27,-4.40,-7.27,-4.40,4.40,4.11,4.92,-2.87,-2.87,-2.88
67.33,-7.15,-4.28,-7.16,-4.28,4.29,4.00,4.83,-2.87,-2.87,-2.88
68.01,-7.04,-4.17,-7.04,-4.17,4.17,3.90,4.74,-2.87,-2.87,-2.88
68.69,-6.93,-4.06,-6.93,-4.06,4.06,3.80,4.65,-2.88,-2.88,-2.88
69.37,-6.82,-3.95,-6.82,-3.95,3.94,3.70,4.55,-2.88,-2.88,-2.88
70.07,-6.71,-3.84,-6.71,-3.84,3.83,3.61,4.44,-2.88,-2.88,-2.88
70.77,-6.60,-3.73,-6.60,-3.72,3.72,3.52,4.34,-2.88,-2.88,-2.88
71.48,-6.49,-3.61,-6.49,-3.61,3.61,3.44,4.23,-2.88,-2.88,-2.89
72.19,-6.38,-3.50,-6.38,-3.50,3.50,3.35,4.11,-2.88,-2.88,-2.89
72.91,-6.27,-3.39,-6.28,-3.39,3.40,3.27,4.00,-2.88,-2.88,-2.89
73.64,-6.17,-3.29,-6.17,-3.29,3.29,3.19,3.88,-2.88,-2.88,-2.89
74.38,-6.06,-3.19,-6.06,-3.18,3.18,3.11,3.77,-2.88,-2.88,-2.88
75.12,-5.95,-3.08,-5.95,-3.08,3.07,3.03,3.65,-2.88,-2.88,-2.88
75.87,-5.84,-2.97,-5.85,-2.97,2.97,2.95,3.53,-2.87,-2.88,-2.88
76.63,-5.74,-2.87,-5.74,-2.86,2.86,2.88,3.41,-2.88,-2.88,-2.88
77.40,-5.63,-2.76,-5.63,-2.76,2.76,2.80,3.29,-2.87,-2.88,-2.88
78.17,-5.53,-2.66,-5.53,-2.65,2.65,2.73,3.18,-2.88,-2.88,-2.88
78.95,-5.42,-2.55,-5.42,-2.55,2.55,2.66,3.06,-2.87,-2.87,-2.88
79.74,-5.32,-2.45,-5.32,-2.45,2.45,2.59,2.94,-2.87,-2.87,-2.88
80.54,-5.22,-2.35,-5.22,-2.35,2.35,2.52,2.82,-2.87,-2.87,-2.88
81.35,-5.12,-2.26,-5.12,-2.25,2.26,2.45,2.71,-2.87,-2.87,-2.87
82.16,-5.02,-2.16,-5.02,-2.16,2.16,2.38,2.59,-2.86,-2.86,-2.87
82.98,-4.93,-2.07,-4.93,-2.07,2.07,2.31,2.48,-2.86,-2.86,-2.87
83.81,-4.83,-1.98,-4.84,-1.98,1.98,2.24,2.37,-2.85,-2.86,-2.86
84.65,-4.75,-1.90,-4.75,-1.89,1.89,2.17,2.25,-2.86,-2.86,-2.86
85.50,-4.65,-1.80,-4.66,-1.80,1.80,2.11,2.14,-2.85,-2.85,-2.86
86.35,-4.56,-1.72,-4.56,-1.72,1.71,2.04,2.03,-2.85,-2.85,-2.85
87.22,-4.47,-1.63,-4.47,-1.63,1.63,1.98,1.93,-2.85,-2.84,-2.85
88.09,-4.38,-1.54,-4.38,-1.54,1.54,1.91,1.82,-2.84,-2.84,-2.85
88.97,-4.29,-1.46,-4.30,-1.46,1.46,1.85,1.72,-2.83,-2.84,-2.84
89.86,-4.21,-1.38,-4.21,-1.38,1.38,1.79,1.61,-2.84,-2.83,-2.84
90.76,-4.12,-1.30,-4.13,-1.30,1.30,1.72,1.51,-2.83,-2.83,-2.83
91.66,-4.04,-1.22,-4.04,-1.22,1.22,1.66,1.41,-2.82,-2.83,-2.83
92.58,-3.96,-1.14,-3.96,-1.14,1.14,1.60,1.31,-2.82,-2.82,-2.83
93.51,-3.88,-1.07,-3.88,-1.06,1.06,1.54,1.21,-2.82,-2.82,-2.82
94.44,-3.80,-0.99,-3.80,-0.99,0.99,1.48,1.11,-2.82,-2.82,-2.82
95.39,-3.72,-0.91,-3.73,-0.91,0.91,1.42,1.02,-2.81,-2.82,-2.82
96.34,-3.65,-0.84,-3.65,-0.84,0.84,1.36,0.92,-2.82,-2.82,-2.82
97.30,-3.58,-0.77,-3.58,-0.76,0.76,1.30,0.83,-2.82,-2.82,-2.82
98.28,-3.50,-0.69,-3.51,-0.69,0.69,1.25,0.73,-2.82,-2.82,-2.82
99.26,-3.43,-0.61,-3.43,-0.61,0.61,1.19,0.64,-2.82,-2.82,-2.83
100.25,-3.36,-0.54,-3.36,-0.54,0.54,1.13,0.55,-2.82,-2.82,-2.83
101.25,-3.29,-0.47,-3.30,-0.47,0.47,1.08,0.46,-2.82,-2.83,-2.83
102.27,-3.23,-0.40,-3.23,-0.40,0.40,1.02,0.38,-2.83,-2.83,-2.84
103.29,-3.17,-0.34,-3.17,-0.33,0.33,0.97,0.29,-2.84,-2.84,-2.84
104.32,-3.11,-0.27,-3.11,-0.27,0.27,0.91,0.21,-2.84,-2.84,-2.85
105.37,-3.04,-0.20,-3.05,-0.21,0.21,0.86,0.12,-2.84,-2.84,-2.85
106.42,-2.99,-0.15,-2.99,-0.14,0.15,0.81,0.04,-2.85,-2.85,-2.85
107.48,-2.93,-0.09,-2.93,-0.09,0.09,0.75,-0.04,-2.85,-2.85,-2.85
108.56,-2.88,-0.03,-2.88,-0.03,0.03,0.70,-0.11,-2.86,-2.85,-2.86
109.64,-2.82,0.03,-2.83,0.03,-0.03,0.65,-0.19,-2.85,-2.85,-2.86
110.74,-2.77,0.08,-2.77,0.08,-0.09,0.60,-0.26,-2.86,-2.86,-2.86
111.85,-2.72,0.14,-2.72,0.14,-0.14,0.55,-0.33,-2.86,-2.86,-2.87
112.97,-2.67,0.19,-2.67,0.19,-0.19,0.50,-0.40,-2.87,-2.87,-2.87
114.10,-2.62,0.25,-2.62,0.25,-0.25,0.45,-0.46,-2.87,-2.87,-2.88
115.24,-2.57,0.30,-2.58,0.30,-0.30,0.40,-0.53,-2.88,-2.88,-2.88
116.39,-2.53,0.36,-2.53,0.36,-0.36,0.35,-0.59,-2.89,-2.89,-2.90
117.55,-2.49,0.41,-2.49,0.41,-0.41,0.30,-0.65,-2.91,-2.91,-2.91
118.73,-2.45,0.46,-2.45,0.47,-0.47,0.26,-0.70,-2.92,-2.92,-2.92
119.92,-2.41,0.52,-2.41,0.52,-0.52,0.21,-0.75,-2.94,-2.93,-2.94
121.12,-2.37,0.58,-2.38,0.58,-0.58,0.17,-0.80,-2.95,-2.95,-2.96
122.33,-2.34,0.63,-2.34,0.63,-0.63,0.12,-0.84,-2.97,-2.97,-2.98
123.55,-2.31,0.68,-2.31,0.68,-0.69,0.08,-0.89,-3.00,-3.00,-3.00
124.79,-2.28,0.73,-2.28,0.74,-0.74,0.03,-0.93,-3.02,-3.02,-3.02
126.03,-2.25,0.79,-2.25,0.79,-0.79,-0.01,-0.96,-3.05,-3.05,-3.05
127.29,-2.22,0.84,-2.22,0.84,-0.84,-0.06,-0.99,-3.07,-3.06,-3.07
128.57,-2.19,0.89,-2.19,0.89,-0.89,-0.10,-1.02,-3.08,-3.08,-3.09
129.85,-2.16,0.94,-2.17,0.94,-0.93,-0.14,-1.05,-3.10,-3.10,-3.11
131.15,-2.14,0.97,-2.14,0.98,-0.97,-0.18,-1.07,-3.12,-3.11,-3.12
132.46,-2.11,1.01,-2.11,1.01,-1.01,-0.22,-1.09,-3.12,-3.12,-3.13
133.79,-2.09,1.04,-2.09,1.04,-1.04,-0.26,-1.11,-3.13,-3.13,-3.14
135.12,-2.07,1.07,-2.08,1.07,-1.07,-0.30,-1.13,-3.14,-3.14,-3.15
136.48,-2.06,1.08,-2.06,1.09,-1.09,-0.34,-1.14,-3.16,-3.15,-3.15
137.84,-2.04,1.11,-2.04,1.11,-1.11,-0.38,-1.15,-3.16,-3.16,-3.16
139.22,-2.02,1.13,-2.02,1.13,-1.13,-0.42,-1.16,-3.16,-3.16,-3.16
140.61,-2.00,1.15,-2.00,1.15,-1.15,-0.46,-1.17,-3.15,-3.15,-3.16
142.02,-1.98,1.17,-1.99,1.17,-1.17,-0.49,-1.18,-3.15,-3.15,-3.16
143.44,-1.97,1.18,-1.97,1.18,-1.18,-0.53,-1.18,-3.15,-3.15,-3.16
144.87,-1.96,1.19,-1.96,1.19,-1.19,-0.57,-1.19,-3.16,-3.15,-3.16
146.32,-1.94,1.21,-1.94,1.21,-1.21,-0.60,-1.19,-3.15,-3.15,-3.16
147.78,-1.93,1.21,-1.93,1.22,-1.22,-0.64,-1.20,-3.15,-3.15,-3.15
149.26,-1.91,1.23,-1.92,1.23,-1.23,-0.67,-1.20,-3.14,-3.15,-3.15
150.75,-1.91,1.23,-1.91,1.24,-1.24,-0.71,-1.20,-3.15,-3.15,-3.15
152.26,-1.89,1.25,-1.89,1.25,-1.25,-0.74,-1.20,-3.14,-3.14,-3.15
153.78,-1.88,1.26,-1.88,1.26,-1.26,-0.77,-1.21,-3.14,-3.15,-3.15
155.32,-1.87,1.27,-1.87,1.27,-1.27,-0.81,-1.21,-3.14,-3.14,-3.15
156.88,-1.86,1.28,-1.86,1.28,-1.28,-0.84,-1.21,-3.15,-3.15,-3.15
158.44,-1.85,1.29,-1.85,1.29,-1.30,-0.87,-1.21,-3.15,-3.15,-3.15
160.03,-1.83,1.31,-1.84,1.31,-1.31,-0.90,-1.22,-3.14,-3.15,-3.15
161.63,-1.83,1.31,-1.83,1.32,-1.32,-0.93,-1.22,-3.15,-3.15,-3.15
163.24,-1.81,1.33,-1.81,1.33,-1.33,-0.96,-1.23,-3.14,-3.14,-3.15
164.88,-1.80,1.34,-1.80,1.34,-1.34,-0.99,-1.23,-3.14,-3.14,-3.15
166.53,-1.78,1.35,-1.79,1.35,-1.35,-1.02,-1.24,-3.13,-3.14,-3.14
168.19,-1.77,1.36,-1.78,1.36,-1.36,-1.05,-1.24,-3.13,-3.13,-3.14
169.87,-1.77,1.36,-1.77,1.37,-1.37,-1.08,-1.25,-3.14,-3.13,-3.14
171.57,-1.75,1.37,-1.76,1.37,-1.38,-1.10,-1.26,-3.13,-3.13,-3.13
173.29,-1.74,1.38,-1.75,1.38,-1.38,-1.13,-1.27,-3.13,-3.13,-3.13
175.02,-1.73,1.39,-1.73,1.39,-1.39,-1.16,-1.28,-3.12,-3.12,-3.13
176.77,-1.72,1.39,-1.72,1.40,-1.40,-1.18,-1.30,-3.12,-3.12,-3.12
178.54,-1.70,1.41,-1.71,1.41,-1.40,-1.21,-1.31,-3.11,-3.11,-3.12
180.32,-1.69,1.41,-1.70,1.41,-1.41,-1.24,-1.32,-3.10,-3.11,-3.11
182.13,-1.69,1.41,-1.69,1.42,-1.42,-1.26,-1.34,-3.11,-3.11,-3.11
183.95,-1.68,1.42,-1.68,1.42,-1.42,-1.29,-1.36,-3.11,-3.10,-3.11
185.79,-1.66,1.43,-1.67,1.43,-1.43,-1.31,-1.37,-3.09,-3.10,-3.10
187.65,-1.65,1.44,-1.66,1.44,-1.44,-1.33,-1.39,-3.09,-3.09,-3.10
189.52,-1.65,1.44,-1.65,1.44,-1.44,-1.36,-1.41,-3.10,-3.09,-3.10
191.42,-1.63,1.45,-1.64,1.45,-1.45,-1.38,-1.43,-3.08,-3.09,-3.09
193.33,-1.63,1.45,-1.63,1.46,-1.46,-1.40,-1.46,-3.09,-3.09,-3.09
195.27,-1.62,1.46,-1.62,1.46,-1.46,-1.42,-1.48,-3.08,-3.08,-3.09
197.22,-1.61,1.47,-1.61,1.47,-1.47,-1.45,-1.50,-3.08,-3.08,-3.09
199.19,-1.60,1.47,-1.60,1.47,-1.47,-1.47,-1.53,-3.08,-3.08,-3.08
201.18,-1.59,1.48,-1.60,1.48,-1.48,-1.49,-1.55,-3.07,-3.08,-3.08
203.19,-1.59,1.48,-1.59,1.49,-1.49,-1.51,-1.58,-3.08,-3.08,-3.08
205.23,-1.58,1.49,-1.58,1.49,-1.50,-1.53,-1.60,-3.08,-3.08,-3.08
207.28,-1.56,1.51,-1.57,1.50,-1.51,-1.55,-1.63,-3.07,-3.08,-3.08
209.35,-1.56,1.51,-1.56,1.52,-1.52,-1.57,-1.66,-3.08,-3.07,-3.08
211.44,-1.54,1.53,-1.54,1.53,-1.53,-1.59,-1.68,-3.07,-3.07,-3.08
213.56,-1.53,1.54,-1.53,1.54,-1.54,-1.60,-1.71,-3.07,-3.07,-3.08
215.69,-1.52,1.55,-1.52,1.55,-1.55,-1.62,-1.74,-3.07,-3.07,-3.08
217.85,-1.51,1.56,-1.51,1.56,-1.56,-1.64,-1.76,-3.08,-3.08,-3.08
220.03,-1.50,1.57,-1.50,1.58,-1.58,-1.66,-1.79,-3.08,-3.08,-3.08
222.23,-1.48,1.59,-1.49,1.59,-1.59,-1.67,-1.81,-3.07,-3.08,-3.08
224.45,-1.47,1.60,-1.47,1.60,-1.60,-1.69,-1.84,-3.07,-3.07,-3.08
226.70,-1.46,1.61,-1.46,1.61,-1.61,-1.70,-1.86,-3.08,-3.07,-3.08
228.96,-1.44,1.63,-1.45,1.63,-1.63,-1.72,-1.88,-3.07,-3.08,-3.08
231.25,-1.44,1.63,-1.44,1.64,-1.64,-1.73,-1.90,-3.09,-3.08,-3.08
233.57,-1.42,1.66,-1.43,1.66,-1.66,-1.75,-1.92,-3.08,-3.08,-3.09
235.90,-1.41,1.67,-1.42,1.67,-1.67,-1.76,-1.94,-3.08,-3.09,-3.09
238.26,-1.40,1.68,-1.40,1.69,-1.68,-1.78,-1.95,-3.09,-3.09,-3.09
240.64,-1.39,1.70,-1.39,1.70,-1.70,-1.79,-1.97,-3.09,-3.09,-3.10
243.05,-1.37,1.72,-1.38,1.71,-1.71,-1.80,-1.98,-3.09,-3.09,-3.10
245.48,-1.37,1.72,-1.37,1.73,-1.73,-1.82,-1.99,-3.10,-3.10,-3.10
247.93,-1.36,1.73,-1.36,1.74,-1.74,-1.83,-1.99,-3.10,-3.10,-3.10
250.41,-1.34,1.75,-1.35,1.75,-1.75,-1.84,-2.00,-3.10,-3.10,-3.10
252.92,-1.33,1.77,-1.34,1.76,-1.77,-1.85,-2.00,-3.10,-3.10,-3.11
255.45,-1.33,1.77,-1.32,1.78,-1.78,-1.86,-2.00,-3.11,-3.10,-3.11
258.00,-1.31,1.79,-1.31,1.79,-1.80,-1.87,-2.00,-3.11,-3.11,-3.11
260.58,-1.29,1.82,-1.30,1.81,-1.81,-1.88,-1.99,-3.11,-3.11,-3.12
263.19,-1.29,1.82,-1.29,1.83,-1.83,-1.89,-1.99,-3.12,-3.12,-3.12
265.82,-1.27,1.85,-1.27,1.85,-1.85,-1.90,-1.98,-3.12,-3.12,-3.13
268.48,-1.26,1.86,-1.26,1.86,-1.87,-1.91,-1.97,-3.13,-3.13,-3.13
271.16,-1.24,1.89,-1.24,1.89,-1.89,-1.92,-1.96,-3.13,-3.13,-3.14
273.87,-1.23,1.90,-1.23,1.91,-1.90,-1.93,-1.95,-3.14,-3.14,-3.14
276.61,-1.21,1.93,-1.22,1.93,-1.93,-1.93,-1.93,-3.14,-3.14,-3.15
279.38,-1.20,1.94,-1.20,1.94,-1.95,-1.94,-1.92,-3.15,-3.15,-3.15
282.17,-1.19,1.96,-1.19,1.97,-1.97,-1.95,-1.90,-3.16,-3.16,-3.16
284.99,-1.17,1.99,-1.18,1.99,-1.99,-1.95,-1.89,-3.17,-3.17,-3.17
287.84,-1.16,2.01,-1.16,2.01,-2.01,-1.96,-1.87,-3.18,-3.17,-3.18
290.72,-1.14,2.04,-1.14,2.04,-2.04,-1.96,-1.85,-3.18,-3.18,-3.19
293.63,-1.12,2.06,-1.13,2.06,-2.06,-1.96,-1.83,-3.18,-3.19,-3.19
296.57,-1.11,2.08,-1.11,2.08,-2.08,-1.97,-1.82,-3.19,-3.19,-3.20
299.53,-1.10,2.10,-1.10,2.10,-2.10,-1.97,-1.80,-3.20,-3.20,-3.21
302.53,-1.09,2.11,-1.09,2.12,-2.12,-1.97,-1.78,-3.21,-3.21,-3.21
305.55,-1.08,2.13,-1.08,2.13,-2.13,-1.97,-1.76,-3.22,-3.21,-3.22
308.61,-1.06,2.15,-1.07,2.15,-2.15,-1.97,-1.74,-3.21,-3.22,-3.22
311.69,-1.06,2.15,-1.06,2.16,-2.16,-1.97,-1.73,-3.22,-3.22,-3.22
314.81,-1.04,2.18,-1.05,2.17,-2.17,-1.97,-1.71,-3.22,-3.22,-3.23
317.96,-1.04,2.18,-1.04,2.18,-2.18,-1.97,-1.70,-3.23,-3.22,-3.23
321.14,-1.03,2.19,-1.03,2.19,-2.19,-1.96,-1.68,-3.23,-3.23,-3.23
324.35,-1.03,2.20,-1.03,2.20,-2.20,-1.96,-1.67,-3.24,-3.23,-3.24
327.59,-1.02,2.21,-1.03,2.21,-2.21,-1.95,-1.66,-3.23,-3.24,-3.24
330.87,-1.02,2.22,-1.02,2.22,-2.22,-1.95,-1.64,-3.24,-3.24,-3.25
334.18,-1.02,2.22,-1.02,2.23,-2.23,-1.94,-1.63,-3.25,-3.25,-3.25
337.52,-1.00,2.24,-1.01,2.24,-2.24,-1.93,-1.62,-3.24,-3.25,-3.25
340.90,-1.00,2.25,-1.00,2.25,-2.25,-1.92,-1.62,-3.26,-3.26,-3.26
344.30,-1.00,2.25,-1.00,2.26,-2.27,-1.91,-1.61,-3.27,-3.27,-3.26
347.75,-0.99,2.27,-0.99,2.27,-2.29,-1.89,-1.60,-3.28,-3.28,-3.27
351.23,-0.98,2.29,-0.99,2.29,-2.30,-1.88,-1.60,-3.29,-3.29,-3.28
354.74,-0.98,2.30,-0.98,2.30,-2.32,-1.86,-1.60,-3.30,-3.30,-3.29
358.28,-0.98,2.30,-0.98,2.30,-2.31,-1.84,-1.60,-3.30,-3.30,-3.29
361.87,-1.00,2.29,-1.00,2.30,-2.30,-1.81,-1.60,-3.30,-3.29,-3.30
365.49,-1.03,2.27,-1.03,2.27,-2.25,-1.79,-1.60,-3.28,-3.28,-3.31
369.14,-1.09,2.22,-1.10,2.21,-2.17,-1.76,-1.60,-3.26,-3.27,-3.32
372.83,-1.21,2.11,-1.21,2.11,-2.05,-1.73,-1.60,-3.27,-3.27,-3.33
376.56,-1.36,1.97,-1.37,1.96,-1.91,-1.70,-1.61,-3.27,-3.28,-3.34
380.33,-1.57,1.77,-1.57,1.77,-1.73,-1.66,-1.61,-3.30,-3.30,-3.35
384.13,-1.80,1.55,-1.80,1.55,-1.54,-1.62,-1.62,-3.34,-3.34,-3.36
387.97,-2.04,1.32,-2.04,1.32,-1.34,-1.58,-1.63,-3.38,-3.38,-3.37
391.85,-2.26,1.11,-2.26,1.12,-1.15,-1.53,-1.64,-3.42,-3.41,-3.38
395.77,-2.44,0.94,-2.44,0.94,-0.99,-1.48,-1.64,-3.44,-3.44,-3.39
399.73,-2.57,0.82,-2.58,0.82,-0.88,-1.43,-1.66,-3.45,-3.45,-3.40
403.72,-2.66,0.73,-2.66,0.74,-0.80,-1.38,-1.67,-3.47,-3.46,-3.40
407.76,-2.68,0.72,-2.68,0.73,-0.78,-1.33,-1.68,-3.46,-3.46,-3.41
