frequency,raw,error,smoothed,error_smoothed,equalization,parametric_eq,fixed_band_eq,equalized_raw,equalized_smoothed,target
20.00,-6.98,-4.47,-6.99,-4.47,4.50,4.26,0.92,-2.49,-2.49,-2.52
20.20,-6.94,-4.43,-6.94,-4.42,4.42,4.22,0.94,-2.52,-2.51,-2.51
20.40,-6.88,-4.37,-6.87,-4.36,4.35,4.17,0.97,-2.53,-2.53,-2.51
20.61,-6.80,-4.29,-6.81,-4.29,4.28,4.11,1.00,-2.53,-2.53,-2.51
20.81,-6.71,-4.20,-6.72,-4.21,4.20,4.06,1.03,-2.51,-2.52,-2.51
21.02,-6.65,-4.14,-6.64,-4.13,4.13,4.00,1.06,-2.53,-2.51,-2.51
21.23,-6.55,-4.04,-6.56,-4.05,4.05,3.95,1.10,-2.50,-2.51,-2.51
21.44,-6.48,-3.98,-6.48,-3.98,3.98,3.89,1.13,-2.50,-2.50,-2.51
21.66,-6.40,-3.90,-6.40,-3.89,3.90,3.83,1.16,-2.51,-2.50,-2.51
21.87,-6.32,-3.82,-6.32,-3.82,3.82,3.76,1.20,-2.50,-2.50,-2.50
22.09,-6.24,-3.74,-6.24,-3.74,3.75,3.70,1.23,-2.50,-2.50,-2.50
22.31,-6.17,-3.67,-6.17,-3.67,3.67,3.63,1.27,-2.50,-2.50,-2.50
22.54,-6.09,-3.59,-6.10,-3.60,3.60,3.57,1.31,-2.49,-2.50,-2.50
22.76,-6.03,-3.53,-6.03,-3.53,3.53,3.50,1.35,-2.50,-2.50,-2.50
22.99,-5.95,-3.46,-5.96,-3.46,3.46,3.43,1.39,-2.50,-2.50,-2.50
23.22,-5.88,-3.39,-5.88,-3.39,3.38,3.36,1.43,-2.50,-2.50,-2.50
23.45,-5.80,-3.31,-5.81,-3.31,3.31,3.30,1.47,-2.49,-2.50,-2.49
23.69,-5.72,-3.23,-5.73,-3.23,3.23,3.23,1.51,-2.49,-2.49,-2.49
23.92,-5.65,-3.16,-5.65,-3.15,3.15,3.16,1.56,-2.50,-2.49,-2.49
24.16,-5.55,-3.06,-5.56,-3.07,3.07,3.09,1.60,-2.48,-2.49,-2.49
24.40,-5.48,-2.99,-5.47,-2.99,2.98,3.02,1.64,-2.50,-2.49,-2.49
24.65,-5.37,-2.89,-5.38,-2.90,2.90,2.95,1.69,-2.48,-2.49,-2.49
24.89,-5.31,-2.83,-5.30,-2.81,2.81,2.88,1.73,-2.50,-2.49,-2.49
25.14,-5.20,-2.72,-5.21,-2.73,2.73,2.81,1.78,-2.48,-2.48,-2.48
25.39,-5.13,-2.65,-5.12,-2.64,2.64,2.74,1.82,-2.49,-2.48,-2.48
25.65,-5.03,-2.55,-5.03,-2.55,2.56,2.67,1.87,-2.47,-2.47,-2.48
25.91,-4.95,-2.47,-4.96,-2.48,2.48,2.60,1.91,-2.47,-2.47,-2.48
26.16,-4.88,-2.40,-4.88,-2.41,2.41,2.53,1.95,-2.47,-2.47,-2.48
26.43,-4.82,-2.35,-4.81,-2.34,2.34,2.46,2.00,-2.49,-2.48,-2.48
26.69,-4.74,-2.27,-4.75,-2.27,2.27,2.39,2.04,-2.48,-2.48,-2.48
26.96,-4.67,-2.20,-4.68,-2.20,2.20,2.32,2.08,-2.48,-2.48,-2.47
27.23,-4.61,-2.14,-4.61,-2.13,2.13,2.26,2.12,-2.48,-2.48,-2.47
27.50,-4.54,-2.07,-4.54,-2.07,2.07,2.19,2.15,-2.48,-2.47,-2.47
27.77,-4.46,-1.99,-4.47,-2.00,2.00,2.12,2.19,-2.46,-2.47,-2.47
28.05,-4.40,-1.93,-4.40,-1.93,1.94,2.06,2.22,-2.46,-2.46,-2.47
28.33,-4.34,-1.87,-4.34,-1.87,1.88,1.99,2.25,-2.47,-2.47,-2.47
28.62,-4.28,-1.82,-4.28,-1.82,1.81,1.93,2.28,-2.47,-2.47,-2.47
28.90,-4.22,-1.76,-4.22,-1.75,1.75,1.87,2.30,-2.47,-2.47,-2.47
29.19,-4.15,-1.69,-4.16,-1.69,1.69,1.80,2.32,-2.46,-2.46,-2.46
29.48,-4.09,-1.63,-4.10,-1.63,1.63,1.74,2.34,-2.46,-2.46,-2.46
29.78,-4.03,-1.57,-4.03,-1.57,1.57,1.68,2.35,-2.46,-2.46,-2.46
30.08,-3.98,-1.52,-3.97,-1.51,1.52,1.62,2.36,-2.47,-2.46,-2.46
30.38,-3.90,-1.45,-3.91,-1.45,1.46,1.56,2.36,-2.45,-2.45,-2.46
30.68,-3.85,-1.40,-3.86,-1.40,1.40,1.50,2.36,-2.45,-2.45,-2.46
30.99,-3.80,-1.35,-3.80,-1.35,1.35,1.44,2.36,-2.46,-2.46,-2.46
31.30,-3.75,-1.30,-3.75,-1.30,1.29,1.38,2.35,-2.46,-2.46,-2.45
31.61,-3.70,-1.25,-3.70,-1.24,1.24,1.33,2.33,-2.47,-2.46,-2.45
31.93,-3.63,-1.18,-3.64,-1.19,1.18,1.27,2.31,-2.45,-2.45,-2.45
32.24,-3.57,-1.12,-3.58,-1.13,1.13,1.22,2.29,-2.44,-2.45,-2.45
32.57,-3.52,-1.07,-3.52,-1.07,1.08,1.16,2.26,-2.44,-2.44,-2.45
32.89,-3.47,-1.03,-3.48,-1.03,1.03,1.11,2.23,-2.44,-2.45,-2.45
33.22,-3.43,-0.99,-3.43,-0.98,0.98,1.06,2.19,-2.45,-2.45,-2.45
33.55,-3.38,-0.94,-3.38,-0.94,0.93,1.00,2.15,-2.45,-2.45,-2.44
33.89,-3.32,-0.88,-3.33,-0.89,0.89,0.95,2.11,-2.44,-2.44,-2.44
34.23,-3.29,-0.85,-3.29,-0.85,0.85,0.90,2.06,-2.45,-2.44,-2.44
34.57,-3.24,-0.80,-3.25,-0.81,0.81,0.85,2.01,-2.44,-2.44,-2.44
34.92,-3.21,-0.77,-3.20,-0.77,0.77,0.80,1.95,-2.45,-2.44,-2.44
35.27,-3.15,-0.72,-3.16,-0.72,0.73,0.75,1.90,-2.43,-2.43,-2.44
35.62,-3.12,-0.69,-3.12,-0.69,0.69,0.71,1.84,-2.43,-2.43,-2.44
35.97,-3.09,-0.66,-3.09,-0.66,0.66,0.66,1.77,-2.44,-2.43,-2.43
36.33,-3.06,-0.63,-3.06,-0.63,0.62,0.61,1.71,-2.44,-2.44,-2.43
36.70,-3.03,-0.60,-3.03,-0.59,0.59,0.57,1.65,-2.44,-2.44,-2.43
37.06,-2.99,-0.56,-2.99,-0.56,0.56,0.52,1.58,-2.43,-2.43,-2.43
37.43,-2.94,-0.51,-2.96,-0.53,0.53,0.48,1.51,-2.41,-2.43,-2.43
37.81,-2.94,-0.52,-2.93,-0.50,0.50,0.43,1.44,-2.44,-2.43,-2.43
38.19,-2.89,-0.47,-2.90,-0.48,0.48,0.39,1.37,-2.41,-2.42,-2.43
38.57,-2.89,-0.47,-2.88,-0.46,0.46,0.35,1.30,-2.43,-2.42,-2.43
38.95,-2.85,-0.43,-2.86,-0.44,0.45,0.31,1.23,-2.40,-2.41,-2.42
39.34,-2.85,-0.43,-2.85,-0.43,0.44,0.27,1.16,-2.41,-2.41,-2.42
39.74,-2.85,-0.43,-2.85,-0.43,0.43,0.23,1.09,-2.42,-2.41,-2.42
40.14,-2.85,-0.43,-2.86,-0.44,0.43,0.19,1.02,-2.42,-2.43,-2.42
40.54,-2.85,-0.43,-2.85,-0.43,0.42,0.15,0.94,-2.43,-2.43,-2.42
40.94,-2.85,-0.44,-2.84,-0.42,0.41,0.11,0.87,-2.44,-2.43,-2.42
41.35,-2.80,-0.39,-2.82,-0.40,0.40,0.07,0.80,-2.40,-2.42,-2.42
41.76,-2.80,-0.39,-2.80,-0.38,0.38,0.04,0.73,-2.42,-2.41,-2.41
42.18,-2.76,-0.35,-2.77,-0.36,0.36,-0.00,0.66,-2.41,-2.41,-2.41
42.60,-2.75,-0.34,-2.74,-0.33,0.32,-0.04,0.59,-2.43,-2.42,-2.41
43.03,-2.69,-0.28,-2.70,-0.29,0.29,-0.07,0.52,-2.41,-2.41,-2.41
43.46,-2.64,-0.23,-2.65,-0.24,0.24,-0.11,0.45,-2.40,-2.41,-2.41
43.90,-2.59,-0.19,-2.59,-0.19,0.19,-0.14,0.37,-2.41,-2.41,-2.41
44.33,-2.54,-0.14,-2.54,-0.14,0.13,-0.17,0.30,-2.41,-2.41,-2.41
44.78,-2.48,-0.08,-2.48,-0.07,0.07,-0.21,0.24,-2.42,-2.41,-2.40
45.23,-2.40,-0.00,-2.41,-0.00,-0.00,-0.24,0.17,-2.41,-2.41,-2.40
45.68,-2.32,0.08,-2.33,0.07,-0.08,-0.27,0.10,-2.40,-2.41,-2.40
46.13,-2.25,0.15,-2.25,0.15,-0.15,-0.30,0.03,-2.41,-2.40,-2.40
46.60,-2.17,0.23,-2.17,0.23,-0.23,-0.33,-0.04,-2.40,-2.40,-2.40
47.06,-2.08,0.31,-2.09,0.31,-0.31,-0.37,-0.11,-2.39,-2.40,-2.40
47.53,-2.01,0.38,-2.01,0.39,-0.38,-0.39,-0.18,-2.39,-2.39,-2.40
48.01,-1.94,0.45,-1.94,0.45,-0.44,-0.42,-0.24,-2.39,-2.39,-2.39
48.49,-1.88,0.51,-1.89,0.51,-0.50,-0.45,-0.31,-2.38,-2.39,-2.39
48.97,-1.84,0.55,-1.84,0.55,-0.55,-0.48,-0.38,-2.39,-2.39,-2.39
49.46,-1.79,0.60,-1.80,0.59,-0.59,-0.51,-0.44,-2.38,-2.38,-2.39
49.96,-1.77,0.62,-1.76,0.62,-0.62,-0.54,-0.51,-2.39,-2.38,-2.39
50.46,-1.73,0.65,-1.75,0.64,-0.64,-0.56,-0.57,-2.38,-2.39,-2.39
50.96,-1.73,0.65,-1.73,0.66,-0.66,-0.59,-0.64,-2.39,-2.39,-2.39
51.47,-1.73,0.65,-1.71,0.67,-0.68,-0.61,-0.70,-2.41,-2.39,-2.39
51.99,-1.68,0.70,-1.70,0.68,-0.69,-0.64,-0.76,-2.37,-2.39,-2.38
52.51,-1.68,0.70,-1.69,0.69,-0.70,-0.66,-0.83,-2.38,-2.39,-2.38
53.03,-1.68,0.70,-1.68,0.70,-0.71,-0.69,-0.89,-2.39,-2.38,-2.38
53.56,-1.68,0.70,-1.67,0.71,-0.71,-0.71,-0.94,-2.40,-2.38,-2.38
54.10,-1.64,0.74,-1.66,0.72,-0.72,-0.74,-1.00,-2.36,-2.38,-2.38
54.64,-1.64,0.73,-1.64,0.73,-0.73,-0.76,-1.06,-2.37,-2.37,-2.38
55.18,-1.64,0.73,-1.64,0.74,-0.73,-0.78,-1.11,-2.37,-2.37,-2.38
55.74,-1.64,0.73,-1.64,0.73,-0.73,-0.80,-1.16,-2.37,-2.37,-2.37
56.29,-1.64,0.73,-1.64,0.73,-0.73,-0.83,-1.21,-2.37,-2.37,-2.37
56.86,-1.64,0.73,-1.64,0.73,-0.73,-0.85,-1.26,-2.37,-2.37,-2.37
57.42,-1.64,0.73,-1.64,0.73,-0.73,-0.87,-1.31,-2.37,-2.37,-2.37
58.00,-1.64,0.73,-1.64,0.73,-0.72,-0.89,-1.35,-2.36,-2.36,-2.37
58.58,-1.64,0.72,-1.64,0.72,-0.71,-0.91,-1.39,-2.36,-2.36,-2.37
59.16,-1.64,0.72,-1.64,0.72,-0.71,-0.93,-1.43,-2.35,-2.35,-2.37
59.76,-1.64,0.72,-1.64,0.72,-0.71,-0.95,-1.46,-2.35,-2.36,-2.36
60.35,-1.64,0.72,-1.65,0.72,-0.72,-0.96,-1.49,-2.36,-2.36,-2.36
60.96,-1.64,0.72,-1.64,0.72,-0.73,-0.98,-1.52,-2.38,-2.37,-2.36
61.57,-1.62,0.74,-1.62,0.74,-0.76,-1.00,-1.55,-2.38,-2.38,-2.36
62.18,-1.57,0.79,-1.57,0.79,-0.80,-1.02,-1.57,-2.37,-2.37,-2.36
62.80,-1.51,0.85,-1.51,0.85,-0.86,-1.03,-1.59,-2.37,-2.37,-2.36
63.43,-1.42,0.93,-1.44,0.92,-0.93,-1.05,-1.60,-2.35,-2.37,-2.36
64.07,-1.36,0.99,-1.35,1.01,-1.02,-1.07,-1.61,-2.38,-2.36,-2.35
64.71,-1.25,1.10,-1.25,1.11,-1.11,-1.08,-1.62,-2.37,-2.36,-2.35
65.35,-1.12,1.23,-1.14,1.21,-1.21,-1.10,-1.63,-2.34,-2.35,-2.35
66.01,-1.03,1.32,-1.03,1.33,-1.31,-1.11,-1.63,-2.35,-2.34,-2.35
66.67,-0.92,1.43,-0.92,1.43,-1.41,-1.12,-1.63,-2.34,-2.34,-2.35
67.33,-0.83,1.52,-0.83,1.51,-1.50,-1.14,-1.63,-2.33,-2.34,-2.35
68.01,-0.75,1.59,-0.75,1.60,-1.58,-1.15,-1.62,-2.34,-2.33,-2.35
68.69,-0.68,1.66,-0.69,1.66,-1.65,-1.17,-1.62,-2.34,-2.34,-2.35
69.37,-0.63,1.71,-0.63,1.71,-1.71,-1.18,-1.61,-2.34,-2.34,-2.34
70.07,-0.59,1.75,-0.59,1.75,-1.75,-1.19,-1.60,-2.34,-2.34,-2.34
70.77,-0.56,1.78,-0.56,1.78,-1.78,-1.20,-1.58,-2.34,-2.34,-2.34
71.48,-0.52,1.82,-0.53,1.81,-1.80,-1.21,-1.57,-2.32,-2.34,-2.34
72.19,-0.52,1.82,-0.52,1.82,-1.81,-1.22,-1.56,-2.34,-2.34,-2.34
72.91,-0.52,1.81,-0.52,1.82,-1.82,-1.23,-1.54,-2.34,-2.34,-2.34
73.64,-0.52,1.81,-0.52,1.81,-1.82,-1.24,-1.52,-2.35,-2.35,-2.34
74.38,-0.52,1.81,-0.52,1.81,-1.82,-1.25,-1.51,-2.34,-2.34,-2.33
75.12,-0.52,1.81,-0.52,1.81,-1.81,-1.26,-1.49,-2.34,-2.33,-2.33
75.87,-0.52,1.81,-0.52,1.81,-1.80,-1.27,-1.47,-2.33,-2.33,-2.33
76.63,-0.52,1.81,-0.54,1.79,-1.79,-1.28,-1.45,-2.32,-2.33,-2.33
77.40,-0.56,1.77,-0.55,1.78,-1.78,-1.29,-1.43,-2.34,-2.33,-2.33
78.17,-0.56,1.76,-0.56,1.77,-1.77,-1.30,-1.42,-2.33,-2.33,-2.33
78.95,-0.56,1.76,-0.57,1.75,-1.75,-1.31,-1.40,-2.32,-2.33,-2.33
79.74,-0.58,1.74,-0.59,1.74,-1.74,-1.31,-1.38,-2.32,-2.33,-2.32
80.54,-0.61,1.71,-0.60,1.72,-1.72,-1.32,-1.36,-2.34,-2.32,-2.32
81.35,-0.61,1.71,-0.61,1.71,-1.71,-1.33,-1.35,-2.32,-2.32,-2.32
82.16,-0.61,1.71,-0.63,1.69,-1.69,-1.33,-1.33,-2.31,-2.32,-2.32
82.98,-0.64,1.68,-0.64,1.68,-1.68,-1.34,-1.32,-2.32,-2.32,-2.32
83.81,-0.66,1.65,-0.65,1.66,-1.67,-1.34,-1.31,-2.33,-2.32,-2.32
84.65,-0.66,1.65,-0.66,1.65,-1.66,-1.35,-1.29,-2.32,-2.32,-2.32
85.50,-0.66,1.65,-0.67,1.64,-1.64,-1.35,-1.28,-2.31,-2.32,-2.31
86.35,-0.68,1.63,-0.68,1.63,-1.63,-1.36,-1.27,-2.31,-2.31,-2.31
87.22,-0.70,1.61,-0.69,1.62,-1.62,-1.36,-1.26,-2.32,-2.31,-2.31
88.09,-0.70,1.61,-0.71,1.60,-1.60,-1.36,-1.25,-2.31,-2.31,-2.31
88.97,-0.70,1.61,-0.72,1.59,-1.59,-1.37,-1.24,-2.29,-2.31,-2.31
89.86,-0.75,1.56,-0.73,1.58,-1.57,-1.37,-1.24,-2.32,-2.30,-2.31
90.76,-0.75,1.55,-0.75,1.55,-1.55,-1.37,-1.23,-2.31,-2.31,-2.31
91.66,-0.75,1.55,-0.77,1.53,-1.54,-1.37,-1.23,-2.29,-2.31,-2.31
92.58,-0.80,1.50,-0.79,1.52,-1.52,-1.37,-1.22,-2.32,-2.30,-2.30
93.51,-0.80,1.50,-0.81,1.49,-1.50,-1.38,-1.22,-2.30,-2.31,-2.30
94.44,-0.82,1.48,-0.82,1.48,-1.48,-1.38,-1.22,-2.30,-2.30,-2.30
95.39,-0.84,1.46,-0.84,1.46,-1.46,-1.38,-1.22,-2.30,-2.30,-2.30
96.34,-0.84,1.46,-0.86,1.44,-1.44,-1.38,-1.21,-2.28,-2.30,-2.30
97.30,-0.89,1.40,-0.87,1.42,-1.42,-1.38,-1.22,-2.31,-2.29,-2.30
98.28,-0.89,1.40,-0.89,1.40,-1.40,-1.38,-1.22,-2.30,-2.30,-2.30
99.26,-0.89,1.40,-0.91,1.38,-1.39,-1.37,-1.22,-2.28,-2.30,-2.29
100.25,-0.94,1.35,-0.93,1.37,-1.37,-1.37,-1.22,-2.31,-2.30,-2.29
101.25,-0.94,1.35,-0.94,1.35,-1.36,-1.37,-1.23,-2.30,-2.29,-2.29
102.27,-0.94,1.35,-0.95,1.34,-1.34,-1.37,-1.23,-2.29,-2.29,-2.29
103.29,-0.94,1.35,-0.96,1.33,-1.33,-1.37,-1.23,-2.27,-2.29,-2.29
104.32,-0.98,1.30,-0.97,1.32,-1.32,-1.36,-1.24,-2.30,-2.29,-2.29
105.37,-0.98,1.30,-0.98,1.31,-1.31,-1.36,-1.25,-2.29,-2.29,-2.29
106.42,-0.98,1.30,-0.98,1.30,-1.30,-1.36,-1.25,-2.28,-2.28,-2.28
107.48,-0.98,1.30,-0.99,1.29,-1.29,-1.35,-1.26,-2.27,-2.28,-2.28
108.56,-1.00,1.28,-1.01,1.28,-1.28,-1.35,-1.26,-2.28,-2.28,-2.28
109.64,-1.03,1.25,-1.02,1.26,-1.26,-1.34,-1.27,-2.30,-2.29,-2.28
110.74,-1.03,1.25,-1.03,1.25,-1.25,-1.33,-1.28,-2.28,-2.28,-2.28
111.85,-1.03,1.24,-1.03,1.24,-1.24,-1.33,-1.28,-2.27,-2.27,-2.28
112.97,-1.03,1.24,-1.04,1.24,-1.23,-1.32,-1.29,-2.26,-2.27,-2.28
114.10,-1.05,1.22,-1.06,1.22,-1.22,-1.31,-1.29,-2.27,-2.27,-2.27
115.24,-1.08,1.19,-1.07,1.20,-1.21,-1.31,-1.30,-2.29,-2.28,-2.27
116.39,-1.08,1.19,-1.08,1.19,-1.20,-1.30,-1.30,-2.28,-2.28,-2.27
117.55,-1.08,1.19,-1.08,1.19,-1.19,-1.29,-1.30,-2.27,-2.27,-2.27
118.73,-1.08,1.19,-1.08,1.18,-1.18,-1.28,-1.31,-2.26,-2.26,-2.27
119.92,-1.08,1.19,-1.10,1.17,-1.17,-1.27,-1.31,-2.25,-2.26,-2.27
121.12,-1.12,1.14,-1.11,1.16,-1.16,-1.26,-1.31,-2.28,-2.27,-2.27
122.33,-1.12,1.14,-1.12,1.14,-1.15,-1.25,-1.31,-2.28,-2.27,-2.27
123.55,-1.12,1.14,-1.13,1.14,-1.15,-1.23,-1.31,-2.27,-2.27,-2.26
124.79,-1.12,1.14,-1.12,1.14,-1.14,-1.22,-1.30,-2.26,-2.26,-2.26
126.03,-1.12,1.14,-1.12,1.14,-1.13,-1.21,-1.30,-2.25,-2.25,-2.26
127.29,-1.12,1.14,-1.13,1.13,-1.12,-1.19,-1.30,-2.24,-2.25,-2.26
128.57,-1.15,1.11,-1.15,1.11,-1.11,-1.18,-1.29,-2.26,-2.26,-2.26
129.85,-1.17,1.08,-1.16,1.09,-1.10,-1.16,-1.28,-2.28,-2.27,-2.26
131.15,-1.17,1.08,-1.17,1.08,-1.10,-1.15,-1.28,-2.27,-2.27,-2.26
132.46,-1.17,1.08,-1.17,1.08,-1.09,-1.13,-1.27,-2.26,-2.26,-2.25
133.79,-1.17,1.08,-1.17,1.08,-1.08,-1.11,-1.26,-2.25,-2.25,-2.25
135.12,-1.17,1.08,-1.17,1.08,-1.07,-1.09,-1.25,-2.24,-2.24,-2.25
136.48,-1.17,1.08,-1.18,1.07,-1.06,-1.08,-1.24,-2.23,-2.24,-2.25
137.84,-1.19,1.06,-1.20,1.05,-1.05,-1.06,-1.23,-2.25,-2.25,-2.25
139.22,-1.22,1.02,-1.21,1.04,-1.04,-1.04,-1.22,-2.27,-2.26,-2.25
140.61,-1.22,1.02,-1.22,1.02,-1.03,-1.02,-1.20,-2.25,-2.25,-2.25
142.02,-1.22,1.02,-1.22,1.02,-1.02,-1.01,-1.19,-2.24,-2.24,-2.24
143.44,-1.22,1.02,-1.23,1.02,-1.01,-0.99,-1.18,-2.23,-2.24,-2.24
144.87,-1.23,1.01,-1.24,1.00,-1.00,-0.97,-1.17,-2.23,-2.24,-2.24
146.32,-1.26,0.98,-1.25,0.99,-0.99,-0.96,-1.15,-2.25,-2.24,-2.24
147.78,-1.26,0.98,-1.26,0.98,-0.99,-0.95,-1.14,-2.25,-2.25,-2.24
149.26,-1.26,0.97,-1.27,0.97,-0.98,-0.94,-1.13,-2.24,-2.25,-2.24
150.75,-1.26,0.97,-1.26,0.97,-0.97,-0.93,-1.11,-2.24,-2.24,-2.24
152.26,-1.26,0.97,-1.26,0.97,-0.97,-0.92,-1.10,-2.23,-2.23,-2.24
153.78,-1.26,0.97,-1.26,0.97,-0.96,-0.92,-1.09,-2.22,-2.22,-2.23
155.32,-1.26,0.97,-1.27,0.96,-0.95,-0.91,-1.08,-2.21,-2.22,-2.23
156.88,-1.29,0.94,-1.29,0.94,-0.94,-0.91,-1.07,-2.24,-2.23,-2.23
158.44,-1.30,0.93,-1.30,0.93,-0.93,-0.91,-1.05,-2.24,-2.24,-2.23
160.03,-1.31,0.92,-1.31,0.92,-0.93,-0.91,-1.04,-2.24,-2.24,-2.23
161.63,-1.31,0.91,-1.31,0.91,-0.92,-0.91,-1.03,-2.23,-2.23,-2.23
163.24,-1.31,0.91,-1.31,0.91,-0.91,-0.92,-1.03,-2.23,-2.23,-2.23
164.88,-1.31,0.91,-1.31,0.91,-0.91,-0.92,-1.02,-2.22,-2.22,-2.22
166.53,-1.31,0.91,-1.31,0.91,-0.91,-0.92,-1.01,-2.22,-2.22,-2.22
168.19,-1.31,0.91,-1.31,0.91,-0.91,-0.93,-1.00,-2.22,-2.22,-2.22
169.87,-1.31,0.91,-1.31,0.91,-0.91,-0.93,-0.99,-2.22,-2.22,-2.22
171.57,-1.31,0.91,-1.31,0.91,-0.91,-0.93,-0.99,-2.22,-2.22,-2.22
173.29,-1.31,0.90,-1.31,0.90,-0.90,-0.94,-0.98,-2.22,-2.22,-2.22
175.02,-1.31,0.90,-1.31,0.90,-0.90,-0.94,-0.98,-2.22,-2.22,-2.22
176.77,-1.31,0.90,-1.31,0.90,-0.90,-0.94,-0.98,-2.21,-2.21,-2.21
178.54,-1.31,0.90,-1.31,0.90,-0.90,-0.94,-0.97,-2.21,-2.21,-2.21
180.32,-1.31,0.90,-1.31,0.90,-0.90,-0.95,-0.97,-2.21,-2.21,-2.21
182.13,-1.31,0.90,-1.31,0.90,-0.90,-0.95,-0.97,-2.21,-2.21,-2.21
183.95,-1.31,0.90,-1.31,0.90,-0.90,-0.95,-0.97,-2.21,-2.21,-2.21
185.79,-1.31,0.89,-1.31,0.89,-0.89,-0.95,-0.97,-2.21,-2.21,-2.21
187.65,-1.31,0.89,-1.31,0.89,-0.89,-0.95,-0.97,-2.21,-2.21,-2.21
189.52,-1.31,0.89,-1.31,0.89,-0.89,-0.94,-0.97,-2.20,-2.20,-2.20
191.42,-1.31,0.89,-1.31,0.89,-0.89,-0.94,-0.97,-2.20,-2.20,-2.20
193.33,-1.31,0.89,-1.31,0.89,-0.89,-0.94,-0.98,-2.20,-2.20,-2.20
195.27,-1.31,0.89,-1.31,0.89,-0.89,-0.94,-0.98,-2.20,-2.20,-2.20
197.22,-1.31,0.89,-1.31,0.89,-0.88,-0.94,-0.98,-2.20,-2.20,-2.20
199.19,-1.31,0.88,-1.31,0.88,-0.88,-0.93,-0.99,-2.19,-2.19,-2.20
201.18,-1.31,0.88,-1.31,0.88,-0.88,-0.93,-0.99,-2.19,-2.19,-2.20
203.19,-1.31,0.88,-1.31,0.88,-0.88,-0.93,-1.00,-2.19,-2.19,-2.20
205.23,-1.31,0.88,-1.31,0.88,-0.88,-0.92,-1.00,-2.19,-2.19,-2.19
207.28,-1.31,0.88,-1.32,0.87,-0.88,-0.92,-1.01,-2.20,-2.20,-2.19
209.35,-1.31,0.88,-1.31,0.88,-0.89,-0.92,-1.02,-2.20,-2.20,-2.19
211.44,-1.31,0.88,-1.30,0.89,-0.90,-0.91,-1.02,-2.21,-2.19,-2.19
213.56,-1.26,0.93,-1.28,0.91,-0.91,-0.91,-1.03,-2.17,-2.18,-2.19
215.69,-1.26,0.92,-1.27,0.92,-0.92,-0.90,-1.03,-2.18,-2.18,-2.19
217.85,-1.26,0.92,-1.26,0.93,-0.92,-0.90,-1.04,-2.19,-2.18,-2.19
220.03,-1.26,0.92,-1.25,0.93,-0.93,-0.89,-1.05,-2.20,-2.18,-2.18
222.23,-1.22,0.96,-1.24,0.95,-0.94,-0.89,-1.05,-2.17,-2.18,-2.18
224.45,-1.22,0.96,-1.22,0.96,-0.95,-0.89,-1.06,-2.17,-2.17,-2.18
226.70,-1.22,0.96,-1.22,0.96,-0.96,-0.88,-1.06,-2.18,-2.18,-2.18
228.96,-1.22,0.96,-1.22,0.96,-0.96,-0.88,-1.07,-2.19,-2.19,-2.18
231.25,-1.22,0.95,-1.22,0.96,-0.97,-0.87,-1.07,-2.19,-2.19,-2.18
233.57,-1.20,0.97,-1.21,0.97,-0.98,-0.87,-1.08,-2.18,-2.18,-2.18
235.90,-1.19,0.98,-1.19,0.98,-0.99,-0.87,-1.08,-2.18,-2.18,-2.17
238.26,-1.17,1.00,-1.18,0.99,-0.99,-0.86,-1.08,-2.16,-2.17,-2.17
240.64,-1.17,1.00,-1.17,1.00,-0.99,-0.86,-1.08,-2.17,-2.17,-2.17
243.05,-1.17,1.00,-1.17,1.00,-0.99,-0.85,-1.08,-2.17,-2.16,-2.17
245.48,-1.17,1.00,-1.17,1.00,-0.99,-0.85,-1.08,-2.16,-2.16,-2.17
247.93,-1.17,0.99,-1.18,0.99,-0.98,-0.85,-1.08,-2.16,-2.16,-2.17
250.41,-1.19,0.97,-1.20,0.97,-0.97,-0.85,-1.08,-2.17,-2.17,-2.17
252.92,-1.22,0.94,-1.21,0.96,-0.96,-0.84,-1.07,-2.18,-2.17,-2.16
255.45,-1.22,0.94,-1.23,0.94,-0.94,-0.84,-1.07,-2.17,-2.17,-2.16
258.00,-1.22,0.94,-1.24,0.92,-0.93,-0.84,-1.06,-2.15,-2.16,-2.16
260.58,-1.26,0.90,-1.24,0.92,-0.91,-0.84,-1.06,-2.17,-2.15,-2.16
263.19,-1.26,0.90,-1.26,0.90,-0.89,-0.84,-1.05,-2.15,-2.15,-2.16
265.82,-1.26,0.89,-1.28,0.87,-0.88,-0.84,-1.04,-2.14,-2.16,-2.16
268.48,-1.31,0.84,-1.30,0.86,-0.86,-0.83,-1.03,-2.17,-2.16,-2.16
271.16,-1.31,0.84,-1.31,0.84,-0.85,-0.83,-1.02,-2.16,-2.16,-2.16
273.87,-1.31,0.84,-1.32,0.84,-0.84,-0.84,-1.01,-2.15,-2.16,-2.15
276.61,-1.31,0.84,-1.31,0.84,-0.84,-0.84,-1.00,-2.15,-2.15,-2.15
279.38,-1.31,0.84,-1.32,0.83,-0.84,-0.84,-0.99,-2.15,-2.15,-2.15
282.17,-1.31,0.84,-1.31,0.84,-0.84,-0.84,-0.98,-2.16,-2.15,-2.15
284.99,-1.31,0.84,-1.30,0.85,-0.85,-0.84,-0.97,-2.17,-2.15,-2.15
287.84,-1.26,0.88,-1.28,0.87,-0.87,-0.85,-0.95,-2.13,-2.15,-2.15
290.72,-1.26,0.88,-1.25,0.89,-0.89,-0.85,-0.94,-2.16,-2.15,-2.15
293.63,-1.22,0.92,-1.23,0.92,-0.92,-0.86,-0.93,-2.14,-2.14,-2.14
296.57,-1.20,0.94,-1.20,0.94,-0.94,-0.86,-0.92,-2.15,-2.15,-2.14
299.53,-1.17,0.97,-1.17,0.97,-0.97,-0.87,-0.90,-2.14,-2.14,-2.14
302.53,-1.14,1.00,-1.14,1.00,-1.00,-0.88,-0.89,-2.14,-2.14,-2.14
305.55,-1.12,1.02,-1.11,1.02,-1.02,-0.89,-0.88,-2.14,-2.13,-2.14
308.61,-1.08,1.05,-1.09,1.04,-1.03,-0.90,-0.86,-2.12,-2.13,-2.14
311.69,-1.08,1.05,-1.08,1.05,-1.05,-0.91,-0.85,-2.13,-2.13,-2.14
314.81,-1.08,1.05,-1.08,1.06,-1.05,-0.92,-0.84,-2.13,-2.13,-2.13
317.96,-1.08,1.05,-1.08,1.05,-1.05,-0.94,-0.83,-2.13,-2.13,-2.13
321.14,-1.08,1.05,-1.08,1.05,-1.05,-0.95,-0.81,-2.13,-2.13,-2.13
324.35,-1.08,1.05,-1.10,1.03,-1.03,-0.96,-0.80,-2.12,-2.13,-2.13
327.59,-1.12,1.01,-1.10,1.02,-1.02,-0.98,-0.79,-2.14,-2.12,-2.13
330.87,-1.12,1.00,-1.12,1.00,-1.00,-1.00,-0.78,-2.12,-2.12,-2.13
334.18,-1.12,1.00,-1.14,0.98,-0.98,-1.01,-0.77,-2.11,-2.13,-2.13
337.52,-1.17,0.95,-1.16,0.97,-0.97,-1.03,-0.76,-2.14,-2.13,-2.12
340.90,-1.17,0.95,-1.17,0.95,-0.96,-1.05,-0.75,-2.13,-2.13,-2.12
344.30,-1.17,0.95,-1.18,0.94,-0.95,-1.06,-0.74,-2.12,-2.13,-2.12
347.75,-1.17,0.95,-1.18,0.94,-0.95,-1.07,-0.74,-2.12,-2.13,-2.12
351.23,-1.17,0.95,-1.17,0.95,-0.95,-1.09,-0.73,-2.13,-2.12,-2.12
354.74,-1.17,0.94,-1.16,0.96,-0.96,-1.09,-0.72,-2.14,-2.12,-2.12
358.28,-1.12,0.99,-1.14,0.98,-0.98,-1.10,-0.72,-2.10,-2.12,-2.12
361.87,-1.12,0.99,-1.12,1.00,-1.00,-1.10,-0.71,-2.12,-2.12,-2.12
365.49,-1.09,1.02,-1.09,1.02,-1.02,-1.10,-0.70,-2.11,-2.11,-2.11
369.14,-1.08,1.03,-1.08,1.04,-1.05,-1.09,-0.70,-2.13,-2.12,-2.11
372.83,-1.03,1.08,-1.04,1.07,-1.07,-1.08,-0.70,-2.10,-2.11,-2.11
376.56,-1.03,1.08,-1.02,1.09,-1.09,-1.07,-0.69,-2.12,-2.11,-2.11
380.33,-0.98,1.13,-0.99,1.11,-1.10,-1.06,-0.69,-2.09,-2.10,-2.11
384.13,-0.98,1.12,-0.99,1.12,-1.11,-1.04,-0.69,-2.09,-2.10,-2.11
387.97,-0.98,1.12,-0.97,1.13,-1.11,-1.02,-0.68,-2.10,-2.09,-2.11
391.85,-0.98,1.12,-0.99,1.12,-1.11,-1.00,-0.68,-2.09,-2.10,-2.10
395.77,-0.98,1.12,-1.00,1.10,-1.10,-0.99,-0.68,-2.09,-2.10,-2.10
399.73,-1.03,1.07,-1.02,1.09,-1.09,-0.97,-0.68,-2.13,-2.11,-2.10
403.72,-1.03,1.07,-1.03,1.07,-1.08,-0.95,-0.68,-2.11,-2.11,-2.10
407.76,-1.03,1.07,-1.04,1.06,-1.07,-0.93,-0.68,-2.10,-2.11,-2.10
411.84,-1.03,1.06,-1.03,1.06,-1.06,-0.92,-0.68,-2.10,-2.10,-2.10
415.96,-1.03,1.06,-1.03,1.06,-1.06,-0.90,-0.68,-2.09,-2.09,-2.10
420.12,-1.03,1.06,-1.04,1.06,-1.07,-0.89,-0.69,-2.10,-2.10,-2.09
424.32,-1.03,1.06,-1.03,1.06,-1.07,-0.88,-0.69,-2.10,-2.11,-2.09
428.56,-1.03,1.06,-1.02,1.07,-1.08,-0.87,-0.69,-2.11,-2.10,-2.09
