frequency,raw,error,smoothed,error_smoothed,equalization,parametric_eq,fixed_band_eq,equalized_raw,equalized_smoothed,target
20.00,-6.61,-4.08,-6.63,-4.09,4.11,3.94,1.18,-2.50,-2.51,-2.53
20.20,-6.59,-4.09,-6.58,-4.08,4.09,3.90,1.22,-2.51,-2.50,-2.50
20.40,-6.54,-4.07,-6.54,-4.06,4.06,3.87,1.26,-2.49,-2.48,-2.47
20.61,-6.50,-4.04,-6.49,-4.04,4.02,3.83,1.29,-2.47,-2.46,-2.45
20.81,-6.41,-3.99,-6.42,-4.00,3.99,3.80,1.33,-2.43,-2.44,-2.42
21.02,-6.35,-3.96,-6.36,-3.96,3.95,3.77,1.37,-2.40,-2.41,-2.39
21.23,-6.31,-3.93,-6.30,-3.92,3.91,3.73,1.41,-2.40,-2.39,-2.38
21.44,-6.24,-3.87,-6.25,-3.87,3.87,3.70,1.46,-2.37,-2.38,-2.37
21.66,-6.19,-3.82,-6.19,-3.82,3.82,3.66,1.50,-2.36,-2.37,-2.37
21.87,-6.13,-3.77,-6.13,-3.77,3.77,3.63,1.55,-2.36,-2.36,-2.37
22.09,-6.07,-3.72,-6.07,-3.72,3.72,3.59,1.59,-2.35,-2.35,-2.36
22.31,-6.01,-3.66,-6.02,-3.67,3.67,3.56,1.64,-2.34,-2.35,-2.36
22.54,-5.99,-3.63,-5.98,-3.62,3.63,3.52,1.69,-2.36,-2.35,-2.36
22.76,-5.93,-3.58,-5.94,-3.58,3.58,3.49,1.74,-2.35,-2.36,-2.36
22.99,-5.90,-3.54,-5.90,-3.54,3.54,3.45,1.79,-2.37,-2.36,-2.37
23.22,-5.86,-3.50,-5.86,-3.50,3.50,3.42,1.85,-2.37,-2.36,-2.37
23.45,-5.82,-3.46,-5.83,-3.46,3.46,3.38,1.90,-2.36,-2.37,-2.37
23.69,-5.80,-3.43,-5.79,-3.42,3.42,3.35,1.96,-2.37,-2.37,-2.37
23.92,-5.75,-3.38,-5.75,-3.39,3.38,3.31,2.01,-2.37,-2.37,-2.37
24.16,-5.70,-3.34,-5.71,-3.35,3.34,3.28,2.07,-2.36,-2.37,-2.36
24.40,-5.66,-3.30,-5.66,-3.30,3.30,3.24,2.13,-2.37,-2.37,-2.36
24.65,-5.62,-3.25,-5.62,-3.25,3.25,3.21,2.19,-2.37,-2.37,-2.37
24.89,-5.57,-3.20,-5.58,-3.21,3.21,3.17,2.24,-2.37,-2.37,-2.37
25.14,-5.53,-3.16,-5.53,-3.16,3.16,3.14,2.30,-2.37,-2.37,-2.37
25.39,-5.49,-3.12,-5.49,-3.12,3.12,3.10,2.36,-2.38,-2.37,-2.37
25.65,-5.44,-3.07,-5.45,-3.07,3.07,3.07,2.42,-2.37,-2.38,-2.37
25.91,-5.41,-3.02,-5.41,-3.03,3.03,3.03,2.48,-2.38,-2.38,-2.38
26.16,-5.36,-2.98,-5.37,-2.99,2.99,3.00,2.54,-2.37,-2.38,-2.39
26.43,-5.34,-2.96,-5.34,-2.95,2.96,2.96,2.60,-2.39,-2.38,-2.39
26.69,-5.30,-2.92,-5.31,-2.92,2.92,2.93,2.66,-2.38,-2.39,-2.39
26.96,-5.27,-2.89,-5.28,-2.89,2.89,2.89,2.71,-2.38,-2.39,-2.39
27.23,-5.25,-2.87,-5.25,-2.86,2.86,2.86,2.77,-2.39,-2.39,-2.39
27.50,-5.21,-2.83,-5.23,-2.84,2.83,2.82,2.82,-2.38,-2.40,-2.39
27.77,-5.21,-2.81,-5.20,-2.81,2.80,2.79,2.87,-2.41,-2.40,-2.40
28.05,-5.17,-2.77,-5.18,-2.77,2.77,2.75,2.92,-2.40,-2.41,-2.40
28.33,-5.14,-2.73,-5.15,-2.74,2.74,2.72,2.96,-2.41,-2.41,-2.41
28.62,-5.12,-2.70,-5.11,-2.70,2.70,2.68,3.01,-2.42,-2.41,-2.41
28.90,-5.08,-2.67,-5.08,-2.66,2.66,2.65,3.04,-2.42,-2.42,-2.41
29.19,-5.03,-2.61,-5.04,-2.62,2.62,2.62,3.08,-2.42,-2.42,-2.42
29.48,-5.00,-2.59,-5.00,-2.58,2.58,2.58,3.11,-2.43,-2.43,-2.42
29.78,-4.96,-2.53,-4.96,-2.53,2.53,2.55,3.13,-2.42,-2.42,-2.43
30.08,-4.93,-2.50,-4.92,-2.49,2.49,2.51,3.15,-2.43,-2.43,-2.43
30.38,-4.88,-2.44,-4.88,-2.44,2.45,2.48,3.17,-2.42,-2.43,-2.44
30.68,-4.85,-2.41,-4.85,-2.41,2.42,2.45,3.18,-2.44,-2.44,-2.44
30.99,-4.83,-2.37,-4.82,-2.37,2.38,2.41,3.19,-2.44,-2.44,-2.45
31.30,-4.80,-2.35,-4.80,-2.35,2.35,2.38,3.19,-2.45,-2.45,-2.45
31.61,-4.77,-2.32,-4.78,-2.32,2.32,2.34,3.18,-2.45,-2.46,-2.46
31.93,-4.77,-2.31,-4.76,-2.30,2.29,2.31,3.17,-2.48,-2.47,-2.47
32.24,-4.73,-2.26,-4.74,-2.27,2.26,2.28,3.16,-2.47,-2.48,-2.48
32.57,-4.72,-2.24,-4.72,-2.24,2.24,2.25,3.14,-2.49,-2.48,-2.48
32.89,-4.69,-2.21,-4.69,-2.21,2.21,2.21,3.11,-2.49,-2.49,-2.48
33.22,-4.66,-2.17,-4.67,-2.18,2.18,2.18,3.08,-2.49,-2.49,-2.49
33.55,-4.64,-2.15,-4.64,-2.14,2.15,2.15,3.05,-2.50,-2.49,-2.50
33.89,-4.60,-2.10,-4.62,-2.11,2.11,2.11,3.01,-2.49,-2.50,-2.51
34.23,-4.60,-2.10,-4.59,-2.08,2.08,2.08,2.97,-2.52,-2.51,-2.51
34.57,-4.56,-2.04,-4.57,-2.05,2.05,2.05,2.92,-2.51,-2.52,-2.52
34.92,-4.55,-2.02,-4.55,-2.02,2.02,2.02,2.87,-2.54,-2.53,-2.53
35.27,-4.52,-1.98,-4.52,-1.98,1.99,1.99,2.82,-2.53,-2.54,-2.54
35.62,-4.50,-1.96,-4.50,-1.95,1.95,1.96,2.77,-2.55,-2.55,-2.55
35.97,-4.47,-1.91,-4.47,-1.92,1.91,1.92,2.71,-2.56,-2.56,-2.56
36.33,-4.44,-1.88,-4.45,-1.88,1.88,1.89,2.65,-2.57,-2.57,-2.56
36.70,-4.41,-1.84,-4.41,-1.84,1.83,1.86,2.59,-2.58,-2.58,-2.57
37.06,-4.38,-1.80,-4.38,-1.80,1.79,1.83,2.53,-2.59,-2.59,-2.59
37.43,-4.34,-1.75,-4.34,-1.75,1.75,1.80,2.47,-2.59,-2.59,-2.59
37.81,-4.30,-1.70,-4.31,-1.71,1.71,1.77,2.41,-2.59,-2.60,-2.60
38.19,-4.27,-1.66,-4.28,-1.67,1.67,1.74,2.34,-2.60,-2.61,-2.62
38.57,-4.25,-1.64,-4.25,-1.63,1.63,1.71,2.28,-2.62,-2.62,-2.62
38.95,-4.23,-1.60,-4.24,-1.60,1.60,1.68,2.22,-2.63,-2.63,-2.63
39.34,-4.21,-1.57,-4.22,-1.58,1.57,1.65,2.15,-2.64,-2.65,-2.65
39.74,-4.21,-1.56,-4.20,-1.55,1.55,1.62,2.09,-2.67,-2.66,-2.66
40.14,-4.19,-1.52,-4.19,-1.52,1.53,1.59,2.03,-2.66,-2.66,-2.66
40.54,-4.17,-1.50,-4.18,-1.51,1.51,1.56,1.97,-2.66,-2.67,-2.68
40.94,-4.17,-1.50,-4.17,-1.49,1.50,1.53,1.91,-2.67,-2.67,-2.68
41.35,-4.17,-1.48,-4.17,-1.48,1.49,1.50,1.85,-2.69,-2.69,-2.69
41.76,-4.17,-1.48,-4.17,-1.48,1.48,1.48,1.79,-2.70,-2.70,-2.70
42.18,-4.17,-1.47,-4.18,-1.47,1.46,1.45,1.74,-2.71,-2.71,-2.70
42.60,-4.17,-1.46,-4.17,-1.46,1.45,1.42,1.68,-2.73,-2.72,-2.72
43.03,-4.17,-1.45,-4.16,-1.44,1.43,1.39,1.62,-2.74,-2.73,-2.72
43.46,-4.14,-1.41,-4.16,-1.42,1.41,1.36,1.57,-2.73,-2.74,-2.73
43.90,-4.14,-1.39,-4.15,-1.39,1.39,1.34,1.52,-2.75,-2.75,-2.76
44.33,-4.14,-1.37,-4.14,-1.36,1.37,1.31,1.47,-2.77,-2.76,-2.77
44.78,-4.12,-1.34,-4.13,-1.34,1.35,1.28,1.42,-2.78,-2.78,-2.79
45.23,-4.12,-1.32,-4.13,-1.32,1.32,1.25,1.37,-2.80,-2.81,-2.81
45.68,-4.12,-1.30,-4.12,-1.30,1.30,1.22,1.32,-2.83,-2.82,-2.82
46.13,-4.12,-1.29,-4.11,-1.28,1.28,1.20,1.27,-2.85,-2.84,-2.84
46.60,-4.09,-1.24,-4.10,-1.25,1.25,1.17,1.23,-2.83,-2.85,-2.84
47.06,-4.08,-1.23,-4.08,-1.23,1.23,1.14,1.18,-2.86,-2.86,-2.86
47.53,-4.08,-1.21,-4.07,-1.20,1.20,1.12,1.14,-2.89,-2.87,-2.88
48.01,-4.04,-1.16,-4.06,-1.17,1.17,1.09,1.10,-2.88,-2.89,-2.88
48.49,-4.04,-1.14,-4.05,-1.14,1.13,1.06,1.05,-2.91,-2.92,-2.91
48.97,-4.04,-1.11,-4.04,-1.10,1.10,1.04,1.01,-2.94,-2.94,-2.94
49.46,-4.04,-1.08,-4.03,-1.07,1.07,1.01,0.98,-2.98,-2.96,-2.96
49.96,-4.00,-1.01,-4.01,-1.03,1.04,0.98,0.94,-2.97,-2.98,-2.99
50.46,-3.99,-1.00,-4.00,-1.00,1.01,0.96,0.90,-2.98,-2.99,-3.00
50.96,-3.99,-0.98,-3.99,-0.97,0.98,0.93,0.86,-3.01,-3.01,-3.02
51.47,-3.99,-0.95,-4.00,-0.96,0.95,0.90,0.83,-3.04,-3.04,-3.05
51.99,-3.99,-0.93,-3.99,-0.93,0.93,0.88,0.79,-3.07,-3.07,-3.06
52.51,-3.99,-0.92,-3.98,-0.91,0.90,0.85,0.76,-3.10,-3.08,-3.07
53.03,-3.95,-0.86,-3.97,-0.88,0.87,0.82,0.73,-3.09,-3.10,-3.09
53.56,-3.95,-0.84,-3.95,-0.84,0.83,0.80,0.69,-3.12,-3.12,-3.11
54.10,-3.93,-0.80,-3.93,-0.80,0.80,0.77,0.66,-3.14,-3.13,-3.13
54.64,-3.91,-0.76,-3.92,-0.76,0.76,0.75,0.63,-3.16,-3.16,-3.15
55.18,-3.88,-0.71,-3.89,-0.71,0.72,0.72,0.60,-3.17,-3.17,-3.17
55.74,-3.86,-0.67,-3.86,-0.67,0.67,0.69,0.57,-3.19,-3.19,-3.19
56.29,-3.82,-0.62,-3.84,-0.62,0.63,0.67,0.54,-3.19,-3.20,-3.21
56.86,-3.82,-0.60,-3.81,-0.59,0.59,0.64,0.51,-3.24,-3.23,-3.23
57.42,-3.78,-0.53,-3.79,-0.54,0.55,0.61,0.48,-3.24,-3.24,-3.25
58.00,-3.77,-0.51,-3.77,-0.50,0.51,0.58,0.45,-3.27,-3.26,-3.26
58.58,-3.73,-0.46,-3.74,-0.47,0.47,0.56,0.43,-3.27,-3.28,-3.28
59.16,-3.71,-0.43,-3.71,-0.43,0.42,0.53,0.40,-3.29,-3.29,-3.29
59.76,-3.69,-0.39,-3.69,-0.38,0.38,0.50,0.37,-3.32,-3.31,-3.30
60.35,-3.65,-0.33,-3.66,-0.34,0.33,0.48,0.34,-3.32,-3.33,-3.33
60.96,-3.64,-0.30,-3.64,-0.29,0.29,0.45,0.32,-3.36,-3.35,-3.34
61.57,-3.60,-0.23,-3.61,-0.24,0.24,0.42,0.29,-3.37,-3.37,-3.38
62.18,-3.58,-0.18,-3.58,-0.18,0.19,0.39,0.27,-3.40,-3.40,-3.40
62.80,-3.55,-0.14,-3.55,-0.13,0.14,0.36,0.24,-3.42,-3.42,-3.42
63.43,-3.52,-0.08,-3.53,-0.08,0.08,0.33,0.21,-3.44,-3.44,-3.45
64.07,-3.49,-0.03,-3.50,-0.03,0.03,0.30,0.19,-3.46,-3.46,-3.46
64.71,-3.46,0.01,-3.47,0.02,-0.02,0.28,0.16,-3.48,-3.48,-3.48
65.35,-3.43,0.06,-3.43,0.07,-0.07,0.25,0.13,-3.50,-3.50,-3.50
66.01,-3.39,0.12,-3.40,0.12,-0.12,0.22,0.11,-3.52,-3.52,-3.52
66.67,-3.35,0.18,-3.36,0.17,-0.17,0.19,0.08,-3.52,-3.53,-3.54
67.33,-3.34,0.21,-3.33,0.22,-0.22,0.16,0.06,-3.56,-3.55,-3.55
68.01,-3.30,0.27,-3.31,0.27,-0.27,0.12,0.03,-3.57,-3.58,-3.58
68.69,-3.28,0.31,-3.29,0.31,-0.31,0.09,0.01,-3.60,-3.60,-3.60
69.37,-3.26,0.35,-3.26,0.36,-0.36,0.06,-0.02,-3.62,-3.61,-3.62
70.07,-3.23,0.40,-3.24,0.40,-0.40,0.03,-0.05,-3.63,-3.64,-3.64
70.77,-3.21,0.44,-3.22,0.43,-0.43,-0.00,-0.07,-3.65,-3.65,-3.65
71.48,-3.21,0.46,-3.20,0.47,-0.47,-0.03,-0.10,-3.69,-3.67,-3.67
72.19,-3.18,0.51,-3.19,0.51,-0.51,-0.07,-0.13,-3.69,-3.69,-3.70
72.91,-3.17,0.55,-3.18,0.54,-0.54,-0.10,-0.15,-3.71,-3.72,-3.72
73.64,-3.17,0.57,-3.17,0.57,-0.57,-0.13,-0.18,-3.75,-3.75,-3.75
74.38,-3.17,0.59,-3.17,0.60,-0.60,-0.17,-0.21,-3.78,-3.77,-3.76
75.12,-3.16,0.62,-3.16,0.63,-0.63,-0.20,-0.24,-3.79,-3.79,-3.79
75.87,-3.13,0.67,-3.15,0.66,-0.66,-0.24,-0.26,-3.79,-3.80,-3.80
76.63,-3.13,0.69,-3.14,0.69,-0.68,-0.27,-0.29,-3.81,-3.81,-3.82
77.40,-3.13,0.70,-3.13,0.71,-0.70,-0.31,-0.32,-3.84,-3.83,-3.84
78.17,-3.13,0.73,-3.13,0.72,-0.72,-0.34,-0.35,-3.86,-3.86,-3.87
78.95,-3.13,0.74,-3.13,0.74,-0.74,-0.38,-0.38,-3.88,-3.88,-3.87
79.74,-3.13,0.76,-3.13,0.76,-0.76,-0.41,-0.41,-3.90,-3.90,-3.89
80.54,-3.13,0.78,-3.13,0.78,-0.78,-0.45,-0.44,-3.92,-3.92,-3.91
81.35,-3.13,0.80,-3.13,0.80,-0.80,-0.49,-0.47,-3.93,-3.93,-3.93
82.16,-3.13,0.82,-3.13,0.82,-0.82,-0.52,-0.50,-3.95,-3.95,-3.95
82.98,-3.13,0.83,-3.13,0.84,-0.84,-0.56,-0.53,-3.97,-3.97,-3.96
83.81,-3.13,0.86,-3.13,0.86,-0.86,-0.60,-0.56,-3.99,-3.99,-4.00
84.65,-3.13,0.88,-3.13,0.88,-0.88,-0.64,-0.60,-4.01,-4.01,-4.02
85.50,-3.13,0.90,-3.13,0.90,-0.90,-0.67,-0.63,-4.03,-4.03,-4.03
86.35,-3.13,0.92,-3.13,0.92,-0.92,-0.71,-0.66,-4.05,-4.05,-4.05
87.22,-3.13,0.94,-3.13,0.94,-0.94,-0.75,-0.70,-4.08,-4.08,-4.08
88.09,-3.13,0.97,-3.13,0.96,-0.96,-0.79,-0.73,-4.10,-4.10,-4.10
88.97,-3.13,0.98,-3.13,0.99,-0.99,-0.83,-0.77,-4.12,-4.12,-4.12
89.86,-3.13,1.01,-3.13,1.01,-1.01,-0.86,-0.80,-4.15,-4.15,-4.14
90.76,-3.13,1.04,-3.13,1.04,-1.04,-0.90,-0.84,-4.17,-4.17,-4.18
91.66,-3.13,1.06,-3.13,1.06,-1.06,-0.94,-0.88,-4.20,-4.20,-4.19
92.58,-3.13,1.09,-3.13,1.09,-1.09,-0.98,-0.91,-4.22,-4.22,-4.23
93.51,-3.13,1.11,-3.13,1.11,-1.12,-1.02,-0.95,-4.25,-4.25,-4.24
94.44,-3.13,1.14,-3.13,1.14,-1.14,-1.06,-0.99,-4.28,-4.28,-4.27
95.39,-3.13,1.16,-3.13,1.17,-1.17,-1.09,-1.03,-4.30,-4.30,-4.30
96.34,-3.13,1.20,-3.13,1.20,-1.19,-1.13,-1.07,-4.33,-4.32,-4.34
97.30,-3.13,1.23,-3.14,1.23,-1.22,-1.17,-1.11,-4.35,-4.35,-4.36
98.28,-3.13,1.26,-3.15,1.24,-1.24,-1.21,-1.15,-4.37,-4.39,-4.39
99.26,-3.17,1.24,-3.16,1.26,-1.26,-1.24,-1.19,-4.44,-4.42,-4.42
100.25,-3.17,1.27,-3.17,1.27,-1.28,-1.28,-1.23,-4.46,-4.46,-4.45
101.25,-3.17,1.30,-3.18,1.30,-1.30,-1.32,-1.27,-4.48,-4.48,-4.47
102.27,-3.17,1.33,-3.17,1.33,-1.32,-1.35,-1.32,-4.50,-4.50,-4.50
103.29,-3.17,1.37,-3.18,1.35,-1.34,-1.39,-1.36,-4.52,-4.52,-4.54
104.32,-3.19,1.36,-3.19,1.37,-1.36,-1.42,-1.40,-4.56,-4.56,-4.56
105.37,-3.21,1.37,-3.21,1.38,-1.39,-1.46,-1.44,-4.60,-4.60,-4.59
106.42,-3.21,1.40,-3.22,1.40,-1.41,-1.49,-1.48,-4.63,-4.63,-4.62
107.48,-3.21,1.43,-3.22,1.43,-1.44,-1.52,-1.52,-4.65,-4.65,-4.64
108.56,-3.21,1.47,-3.21,1.47,-1.46,-1.55,-1.56,-4.67,-4.67,-4.68
109.64,-3.21,1.50,-3.21,1.50,-1.48,-1.59,-1.60,-4.70,-4.69,-4.71
110.74,-3.21,1.52,-3.22,1.52,-1.51,-1.61,-1.64,-4.72,-4.73,-4.74
111.85,-3.22,1.54,-3.23,1.54,-1.54,-1.64,-1.68,-4.76,-4.77,-4.77
112.97,-3.26,1.55,-3.25,1.56,-1.57,-1.67,-1.72,-4.83,-4.82,-4.81
114.10,-3.26,1.58,-3.26,1.58,-1.60,-1.70,-1.75,-4.86,-4.86,-4.84
115.24,-3.26,1.61,-3.27,1.61,-1.62,-1.73,-1.79,-4.89,-4.89,-4.88
116.39,-3.26,1.65,-3.26,1.65,-1.65,-1.75,-1.82,-4.91,-4.91,-4.92
117.55,-3.26,1.69,-3.26,1.69,-1.68,-1.78,-1.85,-4.94,-4.94,-4.95
118.73,-3.26,1.72,-3.27,1.72,-1.71,-1.80,-1.88,-4.97,-4.97,-4.99
119.92,-3.26,1.75,-3.28,1.74,-1.74,-1.82,-1.91,-5.00,-5.01,-5.02
121.12,-3.30,1.75,-3.29,1.76,-1.76,-1.84,-1.94,-5.07,-5.06,-5.05
122.33,-3.30,1.78,-3.30,1.78,-1.79,-1.86,-1.96,-5.10,-5.09,-5.09
123.55,-3.30,1.81,-3.31,1.81,-1.82,-1.88,-1.98,-5.12,-5.13,-5.11
124.79,-3.30,1.84,-3.30,1.84,-1.84,-1.90,-2.00,-5.15,-5.14,-5.15
126.03,-3.30,1.88,-3.31,1.87,-1.87,-1.91,-2.02,-5.17,-5.18,-5.18
127.29,-3.30,1.91,-3.32,1.90,-1.90,-1.93,-2.04,-5.20,-5.22,-5.21
128.57,-3.34,1.91,-3.33,1.92,-1.92,-1.95,-2.05,-5.27,-5.26,-5.26
129.85,-3.34,1.95,-3.34,1.95,-1.95,-1.96,-2.06,-5.29,-5.29,-5.29
131.15,-3.34,1.98,-3.34,1.98,-1.97,-1.97,-2.08,-5.32,-5.32,-5.32
132.46,-3.34,2.01,-3.35,2.01,-2.00,-1.99,-2.08,-5.34,-5.34,-5.35
133.79,-3.34,2.03,-3.36,2.02,-2.02,-2.00,-2.09,-5.36,-5.38,-5.38
135.12,-3.38,2.03,-3.37,2.04,-2.04,-2.02,-2.10,-5.43,-5.42,-5.42
136.48,-3.39,2.04,-3.39,2.05,-2.06,-2.03,-2.10,-5.46,-5.45,-5.44
137.84,-3.39,2.07,-3.40,2.08,-2.08,-2.04,-2.11,-5.48,-5.48,-5.47
139.22,-3.39,2.11,-3.40,2.11,-2.10,-2.06,-2.11,-5.50,-5.50,-5.51
140.61,-3.39,2.14,-3.40,2.13,-2.12,-2.07,-2.12,-5.51,-5.51,-5.53
142.02,-3.40,2.14,-3.41,2.14,-2.14,-2.09,-2.12,-5.54,-5.54,-5.54
143.44,-3.41,2.16,-3.42,2.15,-2.16,-2.10,-2.12,-5.57,-5.57,-5.57
144.87,-3.43,2.16,-3.43,2.17,-2.18,-2.12,-2.12,-5.61,-5.60,-5.60
146.32,-3.43,2.19,-3.43,2.18,-2.20,-2.14,-2.12,-5.63,-5.63,-5.62
147.78,-3.43,2.21,-3.44,2.21,-2.21,-2.16,-2.13,-5.65,-5.65,-5.64
149.26,-3.43,2.23,-3.43,2.24,-2.23,-2.18,-2.13,-5.67,-5.66,-5.67
150.75,-3.43,2.27,-3.43,2.26,-2.25,-2.21,-2.13,-5.68,-5.68,-5.70
152.26,-3.43,2.29,-3.44,2.28,-2.27,-2.23,-2.14,-5.71,-5.71,-5.72
153.78,-3.45,2.29,-3.45,2.30,-2.29,-2.26,-2.14,-5.75,-5.75,-5.75
155.32,-3.47,2.31,-3.47,2.31,-2.32,-2.28,-2.15,-5.79,-5.79,-5.78
156.88,-3.47,2.33,-3.48,2.33,-2.34,-2.31,-2.15,-5.82,-5.82,-5.80
158.44,-3.47,2.36,-3.48,2.36,-2.37,-2.34,-2.16,-5.84,-5.84,-5.84
160.03,-3.47,2.39,-3.47,2.39,-2.39,-2.37,-2.17,-5.86,-5.86,-5.87
161.63,-3.47,2.42,-3.47,2.42,-2.41,-2.40,-2.18,-5.89,-5.89,-5.90
163.24,-3.47,2.45,-3.48,2.45,-2.44,-2.43,-2.19,-5.91,-5.91,-5.93
164.88,-3.47,2.47,-3.48,2.47,-2.46,-2.46,-2.20,-5.94,-5.95,-5.95
166.53,-3.49,2.48,-3.49,2.49,-2.49,-2.49,-2.22,-5.98,-5.98,-5.98
168.19,-3.49,2.51,-3.49,2.51,-2.51,-2.52,-2.24,-6.01,-6.01,-6.01
169.87,-3.49,2.54,-3.50,2.54,-2.54,-2.55,-2.25,-6.04,-6.04,-6.03
171.57,-3.49,2.57,-3.49,2.57,-2.57,-2.58,-2.28,-6.06,-6.06,-6.06
173.29,-3.49,2.59,-3.50,2.59,-2.60,-2.61,-2.30,-6.09,-6.09,-6.09
175.02,-3.49,2.62,-3.49,2.63,-2.63,-2.64,-2.32,-6.12,-6.12,-6.11
176.77,-3.49,2.66,-3.49,2.66,-2.66,-2.67,-2.35,-6.16,-6.15,-6.15
178.54,-3.47,2.71,-3.48,2.70,-2.70,-2.69,-2.37,-6.17,-6.18,-6.19
180.32,-3.47,2.74,-3.48,2.74,-2.73,-2.72,-2.40,-6.20,-6.20,-6.21
182.13,-3.47,2.76,-3.47,2.77,-2.76,-2.75,-2.43,-6.24,-6.23,-6.24
183.95,-3.47,2.80,-3.47,2.79,-2.79,-2.78,-2.47,-6.27,-6.27,-6.27
185.79,-3.47,2.82,-3.48,2.82,-2.83,-2.80,-2.50,-6.30,-6.30,-6.30
187.65,-3.47,2.85,-3.48,2.85,-2.86,-2.83,-2.54,-6.33,-6.34,-6.33
189.52,-3.47,2.88,-3.47,2.88,-2.89,-2.86,-2.57,-6.37,-6.36,-6.35
191.42,-3.45,2.92,-3.45,2.92,-2.92,-2.88,-2.61,-6.38,-6.38,-6.37
193.33,-3.43,2.96,-3.44,2.95,-2.95,-2.91,-2.65,-6.38,-6.39,-6.40
195.27,-3.43,2.98,-3.43,2.99,-2.98,-2.93,-2.70,-6.41,-6.41,-6.42
197.22,-3.43,3.01,-3.43,3.01,-3.00,-2.96,-2.74,-6.44,-6.44,-6.44
199.19,-3.43,3.04,-3.43,3.03,-3.03,-2.98,-2.78,-6.46,-6.46,-6.47
201.18,-3.43,3.05,-3.44,3.05,-3.05,-3.00,-2.83,-6.49,-6.49,-6.48
203.19,-3.43,3.06,-3.44,3.06,-3.07,-3.02,-2.88,-6.51,-6.51,-6.49
205.23,-3.43,3.08,-3.43,3.08,-3.09,-3.05,-2.92,-6.52,-6.52,-6.51
207.28,-3.41,3.10,-3.41,3.11,-3.11,-3.07,-2.97,-6.52,-6.52,-6.51
209.35,-3.39,3.14,-3.40,3.13,-3.12,-3.09,-3.02,-6.52,-6.52,-6.53
211.44,-3.39,3.16,-3.39,3.15,-3.14,-3.11,-3.07,-6.53,-6.53,-6.55
213.56,-3.39,3.16,-3.40,3.16,-3.16,-3.13,-3.11,-6.55,-6.55,-6.55
215.69,-3.39,3.15,-3.40,3.16,-3.17,-3.14,-3.16,-6.57,-6.57,-6.55
217.85,-3.39,3.16,-3.38,3.18,-3.18,-3.16,-3.21,-6.58,-6.57,-6.56
220.03,-3.36,3.20,-3.37,3.20,-3.19,-3.17,-3.25,-6.56,-6.56,-6.57
222.23,-3.34,3.23,-3.35,3.21,-3.20,-3.18,-3.29,-6.55,-6.55,-6.57
224.45,-3.34,3.22,-3.34,3.22,-3.21,-3.20,-3.34,-6.55,-6.55,-6.56
226.70,-3.34,3.21,-3.35,3.21,-3.22,-3.20,-3.37,-6.56,-6.56,-6.56
228.96,-3.34,3.21,-3.34,3.21,-3.22,-3.21,-3.41,-6.57,-6.56,-6.55
231.25,-3.33,3.21,-3.33,3.22,-3.22,-3.21,-3.44,-6.56,-6.55,-6.54
233.57,-3.30,3.23,-3.32,3.22,-3.22,-3.22,-3.48,-6.53,-6.54,-6.54
235.90,-3.30,3.23,-3.31,3.23,-3.22,-3.22,-3.50,-6.53,-6.53,-6.53
238.26,-3.30,3.23,-3.31,3.22,-3.22,-3.21,-3.53,-6.52,-6.53,-6.53
240.64,-3.30,3.21,-3.30,3.21,-3.22,-3.21,-3.55,-6.52,-6.52,-6.52
243.05,-3.30,3.20,-3.29,3.21,-3.21,-3.20,-3.57,-6.52,-6.50,-6.50
245.48,-3.26,3.22,-3.28,3.21,-3.21,-3.19,-3.58,-6.47,-6.49,-6.49
247.93,-3.26,3.21,-3.27,3.21,-3.20,-3.18,-3.59,-6.47,-6.47,-6.47
250.41,-3.26,3.20,-3.27,3.19,-3.20,-3.17,-3.59,-6.46,-6.46,-6.47
252.92,-3.26,3.18,-3.26,3.18,-3.19,-3.15,-3.59,-6.45,-6.45,-6.44
255.45,-3.26,3.15,-3.25,3.17,-3.18,-3.14,-3.58,-6.44,-6.43,-6.42
258.00,-3.21,3.19,-3.23,3.17,-3.17,-3.12,-3.58,-6.38,-6.40,-6.40
260.58,-3.21,3.17,-3.22,3.17,-3.16,-3.10,-3.56,-6.37,-6.37,-6.39
263.19,-3.21,3.15,-3.21,3.15,-3.14,-3.08,-3.55,-6.36,-6.36,-6.36
265.82,-3.21,3.13,-3.22,3.13,-3.13,-3.06,-3.53,-6.35,-6.35,-6.34
268.48,-3.21,3.10,-3.21,3.11,-3.12,-3.04,-3.50,-6.33,-6.33,-6.32
271.16,-3.19,3.10,-3.19,3.10,-3.10,-3.02,-3.47,-6.30,-6.30,-6.29
273.87,-3.17,3.10,-3.18,3.09,-3.09,-3.00,-3.45,-6.26,-6.27,-6.28
276.61,-3.17,3.07,-3.17,3.08,-3.07,-2.98,-3.41,-6.24,-6.24,-6.25
279.38,-3.17,3.06,-3.17,3.06,-3.05,-2.97,-3.38,-6.23,-6.23,-6.23
282.17,-3.17,3.04,-3.18,3.04,-3.04,-2.95,-3.34,-6.21,-6.22,-6.22
284.99,-3.17,3.01,-3.17,3.02,-3.03,-2.93,-3.30,-6.20,-6.20,-6.19
287.84,-3.17,3.00,-3.17,3.00,-3.01,-2.91,-3.26,-6.18,-6.18,-6.17
290.72,-3.15,2.99,-3.16,2.99,-2.99,-2.90,-3.22,-6.15,-6.15,-6.14
293.63,-3.14,2.98,-3.15,2.98,-2.98,-2.88,-3.18,-6.12,-6.12,-6.13
296.57,-3.13,2.97,-3.14,2.97,-2.96,-2.86,-3.14,-6.09,-6.10,-6.10
299.53,-3.13,2.95,-3.13,2.95,-2.94,-2.85,-3.09,-6.08,-6.08,-6.08
302.53,-3.13,2.93,-3.13,2.93,-2.92,-2.84,-3.05,-6.05,-6.05,-6.07
305.55,-3.13,2.89,-3.13,2.90,-2.90,-2.82,-3.01,-6.03,-6.03,-6.03
308.61,-3.13,2.88,-3.13,2.87,-2.87,-2.81,-2.97,-6.01,-6.01,-6.01
311.69,-3.13,2.85,-3.13,2.84,-2.85,-2.80,-2.93,-5.98,-5.98,-5.98
314.81,-3.13,2.81,-3.13,2.82,-2.82,-2.79,-2.89,-5.96,-5.96,-5.94
317.96,-3.13,2.79,-3.13,2.79,-2.80,-2.78,-2.85,-5.93,-5.93,-5.93
321.14,-3.13,2.77,-3.13,2.77,-2.77,-2.77,-2.81,-5.91,-5.91,-5.91
324.35,-3.13,2.76,-3.13,2.75,-2.75,-2.76,-2.77,-5.88,-5.88,-5.89
327.59,-3.13,2.73,-3.13,2.73,-2.73,-2.75,-2.74,-5.86,-5.86,-5.86
330.87,-3.13,2.71,-3.13,2.71,-2.71,-2.75,-2.71,-5.84,-5.84,-5.84
334.18,-3.13,2.69,-3.14,2.69,-2.69,-2.74,-2.67,-5.82,-5.83,-5.83
337.52,-3.13,2.67,-3.14,2.67,-2.67,-2.73,-2.64,-5.81,-5.81,-5.81
340.90,-3.13,2.65,-3.13,2.66,-2.66,-2.73,-2.61,-5.80,-5.79,-5.78
344.30,-3.11,2.65,-3.11,2.65,-2.65,-2.73,-2.59,-5.77,-5.77,-5.76
347.75,-3.08,2.66,-3.10,2.65,-2.64,-2.72,-2.56,-5.73,-5.74,-5.74
351.23,-3.08,2.64,-3.08,2.65,-2.64,-2.72,-2.54,-5.73,-5.72,-5.72
354.74,-3.05,2.65,-3.06,2.65,-2.64,-2.72,-2.52,-5.70,-5.70,-5.71
358.28,-3.04,2.64,-3.04,2.65,-2.65,-2.72,-2.50,-5.70,-5.69,-5.69
361.87,-3.01,2.65,-3.01,2.66,-2.66,-2.71,-2.48,-5.67,-5.67,-5.67
365.49,-2.98,2.66,-2.99,2.67,-2.67,-2.71,-2.47,-5.65,-5.66,-5.65
369.14,-2.95,2.69,-2.95,2.68,-2.68,-2.71,-2.46,-5.64,-5.64,-5.64
372.83,-2.92,2.70,-2.92,2.70,-2.69,-2.71,-2.44,-5.62,-5.62,-5.62
376.56,-2.89,2.72,-2.89,2.71,-2.71,-2.72,-2.44,-5.60,-5.60,-5.61
380.33,-2.86,2.72,-2.86,2.73,-2.73,-2.72,-2.43,-5.59,-5.59,-5.58
384.13,-2.83,2.74,-2.83,2.74,-2.74,-2.72,-2.42,-5.58,-5.58,-5.58
387.97,-2.80,2.76,-2.80,2.76,-2.76,-2.72,-2.42,-5.57,-5.57,-5.57
391.85,-2.77,2.78,-2.77,2.78,-2.78,-2.73,-2.41,-5.55,-5.55,-5.56
395.77,-2.74,2.79,-2.74,2.80,-2.80,-2.73,-2.41,-5.54,-5.54,-5.54
399.73,-2.71,2.81,-2.72,2.81,-2.82,-2.73,-2.41,-5.53,-5.53,-5.53
403.72,-2.68,2.84,-2.69,2.83,-2.84,-2.74,-2.42,-5.52,-5.52,-5.52
407.76,-2.65,2.86,-2.65,2.86,-2.86,-2.75,-2.42,-5.51,-5.51,-5.51
411.84,-2.61,2.88,-2.62,2.88,-2.88,-2.75,-2.43,-5.49,-5.50,-5.49
415.96,-2.57,2.91,-2.59,2.90,-2.90,-2.76,-2.43,-5.47,-5.49,-5.48
420.12,-2.56,2.91,-2.55,2.92,-2.92,-2.76,-2.44,-5.49,-5.47,-5.47
424.32,-2.52,2.94,-2.52,2.94,-2.94,-2.77,-2.45,-5.47,-5.47,-5.46
428.56,-2.48,2.97,-2.50,2.96,-2.96,-2.78,-2.46,-5.45,-5.46,-5.45
432.85,-2.47,2.97,-2.46,2.98,-2.98,-2.79,-2.47,-5.45,-5.44,-5.45
