frequency,raw
20.00,-1.89
20.20,-1.86
20.40,-1.84
20.61,-1.82
20.81,-1.80
21.02,-1.78
21.23,-1.76
21.44,-1.74
21.66,-1.72
21.87,-1.71
22.09,-1.69
22.31,-1.68
22.54,-1.67
22.76,-1.66
22.99,-1.65
23.22,-1.64
23.45,-1.63
23.69,-1.62
23.92,-1.62
24.16,-1.61
24.40,-1.61
24.65,-1.60
24.89,-1.60
25.14,-1.59
25.39,-1.58
25.65,-1.58
25.91,-1.57
26.16,-1.57
26.43,-1.57
26.69,-1.56
26.96,-1.56
27.23,-1.55
27.50,-1.55
27.77,-1.55
28.05,-1.54
28.33,-1.54
28.62,-1.54
28.90,-1.53
29.19,-1.53
29.48,-1.53
29.78,-1.53
30.08,-1.53
30.38,-1.52
30.68,-1.52
30.99,-1.52
31.30,-1.52
31.61,-1.51
31.93,-1.51
32.24,-1.51
32.57,-1.50
32.89,-1.50
33.22,-1.50
33.55,-1.49
33.89,-1.49
34.23,-1.49
34.57,-1.48
34.92,-1.48
35.27,-1.48
35.62,-1.47
35.97,-1.47
36.33,-1.47
36.70,-1.47
37.06,-1.47
37.43,-1.46
37.81,-1.46
38.19,-1.46
38.57,-1.45
38.95,-1.45
39.34,-1.44
39.74,-1.44
40.14,-1.43
40.54,-1.43
40.94,-1.43
41.35,-1.43
41.76,-1.43
42.18,-1.43
42.60,-1.43
43.03,-1.44
43.46,-1.44
43.90,-1.44
44.33,-1.44
44.78,-1.44
45.23,-1.44
45.68,-1.44
46.13,-1.44
46.60,-1.44
47.06,-1.44
47.53,-1.43
48.01,-1.43
48.49,-1.43
48.97,-1.43
49.46,-1.43
49.96,-1.43
50.46,-1.43
50.96,-1.43
51.47,-1.44
51.99,-1.44
52.51,-1.44
53.03,-1.44
53.56,-1.44
54.10,-1.45
54.64,-1.45
55.18,-1.45
55.74,-1.46
56.29,-1.47
56.86,-1.47
57.42,-1.47
58.00,-1.49
58.58,-1.48
59.16,-1.48
59.76,-1.48
60.35,-1.47
60.96,-1.46
61.57,-1.45
62.18,-1.43
62.80,-1.42
63.43,-1.40
64.07,-1.38
64.71,-1.35
65.35,-1.33
66.01,-1.31
66.67,-1.29
67.33,-1.27
68.01,-1.24
68.69,-1.22
69.37,-1.20
70.07,-1.19
70.77,-1.17
71.48,-1.16
72.19,-1.15
72.91,-1.14
73.64,-1.14
74.38,-1.15
75.12,-1.15
75.87,-1.17
76.63,-1.18
77.40,-1.18
78.17,-1.19
78.95,-1.19
79.74,-1.19
80.54,-1.20
81.35,-1.20
82.16,-1.20
82.98,-1.20
83.81,-1.20
84.65,-1.21
85.50,-1.21
86.35,-1.21
87.22,-1.21
88.09,-1.21
88.97,-1.21
89.86,-1.21
90.76,-1.21
91.66,-1.21
92.58,-1.21
93.51,-1.21
94.44,-1.21
95.39,-1.21
96.34,-1.21
97.30,-1.22
98.28,-1.22
99.26,-1.22
100.25,-1.22
101.25,-1.22
102.27,-1.22
103.29,-1.22
104.32,-1.23
105.37,-1.23
106.42,-1.23
107.48,-1.24
108.56,-1.24
109.64,-1.24
110.74,-1.24
111.85,-1.24
112.97,-1.25
114.10,-1.25
115.24,-1.25
116.39,-1.25
117.55,-1.26
118.73,-1.26
119.92,-1.26
121.12,-1.26
122.33,-1.27
123.55,-1.27
124.79,-1.28
126.03,-1.28
127.29,-1.29
128.57,-1.29
129.85,-1.29
131.15,-1.29
132.46,-1.30
133.79,-1.30
135.12,-1.30
136.48,-1.30
137.84,-1.30
139.22,-1.30
140.61,-1.30
142.02,-1.31
143.44,-1.31
144.87,-1.31
146.32,-1.32
147.78,-1.32
149.26,-1.31
150.75,-1.31
152.26,-1.31
153.78,-1.31
155.32,-1.33
156.88,-1.36
158.44,-1.37
160.03,-1.41
161.63,-1.43
163.24,-1.47
164.88,-1.52
166.53,-1.54
168.19,-1.57
169.87,-1.62
171.57,-1.65
173.29,-1.67
175.02,-1.69
176.77,-1.71
178.54,-1.72
180.32,-1.71
182.13,-1.71
183.95,-1.70
185.79,-1.70
187.65,-1.70
189.52,-1.70
191.42,-1.70
193.33,-1.70
195.27,-1.70
197.22,-1.70
199.19,-1.70
201.18,-1.71
203.19,-1.71
205.23,-1.72
207.28,-1.72
209.35,-1.72
211.44,-1.73
213.56,-1.73
215.69,-1.73
217.85,-1.73
220.03,-1.74
222.23,-1.74
224.45,-1.74
226.70,-1.74
228.96,-1.75
231.25,-1.75
233.57,-1.75
235.90,-1.76
238.26,-1.76
240.64,-1.77
243.05,-1.78
245.48,-1.79
247.93,-1.79
250.41,-1.80
252.92,-1.81
255.45,-1.82
258.00,-1.82
260.58,-1.83
263.19,-1.83
265.82,-1.83
268.48,-1.84
271.16,-1.84
273.87,-1.84
276.61,-1.85
279.38,-1.85
282.17,-1.86
284.99,-1.86
287.84,-1.86
290.72,-1.86
293.63,-1.86
296.57,-1.86
299.53,-1.85
302.53,-1.84
305.55,-1.84
308.61,-1.86
311.69,-1.87
314.81,-1.89
317.96,-1.91
321.14,-1.95
324.35,-1.98
327.59,-2.02
330.87,-2.06
334.18,-2.11
337.52,-2.15
340.90,-2.18
344.30,-2.21
347.75,-2.23
351.23,-2.25
354.74,-2.28
358.28,-2.29
361.87,-2.28
365.49,-2.27
369.14,-2.26
372.83,-2.26
376.56,-2.27
380.33,-2.27
384.13,-2.27
387.97,-2.27
391.85,-2.28
395.77,-2.28
399.73,-2.29
403.72,-2.29
407.76,-2.30
411.84,-2.30
415.96,-2.31
420.12,-2.31
424.32,-2.31
428.56,-2.32
432.85,-2.32
437.18,-2.32
441.55,-2.32
445.96,-2.32
450.42,-2.32
454.93,-2.32
459.48,-2.32
464.07,-2.32
468.71,-2.32
473.40,-2.32
478.13,-2.33
482.91,-2.33
487.74,-2.33
492.62,-2.32
497.55,-2.33
502.52,-2.33
507.55,-2.32
512.62,-2.33
517.75,-2.35
522.93,-2.36
528.16,-2.38
533.44,-2.40
538.77,-2.44
544.16,-2.47
549.60,-2.51
555.10,-2.54
560.65,-2.57
566.25,-2.60
571.92,-2.64
577.64,-2.67
583.41,-2.68
589.25,-2.70
595.14,-2.72
601.09,-2.72
607.10,-2.72
613.17,-2.72
619.30,-2.72
625.50,-2.71
631.75,-2.71
638.07,-2.72
644.45,-2.72
650.89,-2.72
657.40,-2.73
663.98,-2.74
670.62,-2.75
677.32,-2.76
684.10,-2.75
690.94,-2.74
697.85,-2.72
704.83,-2.71
711.87,-2.68
718.99,-2.66
726.18,-2.63
733.44,-2.59
740.78,-2.56
748.19,-2.53
755.67,-2.50
763.23,-2.48
770.86,-2.45
778.57,-2.42
786.35,-2.41
794.22,-2.40
802.16,-2.40
810.18,-2.41
818.28,-2.42
826.46,-2.41
834.73,-2.41
843.08,-2.40
851.51,-2.39
860.02,-2.38
868.62,-2.37
877.31,-2.36
886.08,-2.34
894.94,-2.32
903.89,-2.30
912.93,-2.28
922.06,-2.25
931.28,-2.22
940.59,-2.19
950.00,-2.15
959.50,-2.12
969.09,-2.08
978.78,-2.04
988.57,-1.99
998.46,-1.94
1008.44,-1.89
1018.53,-1.83
1028.71,-1.77
1039.00,-1.70
1049.39,-1.63
1059.88,-1.56
1070.48,-1.49
1081.19,-1.42
1092.00,-1.34
1102.92,-1.25
1113.95,-1.16
1125.09,-1.07
1136.34,-0.98
1147.70,-0.89
1159.18,-0.80
1170.77,-0.71
1182.48,-0.62
1194.30,-0.54
1206.25,-0.46
1218.31,-0.38
1230.49,-0.29
1242.80,-0.21
1255.22,-0.13
1267.78,-0.06
1280.45,0.01
1293.26,0.08
1306.19,0.13
1319.25,0.18
1332.45,0.22
1345.77,0.27
1359.23,0.32
1372.82,0.37
1386.55,0.43
1400.41,0.49
1414.42,0.55
1428.56,0.60
1442.85,0.65
1457.28,0.71
1471.85,0.77
1486.57,0.83
1501.43,0.90
1516.45,0.97
1531.61,1.06
1546.93,1.16
1562.40,1.24
1578.02,1.34
1593.80,1.45
1609.74,1.56
1625.84,1.67
1642.10,1.79
1658.52,1.93
1675.10,2.08
1691.85,2.23
1708.77,2.39
1725.86,2.56
1743.12,2.73
1760.55,2.91
1778.15,3.09
1795.94,3.25
1813.90,3.43
1832.03,3.61
1850.36,3.80
1868.86,3.96
1887.55,4.09
1906.42,4.21
1925.49,4.30
1944.74,4.38
1964.19,4.42
1983.83,4.41
2003.67,4.36
2023.71,4.31
2043.94,4.20
2064.38,4.07
2085.03,3.90
2105.88,3.71
2126.94,3.49
2148.20,3.22
2169.69,2.96
2191.38,2.68
2213.30,2.40
2235.43,2.11
2257.78,1.82
2280.36,1.53
2303.17,1.23
2326.20,0.94
2349.46,0.67
2372.95,0.41
2396.68,0.18
2420.65,-0.06
2444.86,-0.26
2469.31,-0.45
2494.00,-0.64
2518.94,-0.81
2544.13,-0.96
2569.57,-1.10
2595.27,-1.23
2621.22,-1.34
2647.43,-1.42
2673.90,-1.49
2700.64,-1.56
2727.65,-1.62
2754.93,-1.67
2782.48,-1.70
2810.30,-1.73
2838.40,-1.75
2866.79,-1.78
2895.46,-1.81
2924.41,-1.83
2953.65,-1.87
2983.19,-1.93
3013.02,-2.02
3043.15,-2.16
3073.58,-2.33
3104.32,-2.53
3135.36,-2.80
3166.72,-3.11
3198.38,-3.46
3230.37,-3.87
3262.67,-4.31
3295.30,-4.80
3328.25,-5.32
3361.53,-5.87
3395.15,-6.43
3429.10,-7.01
3463.39,-7.60
3498.03,-8.19
3533.01,-8.76
3568.34,-9.36
3604.02,-9.92
3640.06,-10.48
3676.46,-11.02
3713.22,-11.58
3750.36,-12.08
3787.86,-12.59
3825.74,-13.09
3864.00,-13.54
3902.64,-14.01
3941.66,-14.45
3981.08,-14.89
4020.89,-15.32
4061.10,-15.75
4101.71,-16.19
4142.73,-16.62
4184.15,-17.06
4226.00,-17.51
4268.26,-17.95
4310.94,-18.38
4354.05,-18.82
4397.59,-19.22
4441.56,-19.57
4485.98,-19.88
4530.84,-20.13
4576.15,-20.33
4621.91,-20.47
4668.13,-20.54
4714.81,-20.56
4761.96,-20.52
4809.58,-20.43
4857.67,-20.30
4906.25,-20.16
4955.31,-20.00
5004.87,-19.82
5054.91,-19.62
5105.46,-19.45
5156.52,-19.29
5208.08,-19.16
5260.16,-19.05
5312.77,-19.00
5365.89,-18.99
5419.55,-19.00
5473.75,-19.04
5528.49,-19.11
5583.77,-19.21
5639.61,-19.35
5696.00,-19.52
5752.96,-19.71
5810.49,-19.90
5868.60,-20.14
5927.28,-20.41
5986.56,-20.72
6046.42,-21.07
6106.89,-21.47
6167.96,-21.91
6229.64,-22.42
6291.93,-22.98
6354.85,-23.59
6418.40,-24.24
6482.58,-24.92
6547.41,-25.61
6612.88,-26.26
6679.01,-26.89
6745.80,-27.46
6813.26,-28.00
6881.39,-28.45
6950.21,-28.84
7019.71,-29.16
7089.91,-29.41
7160.81,-29.60
7232.41,-29.76
7304.74,-29.92
7377.79,-30.13
7451.56,-30.42
7526.08,-30.79
7601.34,-31.29
7677.35,-31.90
7754.13,-32.59
7831.67,-33.35
7909.98,-34.12
7989.08,-34.90
8068.98,-35.66
8149.67,-36.38
8231.16,-37.04
8313.47,-37.64
8396.61,-38.13
8480.57,-38.55
8565.38,-38.88
8651.03,-39.13
8737.54,-39.31
8824.92,-39.44
8913.17,-39.56
9002.30,-39.70
9092.32,-39.88
9183.25,-40.10
9275.08,-40.34
9367.83,-40.57
9461.51,-40.83
9556.12,-41.09
9651.68,-41.37
9748.20,-41.64
9845.68,-41.94
9944.14,-42.26
10043.58,-42.60
10144.02,-42.96
10245.46,-43.35
10347.91,-43.75
10451.39,-44.15
10555.91,-44.56
10661.46,-44.96
10768.08,-45.33
10875.76,-45.66
10984.52,-45.94
11094.36,-46.16
11205.31,-46.31
11317.36,-46.36
11430.53,-46.31
11544.84,-46.18
11660.29,-45.98
11776.89,-45.72
11894.66,-45.40
12013.60,-45.03
12133.74,-44.62
12255.08,-44.17
12377.63,-43.69
12501.41,-43.21
12626.42,-42.74
12752.68,-42.28
12880.21,-41.85
13009.01,-41.42
13139.10,-41.05
13270.49,-40.73
13403.20,-40.46
13537.23,-40.24
13672.60,-40.08
13809.33,-39.97
13947.42,-39.95
14086.90,-39.98
14227.77,-40.08
14370.04,-40.24
14513.74,-40.46
14658.88,-40.71
14805.47,-40.99
14953.52,-41.29
15103.06,-41.63
15254.09,-42.01
15406.63,-42.43
15560.70,-42.87
15716.30,-43.34
15873.47,-43.83
16032.20,-44.32
16192.52,-44.82
16354.45,-45.31
16517.99,-45.76
16683.17,-46.13
16850.01,-46.42
17018.51,-46.61
17188.69,-46.67
17360.58,-46.58
17534.18,-46.35
17709.53,-46.04
17886.62,-45.62
18065.49,-45.20
18246.14,-44.82
18428.60,-44.43
18612.89,-44.00
18799.02,-43.51
18987.01,-42.98
19176.88,-42.41
19368.65,-41.79
19562.33,-41.11
19757.96,-40.39
19955.54,-39.63
