frequency,raw,error,smoothed,error_smoothed,equalization,parametric_eq,fixed_band_eq,equalized_raw,equalized_smoothed,target
20.00,-2.18,-7.28,-2.19,-7.29,6.00,5.69,2.71,3.82,3.81,5.10
20.20,-2.15,-7.24,-2.15,-7.23,6.00,5.71,2.79,3.85,3.85,5.09
20.40,-2.11,-7.18,-2.11,-7.18,6.00,5.73,2.87,3.89,3.89,5.07
20.61,-2.08,-7.14,-2.08,-7.13,6.00,5.75,2.95,3.92,3.92,5.06
20.81,-2.04,-7.08,-2.04,-7.08,6.00,5.76,3.04,3.96,3.96,5.04
21.02,-2.01,-7.04,-2.02,-7.05,6.00,5.78,3.13,3.99,3.98,5.03
21.23,-2.01,-7.03,-2.01,-7.02,6.00,5.80,3.22,3.99,3.99,5.02
21.44,-2.00,-7.01,-2.00,-7.00,6.00,5.81,3.31,4.00,4.00,5.00
21.66,-2.00,-6.99,-2.00,-6.99,6.00,5.83,3.40,4.00,4.00,4.98
21.87,-1.99,-6.98,-1.99,-6.97,6.00,5.85,3.50,4.01,4.01,4.98
22.09,-1.98,-6.96,-1.98,-6.96,6.00,5.86,3.60,4.02,4.02,4.97
22.31,-1.97,-6.93,-1.97,-6.93,6.00,5.88,3.71,4.03,4.03,4.96
22.54,-1.96,-6.91,-1.96,-6.91,6.00,5.89,3.81,4.04,4.04,4.95
22.76,-1.94,-6.88,-1.94,-6.89,6.00,5.91,3.92,4.06,4.06,4.94
22.99,-1.93,-6.87,-1.93,-6.87,6.00,5.92,4.03,4.07,4.07,4.94
23.22,-1.92,-6.85,-1.92,-6.86,6.00,5.94,4.15,4.08,4.08,4.93
23.45,-1.92,-6.85,-1.92,-6.85,6.00,5.95,4.26,4.08,4.08,4.93
23.69,-1.91,-6.84,-1.91,-6.84,6.00,5.96,4.38,4.09,4.09,4.93
23.92,-1.90,-6.83,-1.90,-6.83,6.00,5.97,4.50,4.10,4.10,4.93
24.16,-1.88,-6.81,-1.88,-6.81,6.00,5.99,4.63,4.12,4.12,4.93
24.40,-1.86,-6.79,-1.86,-6.79,6.00,6.00,4.75,4.14,4.14,4.93
24.65,-1.83,-6.76,-1.83,-6.76,6.00,6.01,4.88,4.17,4.17,4.93
24.89,-1.81,-6.74,-1.81,-6.74,6.00,6.02,5.01,4.19,4.19,4.93
25.14,-1.79,-6.72,-1.79,-6.72,6.00,6.03,5.14,4.21,4.21,4.93
25.39,-1.77,-6.70,-1.77,-6.69,6.00,6.04,5.27,4.23,4.23,4.92
25.65,-1.75,-6.67,-1.75,-6.67,6.00,6.05,5.40,4.25,4.25,4.91
25.91,-1.73,-6.65,-1.73,-6.65,6.00,6.06,5.54,4.27,4.27,4.91
26.16,-1.72,-6.62,-1.72,-6.63,6.00,6.07,5.67,4.28,4.28,4.90
26.43,-1.71,-6.61,-1.71,-6.61,6.00,6.08,5.80,4.29,4.29,4.90
26.69,-1.71,-6.60,-1.71,-6.60,6.00,6.09,5.94,4.29,4.29,4.89
26.96,-1.70,-6.58,-1.70,-6.59,6.00,6.09,6.07,4.30,4.30,4.88
27.23,-1.70,-6.58,-1.70,-6.58,6.00,6.10,6.19,4.30,4.30,4.88
27.50,-1.70,-6.57,-1.70,-6.57,6.00,6.11,6.32,4.30,4.30,4.87
27.77,-1.70,-6.56,-1.70,-6.56,6.00,6.11,6.44,4.30,4.30,4.86
28.05,-1.70,-6.55,-1.70,-6.55,6.00,6.12,6.56,4.30,4.30,4.84
28.33,-1.70,-6.55,-1.70,-6.55,6.00,6.13,6.67,4.30,4.30,4.84
28.62,-1.70,-6.54,-1.70,-6.54,6.00,6.13,6.78,4.30,4.30,4.84
28.90,-1.70,-6.53,-1.70,-6.53,6.00,6.14,6.88,4.30,4.30,4.83
29.19,-1.68,-6.52,-1.68,-6.52,6.00,6.14,6.97,4.32,4.32,4.84
29.48,-1.66,-6.50,-1.66,-6.50,6.00,6.14,7.06,4.34,4.34,4.84
29.78,-1.63,-6.47,-1.63,-6.47,6.00,6.15,7.13,4.37,4.37,4.84
30.08,-1.60,-6.44,-1.60,-6.44,6.00,6.15,7.20,4.40,4.40,4.84
30.38,-1.57,-6.41,-1.57,-6.40,6.00,6.15,7.26,4.43,4.43,4.83
30.68,-1.54,-6.37,-1.54,-6.37,6.00,6.16,7.30,4.46,4.46,4.83
30.99,-1.51,-6.34,-1.52,-6.35,6.00,6.16,7.34,4.49,4.48,4.83
31.30,-1.51,-6.34,-1.51,-6.34,6.00,6.16,7.37,4.49,4.49,4.83
31.61,-1.51,-6.34,-1.51,-6.33,6.00,6.16,7.38,4.49,4.49,4.83
31.93,-1.51,-6.34,-1.51,-6.33,6.00,6.16,7.39,4.49,4.49,4.82
32.24,-1.51,-6.32,-1.51,-6.33,6.00,6.16,7.39,4.49,4.49,4.81
32.57,-1.51,-6.32,-1.51,-6.32,6.00,6.16,7.37,4.49,4.49,4.81
32.89,-1.51,-6.32,-1.51,-6.32,6.00,6.16,7.35,4.49,4.49,4.81
33.22,-1.51,-6.32,-1.51,-6.32,6.00,6.16,7.32,4.49,4.49,4.80
33.55,-1.51,-6.31,-1.51,-6.31,6.00,6.16,7.28,4.49,4.49,4.80
33.89,-1.51,-6.30,-1.51,-6.30,6.00,6.16,7.23,4.49,4.49,4.79
34.23,-1.51,-6.30,-1.51,-6.30,6.00,6.15,7.17,4.49,4.49,4.79
34.57,-1.51,-6.30,-1.51,-6.29,6.00,6.15,7.11,4.49,4.49,4.78
34.92,-1.51,-6.29,-1.51,-6.29,6.00,6.15,7.05,4.49,4.49,4.78
35.27,-1.51,-6.29,-1.51,-6.29,6.00,6.14,6.98,4.49,4.49,4.78
35.62,-1.51,-6.29,-1.51,-6.28,6.00,6.14,6.91,4.49,4.49,4.78
35.97,-1.51,-6.27,-1.50,-6.27,6.00,6.13,6.83,4.49,4.50,4.76
36.33,-1.48,-6.24,-1.48,-6.24,6.00,6.13,6.76,4.52,4.52,4.76
36.70,-1.45,-6.21,-1.45,-6.21,6.00,6.12,6.68,4.55,4.55,4.76
37.06,-1.41,-6.16,-1.41,-6.16,6.00,6.12,6.60,4.59,4.59,4.75
37.43,-1.38,-6.12,-1.38,-6.12,6.00,6.11,6.52,4.62,4.63,4.74
37.81,-1.34,-6.08,-1.35,-6.08,6.00,6.10,6.44,4.66,4.66,4.73
38.19,-1.32,-6.04,-1.33,-6.05,6.00,6.10,6.36,4.68,4.67,4.72
38.57,-1.32,-6.03,-1.32,-6.03,6.00,6.09,6.29,4.68,4.68,4.71
38.95,-1.32,-6.01,-1.32,-6.01,6.00,6.08,6.21,4.67,4.68,4.69
39.34,-1.32,-6.01,-1.32,-6.00,5.99,6.07,6.14,4.67,4.67,4.69
39.74,-1.32,-5.99,-1.32,-5.99,5.99,6.06,6.07,4.66,4.66,4.67
40.14,-1.32,-5.98,-1.32,-5.98,5.98,6.05,6.01,4.66,4.66,4.66
40.54,-1.32,-5.96,-1.32,-5.97,5.97,6.04,5.95,4.65,4.65,4.64
40.94,-1.32,-5.96,-1.32,-5.96,5.96,6.03,5.89,4.64,4.64,4.64
41.35,-1.32,-5.95,-1.32,-5.95,5.95,6.02,5.83,4.63,4.63,4.63
41.76,-1.32,-5.95,-1.32,-5.95,5.95,6.01,5.78,4.62,4.62,4.62
42.18,-1.32,-5.94,-1.32,-5.94,5.94,6.00,5.73,4.62,4.62,4.62
42.60,-1.32,-5.93,-1.32,-5.93,5.93,5.98,5.69,4.61,4.61,4.61
43.03,-1.32,-5.93,-1.32,-5.93,5.93,5.97,5.65,4.61,4.61,4.61
43.46,-1.32,-5.92,-1.32,-5.92,5.92,5.96,5.61,4.60,4.60,4.60
43.90,-1.32,-5.92,-1.32,-5.92,5.92,5.94,5.58,4.60,4.60,4.60
44.33,-1.32,-5.92,-1.32,-5.91,5.91,5.93,5.55,4.59,4.59,4.59
44.78,-1.32,-5.91,-1.32,-5.91,5.91,5.91,5.53,4.59,4.59,4.59
45.23,-1.32,-5.90,-1.32,-5.90,5.90,5.90,5.51,4.58,4.58,4.58
45.68,-1.32,-5.89,-1.32,-5.89,5.89,5.88,5.49,4.57,4.57,4.57
46.13,-1.32,-5.88,-1.32,-5.88,5.88,5.87,5.48,4.56,4.56,4.56
46.60,-1.32,-5.87,-1.32,-5.88,5.87,5.85,5.47,4.55,4.55,4.55
47.06,-1.32,-5.87,-1.32,-5.86,5.86,5.83,5.47,4.54,4.54,4.54
47.53,-1.32,-5.86,-1.32,-5.85,5.85,5.81,5.47,4.53,4.53,4.53
48.01,-1.32,-5.84,-1.32,-5.84,5.84,5.79,5.48,4.52,4.52,4.51
48.49,-1.32,-5.83,-1.32,-5.82,5.82,5.78,5.48,4.50,4.50,4.50
48.97,-1.32,-5.81,-1.32,-5.81,5.81,5.76,5.49,4.49,4.49,4.48
49.46,-1.32,-5.79,-1.32,-5.79,5.80,5.74,5.51,4.48,4.48,4.47
49.96,-1.32,-5.78,-1.32,-5.78,5.79,5.72,5.52,4.47,4.47,4.46
50.46,-1.32,-5.77,-1.32,-5.77,5.77,5.70,5.54,4.45,4.45,4.45
50.96,-1.32,-5.77,-1.32,-5.77,5.76,5.67,5.56,4.44,4.44,4.45
51.47,-1.32,-5.76,-1.32,-5.76,5.75,5.65,5.59,4.43,4.43,4.43
51.99,-1.32,-5.74,-1.32,-5.74,5.74,5.63,5.61,4.42,4.42,4.42
52.51,-1.32,-5.72,-1.32,-5.72,5.72,5.61,5.64,4.40,4.40,4.40
53.03,-1.32,-5.71,-1.32,-5.71,5.71,5.58,5.67,4.39,4.39,4.38
53.56,-1.32,-5.69,-1.32,-5.69,5.69,5.56,5.69,4.37,4.37,4.37
54.10,-1.32,-5.68,-1.32,-5.68,5.68,5.54,5.72,4.35,4.35,4.35
54.64,-1.32,-5.66,-1.32,-5.66,5.66,5.51,5.75,4.34,4.34,4.34
55.18,-1.32,-5.64,-1.32,-5.64,5.65,5.48,5.78,4.32,4.32,4.32
55.74,-1.32,-5.63,-1.32,-5.63,5.63,5.46,5.80,4.31,4.31,4.31
56.29,-1.32,-5.61,-1.32,-5.61,5.62,5.43,5.82,4.29,4.29,4.29
56.86,-1.32,-5.59,-1.32,-5.59,5.59,5.41,5.84,4.27,4.27,4.27
57.42,-1.32,-5.57,-1.32,-5.58,5.57,5.38,5.86,4.25,4.25,4.25
58.00,-1.32,-5.56,-1.33,-5.56,5.54,5.35,5.87,4.22,4.22,4.23
58.58,-1.32,-5.54,-1.31,-5.53,5.51,5.32,5.88,4.19,4.20,4.21
59.16,-1.30,-5.49,-1.29,-5.48,5.48,5.29,5.89,4.18,4.19,4.19
59.76,-1.24,-5.41,-1.26,-5.43,5.44,5.26,5.89,4.20,4.19,4.17
60.35,-1.22,-5.37,-1.23,-5.39,5.40,5.23,5.88,4.18,4.17,4.15
60.96,-1.22,-5.36,-1.22,-5.36,5.36,5.20,5.87,4.14,4.14,4.14
61.57,-1.22,-5.34,-1.21,-5.33,5.31,5.17,5.86,4.09,4.10,4.12
62.18,-1.20,-5.29,-1.19,-5.28,5.27,5.14,5.83,4.07,4.08,4.09
62.80,-1.15,-5.21,-1.16,-5.22,5.22,5.11,5.81,4.07,4.06,4.06
63.43,-1.13,-5.16,-1.14,-5.17,5.18,5.07,5.77,4.05,4.04,4.03
64.07,-1.13,-5.13,-1.13,-5.13,5.14,5.04,5.73,4.01,4.02,4.00
64.71,-1.13,-5.10,-1.13,-5.10,5.10,5.01,5.68,3.97,3.97,3.97
65.35,-1.13,-5.07,-1.13,-5.07,5.07,4.97,5.63,3.93,3.93,3.93
66.01,-1.13,-5.04,-1.13,-5.04,5.03,4.94,5.57,3.90,3.90,3.91
66.67,-1.13,-5.00,-1.13,-5.00,5.00,4.90,5.51,3.86,3.86,3.87
67.33,-1.13,-4.97,-1.13,-4.97,4.96,4.87,5.44,3.83,3.83,3.84
68.01,-1.13,-4.93,-1.13,-4.93,4.93,4.83,5.37,3.80,3.80,3.80
68.69,-1.13,-4.90,-1.13,-4.89,4.89,4.80,5.30,3.76,3.76,3.76
69.37,-1.13,-4.85,-1.13,-4.86,4.86,4.76,5.22,3.72,3.72,3.72
70.07,-1.13,-4.82,-1.13,-4.82,4.82,4.72,5.13,3.69,3.69,3.69
70.77,-1.13,-4.78,-1.13,-4.78,4.78,4.68,5.05,3.65,3.65,3.65
71.48,-1.13,-4.74,-1.13,-4.74,4.74,4.65,4.96,3.61,3.61,3.61
72.19,-1.13,-4.70,-1.13,-4.70,4.70,4.61,4.87,3.57,3.57,3.57
72.91,-1.13,-4.66,-1.13,-4.66,4.66,4.57,4.78,3.53,3.53,3.53
73.64,-1.13,-4.62,-1.13,-4.62,4.62,4.53,4.69,3.49,3.49,3.49
74.38,-1.13,-4.59,-1.13,-4.58,4.58,4.49,4.60,3.45,3.45,3.45
75.12,-1.13,-4.55,-1.13,-4.54,4.55,4.45,4.51,3.42,3.42,3.41
75.87,-1.13,-4.50,-1.13,-4.50,4.52,4.41,4.42,3.39,3.39,3.36
76.63,-1.14,-4.47,-1.15,-4.48,4.49,4.36,4.33,3.35,3.34,3.32
77.40,-1.17,-4.45,-1.18,-4.46,4.46,4.32,4.24,3.29,3.28,3.28
78.17,-1.22,-4.46,-1.20,-4.44,4.43,4.28,4.15,3.21,3.22,3.24
78.95,-1.22,-4.42,-1.22,-4.42,4.39,4.24,4.06,3.17,3.17,3.20
79.74,-1.22,-4.37,-1.23,-4.38,4.36,4.19,3.98,3.14,3.14,3.15
80.54,-1.22,-4.33,-1.22,-4.33,4.33,4.15,3.90,3.11,3.11,3.11
81.35,-1.22,-4.28,-1.21,-4.28,4.30,4.11,3.81,3.08,3.09,3.06
82.16,-1.22,-4.24,-1.22,-4.24,4.26,4.06,3.73,3.04,3.04,3.02
82.98,-1.22,-4.18,-1.25,-4.21,4.23,4.02,3.66,3.01,2.98,2.96
83.81,-1.30,-4.21,-1.28,-4.19,4.19,3.97,3.58,2.89,2.91,2.91
84.65,-1.32,-4.18,-1.31,-4.17,4.15,3.93,3.51,2.83,2.84,2.86
85.50,-1.32,-4.12,-1.33,-4.13,4.11,3.88,3.44,2.79,2.78,2.80
86.35,-1.32,-4.07,-1.32,-4.07,4.07,3.83,3.37,2.74,2.74,2.75
87.22,-1.32,-4.01,-1.32,-4.02,4.02,3.79,3.30,2.70,2.70,2.69
88.09,-1.32,-3.96,-1.32,-3.96,3.96,3.74,3.24,2.64,2.64,2.64
88.97,-1.32,-3.90,-1.32,-3.90,3.90,3.69,3.18,2.58,2.58,2.58
89.86,-1.32,-3.84,-1.32,-3.84,3.84,3.65,3.12,2.52,2.52,2.51
90.76,-1.31,-3.77,-1.31,-3.77,3.77,3.60,3.06,2.46,2.46,2.46
91.66,-1.31,-3.71,-1.31,-3.71,3.71,3.55,3.01,2.40,2.40,2.40
92.58,-1.31,-3.64,-1.31,-3.64,3.64,3.50,2.96,2.33,2.33,2.33
93.51,-1.31,-3.58,-1.31,-3.58,3.58,3.45,2.91,2.27,2.27,2.27
94.44,-1.31,-3.51,-1.31,-3.52,3.52,3.40,2.86,2.20,2.20,2.20
95.39,-1.31,-3.45,-1.31,-3.45,3.45,3.35,2.82,2.14,2.14,2.14
96.34,-1.32,-3.39,-1.32,-3.39,3.39,3.31,2.77,2.07,2.07,2.07
97.30,-1.32,-3.32,-1.32,-3.32,3.32,3.26,2.73,2.00,2.00,1.99
98.28,-1.33,-3.26,-1.33,-3.26,3.26,3.21,2.69,1.93,1.93,1.93
99.26,-1.35,-3.20,-1.35,-3.20,3.20,3.16,2.66,1.85,1.85,1.85
100.25,-1.36,-3.13,-1.36,-3.14,3.13,3.11,2.62,1.77,1.77,1.77
101.25,-1.38,-3.08,-1.38,-3.07,3.07,3.06,2.59,1.69,1.69,1.70
102.27,-1.39,-3.01,-1.39,-3.01,3.01,3.01,2.56,1.62,1.62,1.62
103.29,-1.41,-2.95,-1.41,-2.95,2.95,2.95,2.52,1.54,1.54,1.54
104.32,-1.43,-2.89,-1.43,-2.89,2.89,2.90,2.49,1.46,1.46,1.46
105.37,-1.45,-2.83,-1.45,-2.83,2.83,2.85,2.47,1.38,1.38,1.37
106.42,-1.47,-2.77,-1.47,-2.77,2.77,2.80,2.44,1.30,1.30,1.30
107.48,-1.50,-2.72,-1.50,-2.71,2.72,2.75,2.41,1.22,1.22,1.22
108.56,-1.52,-2.66,-1.52,-2.66,2.66,2.70,2.39,1.14,1.14,1.14
109.64,-1.54,-2.60,-1.54,-2.61,2.61,2.65,2.36,1.07,1.07,1.06
110.74,-1.56,-2.56,-1.56,-2.55,2.55,2.60,2.34,0.99,0.99,1.00
111.85,-1.58,-2.50,-1.58,-2.50,2.50,2.55,2.31,0.92,0.92,0.92
112.97,-1.59,-2.44,-1.59,-2.44,2.44,2.50,2.29,0.85,0.85,0.85
114.10,-1.60,-2.39,-1.60,-2.38,2.38,2.45,2.27,0.78,0.78,0.79
115.24,-1.60,-2.32,-1.60,-2.32,2.32,2.40,2.24,0.72,0.72,0.72
116.39,-1.60,-2.25,-1.60,-2.26,2.25,2.35,2.22,0.65,0.65,0.65
117.55,-1.59,-2.19,-1.60,-2.19,2.19,2.30,2.19,0.60,0.59,0.60
118.73,-1.59,-2.12,-1.59,-2.12,2.12,2.25,2.17,0.53,0.54,0.53
119.92,-1.58,-2.06,-1.58,-2.06,2.06,2.20,2.14,0.48,0.48,0.48
121.12,-1.57,-1.99,-1.58,-1.99,2.00,2.15,2.12,0.42,0.42,0.41
122.33,-1.57,-1.93,-1.57,-1.93,1.93,2.10,2.09,0.36,0.36,0.36
123.55,-1.56,-1.88,-1.56,-1.87,1.87,2.05,2.06,0.31,0.31,0.32
124.79,-1.55,-1.82,-1.55,-1.81,1.81,2.00,2.03,0.26,0.26,0.26
126.03,-1.54,-1.74,-1.54,-1.75,1.76,1.95,2.00,0.21,0.21,0.20
127.29,-1.54,-1.70,-1.54,-1.70,1.70,1.90,1.97,0.16,0.16,0.16
128.57,-1.53,-1.64,-1.53,-1.64,1.64,1.85,1.94,0.11,0.11,0.11
129.85,-1.53,-1.59,-1.53,-1.59,1.59,1.80,1.91,0.06,0.06,0.06
131.15,-1.52,-1.53,-1.52,-1.54,1.53,1.75,1.87,0.01,0.01,0.01
132.46,-1.52,-1.49,-1.52,-1.48,1.48,1.71,1.84,-0.04,-0.04,-0.04
133.79,-1.51,-1.42,-1.51,-1.42,1.42,1.66,1.80,-0.09,-0.10,-0.09
135.12,-1.51,-1.37,-1.51,-1.37,1.36,1.61,1.76,-0.15,-0.15,-0.14
136.48,-1.50,-1.32,-1.50,-1.31,1.31,1.56,1.73,-0.20,-0.20,-0.19
137.84,-1.50,-1.26,-1.50,-1.26,1.26,1.52,1.69,-0.24,-0.24,-0.24
139.22,-1.50,-1.22,-1.49,-1.21,1.23,1.47,1.65,-0.27,-0.27,-0.29
140.61,-1.50,-1.16,-1.49,-1.15,1.20,1.43,1.61,-0.30,-0.30,-0.34
142.02,-1.50,-1.11,-1.53,-1.14,1.17,1.38,1.57,-0.33,-0.36,-0.39
143.44,-1.57,-1.13,-1.59,-1.15,1.15,1.34,1.53,-0.42,-0.43,-0.44
144.87,-1.68,-1.20,-1.64,-1.16,1.13,1.29,1.49,-0.55,-0.52,-0.48
146.32,-1.69,-1.16,-1.69,-1.15,1.11,1.25,1.45,-0.59,-0.58,-0.53
147.78,-1.69,-1.10,-1.70,-1.11,1.08,1.21,1.41,-0.61,-0.62,-0.59
149.26,-1.69,-1.05,-1.69,-1.05,1.05,1.16,1.37,-0.64,-0.64,-0.64
150.75,-1.69,-1.00,-1.69,-1.00,1.02,1.12,1.33,-0.68,-0.68,-0.69
152.26,-1.69,-0.96,-1.69,-0.96,0.97,1.08,1.29,-0.72,-0.72,-0.74
153.78,-1.69,-0.92,-1.69,-0.92,0.93,1.04,1.25,-0.77,-0.77,-0.77
155.32,-1.69,-0.87,-1.69,-0.87,0.88,1.00,1.21,-0.81,-0.81,-0.82
156.88,-1.69,-0.83,-1.69,-0.83,0.83,0.96,1.17,-0.86,-0.86,-0.86
158.44,-1.69,-0.80,-1.69,-0.79,0.79,0.92,1.13,-0.90,-0.90,-0.89
160.03,-1.69,-0.75,-1.69,-0.75,0.75,0.88,1.09,-0.94,-0.94,-0.94
161.63,-1.69,-0.71,-1.69,-0.71,0.71,0.84,1.05,-0.98,-0.98,-0.98
163.24,-1.69,-0.67,-1.69,-0.67,0.67,0.80,1.01,-1.02,-1.02,-1.02
164.88,-1.69,-0.63,-1.69,-0.63,0.64,0.77,0.97,-1.05,-1.06,-1.06
166.53,-1.70,-0.60,-1.70,-0.60,0.60,0.73,0.94,-1.10,-1.09,-1.10
168.19,-1.70,-0.57,-1.70,-0.57,0.57,0.70,0.90,-1.13,-1.14,-1.14
169.87,-1.71,-0.54,-1.71,-0.54,0.54,0.66,0.86,-1.17,-1.17,-1.17
171.57,-1.72,-0.51,-1.72,-0.51,0.51,0.63,0.83,-1.22,-1.21,-1.21
173.29,-1.72,-0.47,-1.73,-0.48,0.48,0.59,0.79,-1.25,-1.25,-1.25
175.02,-1.73,-0.45,-1.73,-0.45,0.44,0.56,0.76,-1.29,-1.28,-1.28
176.77,-1.73,-0.42,-1.73,-0.42,0.42,0.53,0.72,-1.31,-1.32,-1.31
178.54,-1.73,-0.39,-1.73,-0.39,0.39,0.50,0.69,-1.34,-1.34,-1.34
180.32,-1.73,-0.37,-1.73,-0.36,0.37,0.47,0.65,-1.36,-1.36,-1.36
182.13,-1.72,-0.34,-1.72,-0.33,0.35,0.44,0.62,-1.37,-1.37,-1.39
183.95,-1.72,-0.31,-1.73,-0.32,0.33,0.41,0.59,-1.39,-1.40,-1.41
185.79,-1.73,-0.29,-1.74,-0.31,0.31,0.38,0.56,-1.42,-1.43,-1.44
187.65,-1.77,-0.32,-1.76,-0.31,0.29,0.35,0.53,-1.48,-1.46,-1.45
189.52,-1.77,-0.30,-1.76,-0.29,0.28,0.32,0.49,-1.49,-1.48,-1.47
191.42,-1.76,-0.27,-1.76,-0.27,0.27,0.29,0.46,-1.49,-1.49,-1.49
193.33,-1.74,-0.23,-1.76,-0.25,0.27,0.27,0.43,-1.47,-1.49,-1.51
195.27,-1.76,-0.25,-1.77,-0.25,0.26,0.24,0.40,-1.50,-1.51,-1.51
197.22,-1.79,-0.26,-1.78,-0.25,0.25,0.22,0.37,-1.55,-1.54,-1.53
199.19,-1.80,-0.25,-1.80,-0.25,0.23,0.19,0.34,-1.57,-1.56,-1.55
201.18,-1.79,-0.23,-1.80,-0.23,0.22,0.17,0.32,-1.57,-1.58,-1.57
203.19,-1.79,-0.21,-1.79,-0.21,0.21,0.15,0.29,-1.59,-1.58,-1.58
205.23,-1.78,-0.19,-1.78,-0.19,0.19,0.13,0.26,-1.59,-1.59,-1.60
207.28,-1.78,-0.17,-1.78,-0.17,0.17,0.10,0.23,-1.61,-1.61,-1.61
209.35,-1.78,-0.15,-1.78,-0.15,0.15,0.08,0.21,-1.63,-1.63,-1.64
211.44,-1.79,-0.14,-1.79,-0.14,0.14,0.06,0.18,-1.66,-1.65,-1.65
213.56,-1.79,-0.13,-1.79,-0.13,0.12,0.04,0.16,-1.67,-1.67,-1.66
215.69,-1.79,-0.11,-1.79,-0.11,0.12,0.03,0.13,-1.67,-1.67,-1.68
217.85,-1.80,-0.10,-1.80,-0.10,0.12,0.01,0.11,-1.68,-1.68,-1.70
220.03,-1.80,-0.08,-1.82,-0.11,0.12,-0.01,0.08,-1.68,-1.70,-1.72
222.23,-1.86,-0.13,-1.86,-0.13,0.12,-0.03,0.06,-1.74,-1.73,-1.73
224.45,-1.90,-0.16,-1.89,-0.14,0.12,-0.04,0.04,-1.78,-1.76,-1.74
226.70,-1.90,-0.15,-1.91,-0.15,0.12,-0.06,0.02,-1.78,-1.78,-1.75
228.96,-1.90,-0.14,-1.90,-0.14,0.13,-0.07,-0.00,-1.77,-1.77,-1.76
231.25,-1.89,-0.13,-1.89,-0.12,0.13,-0.09,-0.02,-1.76,-1.75,-1.76
233.57,-1.88,-0.11,-1.88,-0.11,0.14,-0.10,-0.04,-1.74,-1.74,-1.77
235.90,-1.87,-0.10,-1.89,-0.12,0.14,-0.12,-0.06,-1.73,-1.75,-1.77
238.26,-1.91,-0.13,-1.91,-0.13,0.14,-0.13,-0.07,-1.78,-1.77,-1.78
240.64,-1.93,-0.16,-1.92,-0.15,0.13,-0.14,-0.09,-1.80,-1.79,-1.77
243.05,-1.92,-0.15,-1.92,-0.15,0.13,-0.15,-0.10,-1.79,-1.79,-1.77
245.48,-1.90,-0.14,-1.90,-0.14,0.13,-0.16,-0.12,-1.77,-1.77,-1.77
247.93,-1.87,-0.11,-1.87,-0.11,0.12,-0.17,-0.13,-1.75,-1.75,-1.76
250.41,-1.85,-0.09,-1.85,-0.09,0.10,-0.19,-0.14,-1.75,-1.75,-1.76
252.92,-1.83,-0.07,-1.84,-0.08,0.07,-0.19,-0.15,-1.76,-1.77,-1.76
255.45,-1.82,-0.07,-1.83,-0.07,0.03,-0.20,-0.16,-1.79,-1.80,-1.75
258.00,-1.81,-0.05,-1.79,-0.03,-0.00,-0.21,-0.17,-1.82,-1.79,-1.76
260.58,-1.74,0.03,-1.72,0.04,-0.03,-0.22,-0.18,-1.78,-1.76,-1.77
263.19,-1.64,0.13,-1.67,0.10,-0.06,-0.23,-0.18,-1.70,-1.73,-1.77
265.82,-1.62,0.17,-1.65,0.13,-0.08,-0.24,-0.19,-1.71,-1.73,-1.79
268.48,-1.69,0.10,-1.67,0.13,-0.10,-0.24,-0.20,-1.80,-1.77,-1.80
271.16,-1.72,0.09,-1.71,0.11,-0.12,-0.25,-0.20,-1.84,-1.83,-1.81
273.87,-1.72,0.10,-1.73,0.09,-0.13,-0.26,-0.20,-1.85,-1.86,-1.83
276.61,-1.72,0.11,-1.73,0.11,-0.13,-0.26,-0.21,-1.85,-1.86,-1.83
279.38,-1.72,0.11,-1.72,0.12,-0.13,-0.27,-0.21,-1.85,-1.85,-1.84
282.17,-1.72,0.13,-1.71,0.13,-0.12,-0.27,-0.21,-1.84,-1.83,-1.85
284.99,-1.71,0.14,-1.72,0.14,-0.12,-0.28,-0.21,-1.83,-1.83,-1.86
287.84,-1.71,0.15,-1.73,0.13,-0.12,-0.28,-0.21,-1.83,-1.85,-1.86
290.72,-1.76,0.11,-1.75,0.12,-0.12,-0.29,-0.21,-1.88,-1.87,-1.87
293.63,-1.78,0.10,-1.77,0.11,-0.12,-0.29,-0.21,-1.91,-1.89,-1.88
296.57,-1.77,0.11,-1.77,0.11,-0.13,-0.29,-0.21,-1.90,-1.90,-1.88
299.53,-1.75,0.12,-1.76,0.12,-0.13,-0.29,-0.21,-1.88,-1.89,-1.88
302.53,-1.74,0.14,-1.74,0.14,-0.14,-0.30,-0.21,-1.88,-1.88,-1.88
305.55,-1.73,0.16,-1.73,0.16,-0.15,-0.30,-0.21,-1.88,-1.88,-1.89
308.61,-1.72,0.17,-1.72,0.17,-0.16,-0.30,-0.21,-1.89,-1.89,-1.90
311.69,-1.72,0.18,-1.72,0.19,-0.18,-0.30,-0.20,-1.90,-1.90,-1.90
314.81,-1.71,0.20,-1.71,0.19,-0.19,-0.31,-0.20,-1.90,-1.91,-1.91
317.96,-1.71,0.20,-1.71,0.20,-0.20,-0.31,-0.20,-1.92,-1.92,-1.91
321.14,-1.71,0.21,-1.71,0.21,-0.21,-0.31,-0.20,-1.92,-1.92,-1.92
324.35,-1.71,0.22,-1.71,0.22,-0.22,-0.31,-0.20,-1.93,-1.93,-1.93
327.59,-1.71,0.23,-1.71,0.23,-0.22,-0.31,-0.20,-1.93,-1.94,-1.94
330.87,-1.71,0.23,-1.71,0.23,-0.23,-0.31,-0.20,-1.94,-1.94,-1.95
334.18,-1.72,0.23,-1.72,0.23,-0.23,-0.31,-0.20,-1.95,-1.95,-1.95
337.52,-1.72,0.23,-1.72,0.23,-0.24,-0.31,-0.20,-1.96,-1.96,-1.95
340.90,-1.72,0.24,-1.72,0.24,-0.24,-0.31,-0.20,-1.97,-1.97,-1.96
344.30,-1.72,0.24,-1.72,0.24,-0.25,-0.31,-0.20,-1.97,-1.97,-1.96
347.75,-1.72,0.25,-1.72,0.25,-0.25,-0.31,-0.20,-1.97,-1.98,-1.97
351.23,-1.72,0.26,-1.72,0.25,-0.25,-0.31,-0.20,-1.97,-1.97,-1.98
354.74,-1.72,0.26,-1.71,0.27,-0.25,-0.31,-0.20,-1.97,-1.96,-1.98
358.28,-1.71,0.27,-1.72,0.27,-0.24,-0.31,-0.20,-1.95,-1.96,-1.98
361.87,-1.71,0.27,-1.74,0.25,-0.24,-0.30,-0.20,-1.95,-1.97,-1.98
365.49,-1.78,0.20,-1.76,0.22,-0.23,-0.30,-0.20,-2.01,-1.99,-1.99
369.14,-1.79,0.20,-1.78,0.21,-0.23,-0.30,-0.20,-2.02,-2.01,-1.99
372.83,-1.78,0.21,-1.79,0.20,-0.23,-0.30,-0.20,-2.01,-2.02,-1.99
376.56,-1.77,0.22,-1.78,0.22,-0.23,-0.30,-0.20,-2.00,-2.01,-1.99
380.33,-1.77,0.23,-1.77,0.23,-0.23,-0.30,-0.21,-2.00,-2.00,-2.00
384.13,-1.76,0.24,-1.76,0.25,-0.23,-0.29,-0.21,-2.00,-1.99,-2.00
387.97,-1.75,0.26,-1.75,0.26,-0.24,-0.29,-0.21,-1.99,-1.99,-2.01
391.85,-1.75,0.27,-1.76,0.26,-0.24,-0.29,-0.21,-2.00,-2.01,-2.03
395.77,-1.78,0.26,-1.79,0.25,-0.25,-0.29,-0.21,-2.03,-2.03,-2.04
399.73,-1.83,0.22,-1.82,0.23,-0.24,-0.28,-0.22,-2.07,-2.06,-2.05
403.72,-1.85,0.21,-1.84,0.22,-0.23,-0.28,-0.22,-2.09,-2.08,-2.06
407.76,-1.85,0.23,-1.85,0.22,-0.22,-0.28,-0.22,-2.08,-2.08,-2.08
411.84,-1.85,0.24,-1.87,0.22,-0.21,-0.28,-0.23,-2.07,-2.08,-2.09
415.96,-1.89,0.21,-1.90,0.21,-0.20,-0.27,-0.23,-2.10,-2.10,-2.10
420.12,-1.94,0.17,-1.92,0.19,-0.19,-0.27,-0.23,-2.13,-2.12,-2.11
424.32,-1.94,0.17,-1.94,0.18,-0.18,-0.27,-0.23,-2.12,-2.12,-2.11
428.56,-1.93,0.18,-1.93,0.18,-0.17,-0.27,-0.24,-2.10,-2.10,-2.12
432.85,-1.92,0.18,-1.93,0.17,-0.16,-0.26,-0.24,-2.08,-2.09,-2.11
437.18,-1.93,0.16,-1.94,0.15,-0.15,-0.26,-0.24,-2.08,-2.09,-2.09
441.55,-1.95,0.12,-1.93,0.13,-0.15,-0.26,-0.25,-2.10,-2.08,-2.07
445.96,-1.91,0.13,-1.91,0.13,-0.15,-0.25,-0.25,-2.06,-2.06,-2.04
450.42,-1.86,0.14,-1.86,0.14,-0.15,-0.25,-0.25,-2.02,-2.02,-2.00
454.93,-1.80,0.16,-1.80,0.16,-0.16,-0.25,-0.25,-1.96,-1.96,-1.96
459.48,-1.74,0.17,-1.74,0.17,-0.17,-0.24,-0.26,-1.91,-1.91,-1.91
464.07,-1.68,0.19,-1.68,0.19,-0.18,-0.24,-0.26,-1.86,-1.86,-1.87
468.71,-1.63,0.19,-1.62,0.20,-0.18,-0.24,-0.26,-1.81,-1.80,-1.82
473.40,-1.56,0.21,-1.57,0.21,-0.18,-0.23,-0.26,-1.74,-1.74,-1.77
478.13,-1.51,0.21,-1.53,0.19,-0.17,-0.23,-0.26,-1.69,-1.71,-1.72
