frequency,raw
20.00,0.76
20.20,0.73
20.40,0.71
20.61,0.68
20.81,0.66
21.02,0.63
21.23,0.61
21.44,0.59
21.66,0.56
21.87,0.54
22.09,0.52
22.31,0.50
22.54,0.47
22.76,0.45
22.99,0.43
23.22,0.41
23.45,0.39
23.69,0.37
23.92,0.36
24.16,0.34
24.40,0.33
24.65,0.31
24.89,0.30
25.14,0.28
25.39,0.27
25.65,0.26
25.91,0.25
26.16,0.23
26.43,0.22
26.69,0.21
26.96,0.20
27.23,0.19
27.50,0.18
27.77,0.17
28.05,0.16
28.33,0.15
28.62,0.14
28.90,0.14
29.19,0.13
29.48,0.13
29.78,0.12
30.08,0.11
30.38,0.11
30.68,0.10
30.99,0.09
31.30,0.08
31.61,0.07
31.93,0.06
32.24,0.06
32.57,0.05
32.89,0.03
33.22,0.02
33.55,0.01
33.89,0.00
34.23,-0.00
34.57,-0.01
34.92,-0.02
35.27,-0.03
35.62,-0.04
35.97,-0.04
36.33,-0.05
36.70,-0.06
37.06,-0.06
37.43,-0.07
37.81,-0.08
38.19,-0.08
38.57,-0.09
38.95,-0.10
39.34,-0.10
39.74,-0.11
40.14,-0.12
40.54,-0.12
40.94,-0.13
41.35,-0.14
41.76,-0.14
42.18,-0.15
42.60,-0.16
43.03,-0.16
43.46,-0.17
43.90,-0.17
44.33,-0.18
44.78,-0.18
45.23,-0.19
45.68,-0.19
46.13,-0.19
46.60,-0.19
47.06,-0.20
47.53,-0.20
48.01,-0.20
48.49,-0.20
48.97,-0.20
49.46,-0.20
49.96,-0.20
50.46,-0.20
50.96,-0.21
51.47,-0.21
51.99,-0.21
52.51,-0.21
53.03,-0.21
53.56,-0.22
54.10,-0.22
54.64,-0.22
55.18,-0.22
55.74,-0.22
56.29,-0.22
56.86,-0.22
57.42,-0.22
58.00,-0.22
58.58,-0.21
59.16,-0.21
59.76,-0.21
60.35,-0.21
60.96,-0.21
61.57,-0.21
62.18,-0.21
62.80,-0.21
63.43,-0.21
64.07,-0.21
64.71,-0.21
65.35,-0.21
66.01,-0.21
66.67,-0.21
67.33,-0.21
68.01,-0.21
68.69,-0.22
69.37,-0.22
70.07,-0.22
70.77,-0.22
71.48,-0.22
72.19,-0.23
72.91,-0.23
73.64,-0.23
74.38,-0.24
75.12,-0.24
75.87,-0.25
76.63,-0.25
77.40,-0.26
78.17,-0.27
78.95,-0.28
79.74,-0.29
80.54,-0.31
81.35,-0.32
82.16,-0.33
82.98,-0.34
83.81,-0.36
84.65,-0.37
85.50,-0.38
86.35,-0.39
87.22,-0.40
88.09,-0.41
88.97,-0.42
89.86,-0.43
90.76,-0.44
91.66,-0.44
92.58,-0.45
93.51,-0.46
94.44,-0.46
95.39,-0.47
96.34,-0.47
97.30,-0.48
98.28,-0.49
99.26,-0.50
100.25,-0.51
101.25,-0.52
102.27,-0.53
103.29,-0.54
104.32,-0.55
105.37,-0.56
106.42,-0.57
107.48,-0.59
108.56,-0.60
109.64,-0.61
110.74,-0.62
111.85,-0.64
112.97,-0.65
114.10,-0.66
115.24,-0.67
116.39,-0.68
117.55,-0.69
118.73,-0.70
119.92,-0.71
121.12,-0.71
122.33,-0.72
123.55,-0.73
124.79,-0.73
126.03,-0.74
127.29,-0.74
128.57,-0.75
129.85,-0.75
131.15,-0.75
132.46,-0.76
133.79,-0.76
135.12,-0.76
136.48,-0.76
137.84,-0.75
139.22,-0.75
140.61,-0.75
142.02,-0.75
143.44,-0.74
144.87,-0.74
146.32,-0.73
147.78,-0.72
149.26,-0.72
150.75,-0.71
152.26,-0.70
153.78,-0.70
155.32,-0.69
156.88,-0.68
158.44,-0.67
160.03,-0.66
161.63,-0.65
163.24,-0.65
164.88,-0.64
166.53,-0.63
168.19,-0.62
169.87,-0.61
171.57,-0.61
173.29,-0.60
175.02,-0.60
176.77,-0.59
178.54,-0.59
180.32,-0.59
182.13,-0.59
183.95,-0.59
185.79,-0.59
187.65,-0.59
189.52,-0.59
191.42,-0.59
193.33,-0.60
195.27,-0.60
197.22,-0.61
199.19,-0.61
201.18,-0.62
203.19,-0.63
205.23,-0.63
207.28,-0.64
209.35,-0.65
211.44,-0.66
213.56,-0.67
215.69,-0.67
217.85,-0.68
220.03,-0.68
222.23,-0.69
224.45,-0.69
226.70,-0.69
228.96,-0.69
231.25,-0.69
233.57,-0.69
235.90,-0.68
238.26,-0.68
240.64,-0.67
243.05,-0.67
245.48,-0.66
247.93,-0.65
250.41,-0.65
252.92,-0.64
255.45,-0.64
258.00,-0.63
260.58,-0.63
263.19,-0.63
265.82,-0.63
268.48,-0.62
271.16,-0.62
273.87,-0.62
276.61,-0.62
279.38,-0.62
282.17,-0.62
284.99,-0.62
287.84,-0.61
290.72,-0.61
293.63,-0.61
296.57,-0.60
299.53,-0.59
302.53,-0.59
305.55,-0.58
308.61,-0.57
311.69,-0.56
314.81,-0.56
317.96,-0.55
321.14,-0.54
324.35,-0.53
327.59,-0.53
330.87,-0.52
334.18,-0.52
337.52,-0.51
340.90,-0.51
344.30,-0.51
347.75,-0.51
351.23,-0.51
354.74,-0.52
358.28,-0.52
361.87,-0.52
365.49,-0.52
369.14,-0.52
372.83,-0.53
376.56,-0.53
380.33,-0.52
384.13,-0.52
387.97,-0.52
391.85,-0.51
395.77,-0.51
399.73,-0.50
403.72,-0.50
407.76,-0.49
411.84,-0.48
415.96,-0.48
420.12,-0.47
424.32,-0.46
428.56,-0.46
432.85,-0.45
437.18,-0.44
441.55,-0.44
445.96,-0.43
450.42,-0.42
454.93,-0.41
459.48,-0.40
464.07,-0.39
468.71,-0.38
473.40,-0.37
478.13,-0.36
482.91,-0.35
487.74,-0.33
492.62,-0.32
497.55,-0.30
502.52,-0.29
507.55,-0.27
512.62,-0.26
517.75,-0.24
522.93,-0.23
528.16,-0.21
533.44,-0.20
538.77,-0.19
544.16,-0.17
549.60,-0.16
555.10,-0.15
560.65,-0.14
566.25,-0.13
571.92,-0.12
577.64,-0.11
583.41,-0.10
589.25,-0.09
595.14,-0.07
601.09,-0.06
607.10,-0.05
613.17,-0.03
619.30,-0.02
625.50,-0.01
631.75,0.01
638.07,0.02
644.45,0.03
650.89,0.04
657.40,0.05
663.98,0.06
670.62,0.06
677.32,0.07
684.10,0.08
690.94,0.08
697.85,0.09
704.83,0.10
711.87,0.11
718.99,0.12
726.18,0.13
733.44,0.14
740.78,0.15
748.19,0.16
755.67,0.17
763.23,0.18
770.86,0.19
778.57,0.20
786.35,0.21
794.22,0.22
802.16,0.22
810.18,0.23
818.28,0.23
826.46,0.23
834.73,0.22
843.08,0.21
851.51,0.21
860.02,0.20
868.62,0.18
877.31,0.17
886.08,0.16
894.94,0.14
903.89,0.13
912.93,0.11
922.06,0.10
931.28,0.09
940.59,0.07
950.00,0.06
959.50,0.05
969.09,0.04
978.78,0.03
988.57,0.02
998.46,0.01
1008.44,-0.01
1018.53,-0.02
1028.71,-0.03
1039.00,-0.05
1049.39,-0.06
1059.88,-0.07
1070.48,-0.08
1081.19,-0.08
1092.00,-0.09
1102.92,-0.09
1113.95,-0.10
1125.09,-0.10
1136.34,-0.10
1147.70,-0.10
1159.18,-0.09
1170.77,-0.08
1182.48,-0.07
1194.30,-0.06
1206.25,-0.04
1218.31,-0.02
1230.49,0.00
1242.80,0.03
1255.22,0.05
1267.78,0.08
1280.45,0.11
1293.26,0.14
1306.19,0.16
1319.25,0.19
1332.45,0.22
1345.77,0.24
1359.23,0.26
1372.82,0.28
1386.55,0.29
1400.41,0.30
1414.42,0.31
1428.56,0.32
1442.85,0.32
1457.28,0.33
1471.85,0.33
1486.57,0.34
1501.43,0.34
1516.45,0.35
1531.61,0.37
1546.93,0.38
1562.40,0.40
1578.02,0.42
1593.80,0.44
1609.74,0.47
1625.84,0.49
1642.10,0.52
1658.52,0.55
1675.10,0.57
1691.85,0.59
1708.77,0.61
1725.86,0.63
1743.12,0.65
1760.55,0.66
1778.15,0.67
1795.94,0.69
1813.90,0.70
1832.03,0.71
1850.36,0.72
1868.86,0.73
1887.55,0.75
1906.42,0.76
1925.49,0.77
1944.74,0.78
1964.19,0.79
1983.83,0.80
2003.67,0.81
2023.71,0.82
2043.94,0.82
2064.38,0.83
2085.03,0.83
2105.88,0.84
2126.94,0.84
2148.20,0.84
2169.69,0.85
2191.38,0.85
2213.30,0.86
2235.43,0.87
2257.78,0.88
2280.36,0.88
2303.17,0.89
2326.20,0.90
2349.46,0.91
2372.95,0.92
2396.68,0.93
2420.65,0.94
2444.86,0.94
2469.31,0.95
2494.00,0.96
2518.94,0.96
2544.13,0.96
2569.57,0.96
2595.27,0.97
2621.22,0.97
2647.43,0.97
2673.90,0.97
2700.64,0.97
2727.65,0.96
2754.93,0.96
2782.48,0.95
2810.30,0.95
2838.40,0.94
2866.79,0.93
2895.46,0.92
2924.41,0.90
2953.65,0.89
2983.19,0.88
3013.02,0.86
3043.15,0.83
3073.58,0.80
3104.32,0.76
3135.36,0.72
3166.72,0.66
3198.38,0.59
3230.37,0.52
3262.67,0.44
3295.30,0.37
3328.25,0.29
3361.53,0.21
3395.15,0.14
3429.10,0.06
3463.39,-0.02
3498.03,-0.09
3533.01,-0.16
3568.34,-0.24
3604.02,-0.30
3640.06,-0.37
3676.46,-0.44
3713.22,-0.51
3750.36,-0.59
3787.86,-0.67
3825.74,-0.76
3864.00,-0.86
3902.64,-0.96
3941.66,-1.05
3981.08,-1.15
4020.89,-1.24
4061.10,-1.32
4101.71,-1.40
4142.73,-1.47
4184.15,-1.54
4226.00,-1.61
4268.26,-1.67
4310.94,-1.73
4354.05,-1.79
4397.59,-1.84
4441.56,-1.89
4485.98,-1.95
4530.84,-2.00
4576.15,-2.05
4621.91,-2.11
4668.13,-2.16
4714.81,-2.21
4761.96,-2.26
4809.58,-2.32
4857.67,-2.37
4906.25,-2.42
4955.31,-2.48
5004.87,-2.54
5054.91,-2.61
5105.46,-2.68
5156.52,-2.75
5208.08,-2.83
5260.16,-2.91
5312.77,-2.99
5365.89,-3.07
5419.55,-3.13
5473.75,-3.19
5528.49,-3.24
5583.77,-3.26
5639.61,-3.27
5696.00,-3.26
5752.96,-3.22
5810.49,-3.15
5868.60,-3.06
5927.28,-2.94
5986.56,-2.80
6046.42,-2.64
6106.89,-2.47
6167.96,-2.28
6229.64,-2.08
6291.93,-1.88
6354.85,-1.67
6418.40,-1.46
6482.58,-1.26
6547.41,-1.05
6612.88,-0.86
6679.01,-0.67
6745.80,-0.49
6813.26,-0.32
6881.39,-0.16
6950.21,-0.01
7019.71,0.14
7089.91,0.27
7160.81,0.40
7232.41,0.52
7304.74,0.63
7377.79,0.76
7451.56,0.88
7526.08,1.03
7601.34,1.19
7677.35,1.39
7754.13,1.62
7831.67,1.90
7909.98,2.23
7989.08,2.62
8068.98,3.06
8149.67,3.56
8231.16,4.10
8313.47,4.67
8396.61,5.26
8480.57,5.84
8565.38,6.41
8651.03,6.93
8737.54,7.38
8824.92,7.76
8913.17,8.05
9002.30,8.22
9092.32,8.29
9183.25,8.24
9275.08,8.07
9367.83,7.79
9461.51,7.39
9556.12,6.91
9651.68,6.34
9748.20,5.71
9845.68,5.04
9944.14,4.35
10043.58,3.66
10144.02,2.99
10245.46,2.36
10347.91,1.80
10451.39,1.31
10555.91,0.92
10661.46,0.63
10768.08,0.44
10875.76,0.35
10984.52,0.36
11094.36,0.44
11205.31,0.57
11317.36,0.73
11430.53,0.89
11544.84,1.02
11660.29,1.11
11776.89,1.14
11894.66,1.11
12013.60,1.00
12133.74,0.83
12255.08,0.61
12377.63,0.34
12501.41,0.03
12626.42,-0.29
12752.68,-0.60
12880.21,-0.89
13009.01,-1.14
13139.10,-1.33
13270.49,-1.44
13403.20,-1.48
13537.23,-1.43
13672.60,-1.29
13809.33,-1.05
13947.42,-0.74
14086.90,-0.36
14227.77,0.06
14370.04,0.49
14513.74,0.90
14658.88,1.25
14805.47,1.52
14953.52,1.68
15103.06,1.71
15254.09,1.62
15406.63,1.41
15560.70,1.11
15716.30,0.75
15873.47,0.36
16032.20,-0.03
16192.52,-0.38
16354.45,-0.68
16517.99,-0.90
16683.17,-1.02
16850.01,-1.03
17018.51,-0.94
17188.69,-0.74
17360.58,-0.45
17534.18,-0.08
17709.53,0.34
17886.62,0.78
18065.49,1.05
18246.14,1.33
18428.60,1.61
18612.89,1.89
18799.02,2.18
18987.01,2.47
19176.88,2.77
19368.65,3.06
19562.33,3.37
19757.96,3.67
19955.54,3.98
