frequency,raw,error,smoothed,error_smoothed,equalization,parametric_eq,fixed_band_eq,equalized_raw,equalized_smoothed,target
20.00,-18.91,-16.10,-18.92,-16.10,6.00,5.83,2.69,-12.91,-12.92,-2.81
20.20,-18.82,-16.01,-18.82,-16.00,6.00,5.84,2.77,-12.82,-12.82,-2.81
20.40,-18.72,-15.91,-18.72,-15.91,6.00,5.85,2.85,-12.72,-12.72,-2.81
20.61,-18.63,-15.83,-18.62,-15.82,6.00,5.86,2.93,-12.63,-12.62,-2.80
20.81,-18.53,-15.73,-18.53,-15.73,6.00,5.87,3.02,-12.53,-12.53,-2.80
21.02,-18.44,-15.64,-18.45,-15.65,6.00,5.87,3.10,-12.44,-12.45,-2.80
21.23,-18.39,-15.59,-18.39,-15.59,6.00,5.88,3.19,-12.39,-12.39,-2.80
21.44,-18.34,-15.55,-18.34,-15.54,6.00,5.89,3.29,-12.34,-12.34,-2.79
21.66,-18.28,-15.49,-18.29,-15.49,6.00,5.90,3.38,-12.28,-12.29,-2.79
21.87,-18.23,-15.44,-18.22,-15.43,6.00,5.90,3.48,-12.23,-12.22,-2.79
22.09,-18.15,-15.36,-18.15,-15.36,6.00,5.91,3.58,-12.15,-12.15,-2.79
22.31,-18.05,-15.27,-18.05,-15.26,6.00,5.92,3.68,-12.05,-12.05,-2.78
22.54,-17.94,-15.15,-17.94,-15.16,6.00,5.92,3.79,-11.94,-11.94,-2.79
22.76,-17.83,-15.05,-17.83,-15.05,6.00,5.93,3.90,-11.83,-11.83,-2.78
22.99,-17.72,-14.94,-17.73,-14.94,6.00,5.94,4.01,-11.72,-11.73,-2.78
23.22,-17.63,-14.85,-17.63,-14.85,6.00,5.94,4.13,-11.63,-11.63,-2.78
23.45,-17.53,-14.75,-17.53,-14.75,6.00,5.95,4.24,-11.53,-11.53,-2.78
23.69,-17.44,-14.66,-17.44,-14.66,6.00,5.96,4.36,-11.44,-11.44,-2.78
23.92,-17.34,-14.57,-17.34,-14.56,6.00,5.96,4.49,-11.34,-11.34,-2.77
24.16,-17.23,-14.45,-17.23,-14.45,6.00,5.97,4.61,-11.23,-11.23,-2.78
24.40,-17.12,-14.34,-17.12,-14.34,6.00,5.98,4.74,-11.12,-11.12,-2.78
24.65,-17.01,-14.23,-17.01,-14.22,6.00,5.98,4.87,-11.01,-11.01,-2.78
24.89,-16.90,-14.11,-16.91,-14.12,6.00,5.99,5.00,-10.90,-10.91,-2.79
25.14,-16.82,-14.03,-16.83,-14.03,6.00,5.99,5.13,-10.82,-10.83,-2.79
25.39,-16.76,-13.96,-16.76,-13.96,6.00,6.00,5.26,-10.76,-10.76,-2.80
25.65,-16.71,-13.91,-16.71,-13.90,6.00,6.00,5.40,-10.71,-10.71,-2.80
25.91,-16.65,-13.84,-16.64,-13.83,6.00,6.01,5.53,-10.65,-10.64,-2.81
26.16,-16.56,-13.75,-16.56,-13.75,6.00,6.01,5.67,-10.56,-10.56,-2.81
26.43,-16.46,-13.64,-16.46,-13.64,6.00,6.02,5.81,-10.46,-10.46,-2.82
26.69,-16.35,-13.53,-16.36,-13.53,6.00,6.02,5.94,-10.35,-10.36,-2.82
26.96,-16.25,-13.43,-16.26,-13.43,6.00,6.03,6.07,-10.25,-10.26,-2.82
27.23,-16.17,-13.35,-16.16,-13.34,6.00,6.03,6.20,-10.17,-10.16,-2.82
27.50,-16.09,-13.26,-16.07,-13.24,6.00,6.04,6.33,-10.09,-10.07,-2.83
27.77,-16.02,-13.19,-16.03,-13.20,6.00,6.04,6.45,-10.02,-10.03,-2.83
28.05,-16.00,-13.18,-16.06,-13.23,6.00,6.04,6.57,-10.00,-10.06,-2.82
28.33,-16.19,-13.37,-16.21,-13.39,6.00,6.05,6.69,-10.19,-10.21,-2.82
28.62,-16.38,-13.56,-16.40,-13.58,6.00,6.05,6.80,-10.38,-10.40,-2.82
28.90,-16.57,-13.75,-16.47,-13.64,6.00,6.06,6.90,-10.57,-10.47,-2.82
29.19,-16.37,-13.55,-16.33,-13.50,6.00,6.06,7.00,-10.37,-10.33,-2.82
29.48,-15.96,-13.14,-16.01,-13.18,6.00,6.06,7.08,-9.96,-10.01,-2.82
29.78,-15.57,-12.74,-15.59,-12.76,6.00,6.07,7.16,-9.57,-9.59,-2.82
30.08,-15.19,-12.36,-15.19,-12.37,6.00,6.07,7.23,-9.19,-9.19,-2.83
30.38,-14.85,-12.01,-14.79,-11.96,6.00,6.07,7.29,-8.85,-8.79,-2.83
30.68,-14.50,-11.67,-14.47,-11.64,6.00,6.08,7.34,-8.50,-8.47,-2.83
30.99,-14.17,-11.32,-14.31,-11.47,6.00,6.08,7.38,-8.17,-8.31,-2.84
31.30,-14.34,-11.50,-14.34,-11.50,6.00,6.08,7.41,-8.34,-8.34,-2.84
31.61,-14.55,-11.70,-14.51,-11.66,6.00,6.09,7.43,-8.55,-8.51,-2.85
31.93,-14.75,-11.90,-14.69,-11.84,6.00,6.09,7.43,-8.75,-8.69,-2.85
32.24,-14.75,-11.89,-14.74,-11.88,6.00,6.09,7.43,-8.75,-8.74,-2.86
32.57,-14.68,-11.81,-14.70,-11.84,6.00,6.09,7.42,-8.68,-8.70,-2.87
32.89,-14.61,-11.74,-14.62,-11.75,6.00,6.10,7.39,-8.61,-8.62,-2.87
33.22,-14.54,-11.67,-14.53,-11.66,6.00,6.10,7.36,-8.54,-8.53,-2.87
33.55,-14.46,-11.58,-14.46,-11.57,6.00,6.10,7.33,-8.46,-8.46,-2.88
33.89,-14.38,-11.49,-14.40,-11.51,6.00,6.10,7.28,-8.38,-8.40,-2.89
34.23,-14.35,-11.46,-14.36,-11.46,6.00,6.11,7.23,-8.35,-8.36,-2.89
34.57,-14.35,-11.45,-14.35,-11.45,6.00,6.11,7.17,-8.35,-8.35,-2.90
34.92,-14.35,-11.45,-14.35,-11.45,6.00,6.11,7.11,-8.35,-8.35,-2.90
35.27,-14.35,-11.45,-14.35,-11.45,6.00,6.11,7.04,-8.35,-8.35,-2.90
35.62,-14.34,-11.44,-14.34,-11.44,6.00,6.11,6.97,-8.34,-8.34,-2.90
35.97,-14.34,-11.43,-14.34,-11.43,6.00,6.11,6.90,-8.34,-8.34,-2.91
36.33,-14.33,-11.42,-14.35,-11.44,6.00,6.12,6.82,-8.33,-8.35,-2.91
36.70,-14.33,-11.42,-14.33,-11.41,6.00,6.12,6.75,-8.33,-8.33,-2.91
37.06,-14.29,-11.38,-14.25,-11.34,6.00,6.12,6.67,-8.29,-8.25,-2.91
37.43,-14.13,-11.22,-14.13,-11.22,6.00,6.12,6.60,-8.13,-8.13,-2.91
37.81,-13.97,-11.07,-14.00,-11.10,6.00,6.12,6.53,-7.97,-8.00,-2.90
38.19,-13.89,-10.99,-13.92,-11.02,6.00,6.12,6.45,-7.89,-7.92,-2.90
38.57,-13.89,-10.99,-13.89,-10.98,6.00,6.12,6.38,-7.89,-7.89,-2.90
38.95,-13.89,-10.99,-13.86,-10.96,6.00,6.12,6.32,-7.89,-7.86,-2.90
39.34,-13.80,-10.90,-13.80,-10.90,6.00,6.12,6.25,-7.80,-7.80,-2.90
39.74,-13.70,-10.80,-13.71,-10.81,6.00,6.13,6.19,-7.70,-7.71,-2.90
40.14,-13.60,-10.70,-13.61,-10.71,6.00,6.13,6.13,-7.60,-7.61,-2.90
40.54,-13.53,-10.63,-13.53,-10.63,6.00,6.13,6.07,-7.53,-7.53,-2.90
40.94,-13.45,-10.55,-13.44,-10.54,6.00,6.13,6.02,-7.45,-7.44,-2.90
41.35,-13.36,-10.45,-13.35,-10.44,6.00,6.13,5.97,-7.36,-7.35,-2.91
41.76,-13.26,-10.34,-13.28,-10.35,6.00,6.13,5.93,-7.26,-7.28,-2.92
42.18,-13.21,-10.28,-13.23,-10.30,6.00,6.13,5.89,-7.21,-7.23,-2.93
42.60,-13.21,-10.27,-13.21,-10.26,6.00,6.13,5.85,-7.21,-7.21,-2.94
43.03,-13.20,-10.25,-13.17,-10.22,6.00,6.13,5.82,-7.20,-7.17,-2.95
43.46,-13.10,-10.13,-13.11,-10.14,6.00,6.13,5.79,-7.10,-7.11,-2.97
43.90,-13.00,-10.02,-13.01,-10.03,6.00,6.13,5.77,-7.00,-7.01,-2.98
44.33,-12.90,-9.91,-12.90,-9.91,6.00,6.13,5.75,-6.90,-6.90,-2.99
44.78,-12.80,-9.80,-12.80,-9.80,6.00,6.13,5.73,-6.80,-6.80,-3.00
45.23,-12.70,-9.69,-12.69,-9.68,6.00,6.13,5.72,-6.70,-6.69,-3.01
45.68,-12.59,-9.57,-12.60,-9.58,6.00,6.13,5.72,-6.59,-6.60,-3.02
46.13,-12.52,-9.50,-12.54,-9.52,6.00,6.13,5.72,-6.52,-6.54,-3.02
46.60,-12.52,-9.50,-12.52,-9.49,6.00,6.12,5.72,-6.52,-6.52,-3.02
47.06,-12.52,-9.50,-12.52,-9.49,6.00,6.12,5.73,-6.52,-6.52,-3.02
47.53,-12.50,-9.48,-12.51,-9.49,6.00,6.12,5.74,-6.50,-6.51,-3.02
48.01,-12.48,-9.47,-12.45,-9.44,6.00,6.12,5.75,-6.48,-6.45,-3.01
48.49,-12.39,-9.39,-12.39,-9.39,6.00,6.12,5.77,-6.39,-6.39,-3.00
48.97,-12.30,-9.31,-12.34,-9.35,6.00,6.12,5.79,-6.30,-6.34,-2.99
49.46,-12.30,-9.32,-12.30,-9.32,6.00,6.12,5.82,-6.30,-6.30,-2.98
49.96,-12.30,-9.33,-12.26,-9.29,6.00,6.12,5.85,-6.30,-6.26,-2.97
50.46,-12.19,-9.24,-12.19,-9.24,6.00,6.12,5.88,-6.19,-6.19,-2.95
50.96,-12.08,-9.14,-12.11,-9.17,6.00,6.11,5.91,-6.08,-6.11,-2.94
51.47,-12.02,-9.09,-12.02,-9.09,6.00,6.11,5.95,-6.02,-6.02,-2.93
51.99,-11.97,-9.04,-11.97,-9.03,6.00,6.11,5.99,-5.97,-5.97,-2.93
52.51,-11.90,-8.97,-11.90,-8.97,6.00,6.11,6.03,-5.90,-5.90,-2.93
53.03,-11.83,-8.90,-11.81,-8.88,6.00,6.11,6.07,-5.83,-5.81,-2.93
53.56,-11.71,-8.78,-11.72,-8.78,6.00,6.10,6.11,-5.71,-5.72,-2.93
54.10,-11.61,-8.68,-11.64,-8.71,6.00,6.10,6.15,-5.61,-5.64,-2.93
54.64,-11.61,-8.67,-11.61,-8.67,6.00,6.10,6.19,-5.61,-5.61,-2.94
55.18,-11.61,-8.66,-11.61,-8.66,6.00,6.10,6.23,-5.61,-5.61,-2.95
55.74,-11.61,-8.65,-11.59,-8.63,6.00,6.10,6.27,-5.61,-5.59,-2.96
56.29,-11.54,-8.56,-11.53,-8.55,6.00,6.09,6.31,-5.54,-5.53,-2.98
56.86,-11.41,-8.42,-11.41,-8.42,6.00,6.09,6.35,-5.41,-5.41,-2.99
57.42,-11.29,-8.28,-11.29,-8.27,6.00,6.09,6.38,-5.29,-5.29,-3.01
58.00,-11.16,-8.13,-11.20,-8.17,6.00,6.08,6.41,-5.16,-5.20,-3.03
58.58,-11.16,-8.11,-11.16,-8.10,6.00,6.08,6.44,-5.16,-5.16,-3.05
59.16,-11.16,-8.09,-11.15,-8.08,6.00,6.08,6.47,-5.16,-5.15,-3.07
59.76,-11.16,-8.07,-11.17,-8.08,6.00,6.08,6.48,-5.16,-5.17,-3.09
60.35,-11.16,-8.05,-11.16,-8.05,6.00,6.07,6.50,-5.16,-5.16,-3.11
60.96,-11.16,-8.03,-11.11,-7.98,6.00,6.07,6.51,-5.16,-5.11,-3.13
61.57,-11.03,-7.89,-11.04,-7.90,6.00,6.07,6.51,-5.03,-5.04,-3.14
62.18,-10.93,-7.77,-10.97,-7.81,6.00,6.06,6.51,-4.93,-4.97,-3.16
62.80,-10.93,-7.75,-10.92,-7.74,6.00,6.06,6.51,-4.93,-4.92,-3.18
63.43,-10.93,-7.73,-10.92,-7.72,6.00,6.06,6.50,-4.93,-4.92,-3.20
64.07,-10.93,-7.71,-10.93,-7.71,6.00,6.05,6.48,-4.93,-4.93,-3.22
64.71,-10.93,-7.69,-10.95,-7.70,6.00,6.05,6.46,-4.93,-4.95,-3.24
65.35,-10.93,-7.67,-10.93,-7.67,6.00,6.04,6.43,-4.93,-4.93,-3.26
66.01,-10.93,-7.66,-10.88,-7.61,6.00,6.04,6.40,-4.93,-4.88,-3.27
66.67,-10.78,-7.50,-10.80,-7.52,6.00,6.04,6.36,-4.78,-4.80,-3.28
67.33,-10.67,-7.39,-10.69,-7.40,6.00,6.03,6.32,-4.67,-4.69,-3.28
68.01,-10.60,-7.31,-10.58,-7.29,6.00,6.03,6.28,-4.60,-4.58,-3.29
68.69,-10.51,-7.22,-10.52,-7.23,6.00,6.02,6.23,-4.51,-4.52,-3.29
69.37,-10.47,-7.19,-10.49,-7.21,6.00,6.02,6.18,-4.47,-4.49,-3.28
70.07,-10.47,-7.20,-10.47,-7.20,6.00,6.01,6.13,-4.47,-4.47,-3.27
70.77,-10.47,-7.21,-10.43,-7.16,6.00,6.01,6.08,-4.47,-4.43,-3.26
71.48,-10.36,-7.11,-10.37,-7.12,6.00,6.00,6.02,-4.36,-4.37,-3.25
72.19,-10.24,-7.00,-10.29,-7.05,6.00,6.00,5.97,-4.24,-4.29,-3.24
72.91,-10.24,-7.02,-10.19,-6.96,6.00,5.99,5.91,-4.24,-4.19,-3.22
73.64,-10.10,-6.89,-10.11,-6.90,6.00,5.99,5.85,-4.10,-4.11,-3.21
74.38,-10.02,-6.82,-10.06,-6.86,6.00,5.98,5.80,-4.02,-4.06,-3.20
75.12,-10.01,-6.82,-9.99,-6.79,6.00,5.98,5.75,-4.01,-3.99,-3.19
75.87,-9.96,-6.77,-9.93,-6.74,6.00,5.97,5.69,-3.96,-3.93,-3.19
76.63,-9.85,-6.67,-9.87,-6.69,6.00,5.96,5.64,-3.85,-3.87,-3.18
77.40,-9.79,-6.62,-9.83,-6.65,6.00,5.96,5.60,-3.79,-3.83,-3.17
78.17,-9.79,-6.63,-9.78,-6.62,6.00,5.95,5.55,-3.79,-3.78,-3.16
78.95,-9.79,-6.63,-9.73,-6.57,6.00,5.95,5.51,-3.79,-3.72,-3.16
79.74,-9.62,-6.47,-9.66,-6.51,6.00,5.94,5.47,-3.62,-3.66,-3.15
80.54,-9.56,-6.42,-9.61,-6.47,6.01,5.93,5.43,-3.56,-3.61,-3.14
81.35,-9.56,-6.43,-9.53,-6.39,6.00,5.93,5.39,-3.56,-3.53,-3.13
82.16,-9.50,-6.38,-9.43,-6.30,5.99,5.92,5.36,-3.51,-3.43,-3.12
82.98,-9.24,-6.13,-9.30,-6.19,5.98,5.91,5.33,-3.26,-3.31,-3.11
83.81,-9.12,-6.03,-9.17,-6.07,5.98,5.91,5.31,-3.14,-3.19,-3.09
84.65,-9.10,-6.02,-9.06,-5.98,5.98,5.90,5.29,-3.12,-3.09,-3.08
85.50,-9.04,-5.98,-9.00,-5.93,5.98,5.89,5.27,-3.07,-3.02,-3.06
86.35,-8.94,-5.90,-8.97,-5.93,5.98,5.88,5.26,-2.97,-3.00,-3.04
87.22,-8.94,-5.92,-9.01,-5.99,5.98,5.88,5.25,-2.96,-3.03,-3.02
88.09,-9.17,-6.17,-9.14,-6.13,5.98,5.87,5.25,-3.19,-3.16,-3.00
88.97,-9.32,-6.34,-9.31,-6.32,5.98,5.86,5.25,-3.34,-3.32,-2.98
89.86,-9.49,-6.52,-9.48,-6.51,5.99,5.85,5.25,-3.50,-3.49,-2.97
90.76,-9.57,-6.62,-9.60,-6.65,6.00,5.84,5.26,-3.57,-3.61,-2.95
91.66,-9.72,-6.79,-9.71,-6.77,6.00,5.84,5.27,-3.72,-3.70,-2.93
92.58,-9.79,-6.88,-9.77,-6.86,6.01,5.83,5.29,-3.79,-3.76,-2.91
93.51,-9.79,-6.90,-9.80,-6.91,6.00,5.82,5.30,-3.79,-3.80,-2.89
94.44,-9.79,-6.92,-9.80,-6.93,6.00,5.81,5.33,-3.79,-3.80,-2.87
95.39,-9.79,-6.94,-9.79,-6.93,6.00,5.80,5.35,-3.79,-3.79,-2.85
96.34,-9.79,-6.96,-9.78,-6.95,6.00,5.79,5.38,-3.79,-3.78,-2.83
97.30,-9.79,-6.98,-9.81,-7.00,6.00,5.78,5.41,-3.79,-3.81,-2.81
98.28,-9.84,-7.05,-9.87,-7.07,6.00,5.77,5.45,-3.84,-3.87,-2.79
99.26,-9.98,-7.21,-9.94,-7.17,6.00,5.77,5.49,-3.98,-3.94,-2.77
100.25,-10.03,-7.27,-10.05,-7.29,6.00,5.76,5.53,-4.03,-4.05,-2.76
101.25,-10.10,-7.36,-10.13,-7.38,6.00,5.75,5.57,-4.10,-4.13,-2.74
102.27,-10.21,-7.48,-10.14,-7.40,6.00,5.74,5.62,-4.21,-4.14,-2.73
103.29,-10.10,-7.38,-10.11,-7.39,6.00,5.73,5.67,-4.10,-4.11,-2.72
104.32,-10.02,-7.30,-10.07,-7.35,6.00,5.72,5.72,-4.02,-4.07,-2.72
105.37,-10.02,-7.30,-10.02,-7.30,6.00,5.71,5.77,-4.02,-4.02,-2.72
106.42,-10.02,-7.30,-9.99,-7.26,6.00,5.70,5.82,-4.02,-3.99,-2.72
107.48,-9.92,-7.19,-9.91,-7.18,6.00,5.69,5.87,-3.92,-3.91,-2.73
108.56,-9.80,-7.05,-9.79,-7.04,6.00,5.68,5.92,-3.80,-3.79,-2.75
109.64,-9.64,-6.88,-9.66,-6.90,6.00,5.67,5.97,-3.64,-3.66,-2.76
110.74,-9.56,-6.79,-9.59,-6.82,6.00,5.65,6.02,-3.56,-3.59,-2.77
111.85,-9.56,-6.78,-9.56,-6.78,6.00,5.64,6.06,-3.56,-3.56,-2.78
112.97,-9.56,-6.76,-9.53,-6.73,6.00,5.63,6.11,-3.56,-3.53,-2.80
114.10,-9.51,-6.70,-9.47,-6.66,6.00,5.62,6.15,-3.51,-3.47,-2.81
115.24,-9.33,-6.51,-9.41,-6.58,6.00,5.61,6.19,-3.33,-3.41,-2.82
116.39,-9.33,-6.50,-9.33,-6.50,6.00,5.60,6.22,-3.33,-3.33,-2.83
117.55,-9.32,-6.48,-9.25,-6.41,6.00,5.59,6.25,-3.32,-3.25,-2.84
118.73,-9.16,-6.32,-9.21,-6.37,6.00,5.58,6.28,-3.16,-3.21,-2.84
119.92,-9.10,-6.26,-9.12,-6.28,6.01,5.56,6.30,-3.10,-3.12,-2.84
121.12,-9.09,-6.25,-9.03,-6.19,6.01,5.55,6.31,-3.08,-3.02,-2.84
122.33,-8.95,-6.11,-8.97,-6.13,6.01,5.54,6.32,-2.95,-2.96,-2.84
123.55,-8.88,-6.05,-8.92,-6.08,6.00,5.53,6.32,-2.88,-2.92,-2.83
124.79,-8.88,-6.05,-8.88,-6.05,5.99,5.52,6.32,-2.89,-2.89,-2.83
126.03,-8.88,-6.06,-8.85,-6.03,5.98,5.50,6.31,-2.90,-2.87,-2.82
127.29,-8.80,-5.99,-8.79,-5.98,5.96,5.49,6.29,-2.84,-2.83,-2.81
128.57,-8.70,-5.89,-8.72,-5.91,5.93,5.48,6.27,-2.77,-2.79,-2.81
129.85,-8.65,-5.85,-8.68,-5.88,5.89,5.47,6.24,-2.76,-2.79,-2.80
131.15,-8.65,-5.86,-8.65,-5.85,5.84,5.46,6.21,-2.82,-2.81,-2.79
132.46,-8.65,-5.86,-8.60,-5.81,5.77,5.44,6.17,-2.88,-2.83,-2.79
133.79,-8.51,-5.72,-8.54,-5.75,5.71,5.43,6.12,-2.81,-2.83,-2.79
135.12,-8.41,-5.63,-8.43,-5.64,5.64,5.42,6.07,-2.77,-2.79,-2.78
136.48,-8.36,-5.58,-8.32,-5.54,5.58,5.41,6.02,-2.78,-2.74,-2.78
137.84,-8.21,-5.43,-8.25,-5.47,5.53,5.39,5.96,-2.68,-2.72,-2.78
139.22,-8.19,-5.42,-8.20,-5.43,5.47,5.38,5.90,-2.72,-2.73,-2.77
140.61,-8.19,-5.42,-8.19,-5.42,5.42,5.37,5.84,-2.78,-2.78,-2.77
142.02,-8.19,-5.42,-8.18,-5.41,5.37,5.35,5.77,-2.82,-2.81,-2.77
143.44,-8.18,-5.41,-8.13,-5.36,5.32,5.34,5.71,-2.86,-2.80,-2.77
144.87,-8.01,-5.24,-8.06,-5.28,5.28,5.33,5.64,-2.73,-2.78,-2.77
146.32,-7.98,-5.20,-8.01,-5.22,5.23,5.32,5.57,-2.75,-2.77,-2.78
147.78,-7.97,-5.18,-7.96,-5.17,5.18,5.30,5.50,-2.79,-2.79,-2.79
149.26,-7.97,-5.17,-7.93,-5.13,5.11,5.29,5.44,-2.86,-2.82,-2.80
150.75,-7.86,-5.04,-7.87,-5.04,5.04,5.28,5.37,-2.82,-2.83,-2.82
152.26,-7.77,-4.93,-7.80,-4.95,4.96,5.27,5.30,-2.81,-2.84,-2.84
153.78,-7.74,-4.87,-7.76,-4.89,4.88,5.25,5.24,-2.86,-2.88,-2.87
155.32,-7.74,-4.84,-7.73,-4.82,4.80,5.24,5.17,-2.94,-2.93,-2.90
156.88,-7.72,-4.79,-7.67,-4.74,4.73,5.23,5.11,-3.00,-2.95,-2.93
158.44,-7.57,-4.62,-7.60,-4.65,4.66,5.22,5.05,-2.92,-2.95,-2.95
160.03,-7.51,-4.54,-7.54,-4.56,4.59,5.21,5.00,-2.92,-2.94,-2.97
161.63,-7.51,-4.52,-7.50,-4.51,4.54,5.19,4.95,-2.97,-2.96,-2.99
163.24,-7.51,-4.51,-7.51,-4.50,4.50,5.18,4.89,-3.01,-3.00,-3.00
164.88,-7.51,-4.50,-7.51,-4.50,4.48,5.17,4.85,-3.03,-3.03,-3.01
166.53,-7.51,-4.50,-7.51,-4.50,4.49,5.16,4.80,-3.02,-3.02,-3.01
168.19,-7.51,-4.50,-7.50,-4.49,4.51,5.15,4.76,-3.00,-2.98,-3.01
169.87,-7.51,-4.51,-7.51,-4.51,4.56,5.14,4.73,-2.95,-2.95,-3.00
171.57,-7.51,-4.53,-7.56,-4.58,4.61,5.13,4.69,-2.90,-2.95,-2.98
173.29,-7.65,-4.69,-7.63,-4.67,4.67,5.12,4.66,-2.98,-2.96,-2.96
175.02,-7.74,-4.80,-7.70,-4.77,4.74,5.11,4.63,-3.00,-2.97,-2.94
176.77,-7.74,-4.83,-7.75,-4.84,4.80,5.10,4.61,-2.94,-2.95,-2.91
178.54,-7.74,-4.86,-7.75,-4.87,4.85,5.09,4.59,-2.89,-2.90,-2.88
180.32,-7.74,-4.89,-7.74,-4.89,4.89,5.08,4.57,-2.85,-2.85,-2.85
182.13,-7.74,-4.92,-7.76,-4.93,4.90,5.07,4.56,-2.84,-2.86,-2.82
183.95,-7.74,-4.94,-7.74,-4.94,4.89,5.06,4.55,-2.85,-2.85,-2.80
185.79,-7.74,-4.96,-7.68,-4.90,4.87,5.06,4.54,-2.88,-2.82,-2.78
187.65,-7.57,-4.81,-7.61,-4.84,4.84,5.05,4.54,-2.73,-2.77,-2.76
189.52,-7.51,-4.76,-7.54,-4.79,4.82,5.04,4.54,-2.69,-2.72,-2.75
191.42,-7.51,-4.77,-7.50,-4.75,4.81,5.03,4.55,-2.70,-2.69,-2.74
193.33,-7.51,-4.77,-7.49,-4.75,4.81,5.03,4.55,-2.70,-2.68,-2.74
195.27,-7.51,-4.78,-7.51,-4.78,4.83,5.02,4.56,-2.69,-2.68,-2.73
197.22,-7.51,-4.79,-7.56,-4.84,4.85,5.01,4.57,-2.66,-2.71,-2.72
199.19,-7.65,-4.93,-7.63,-4.91,4.88,5.01,4.58,-2.77,-2.76,-2.72
201.18,-7.74,-5.02,-7.70,-4.98,4.91,5.00,4.60,-2.83,-2.79,-2.72
203.19,-7.74,-5.02,-7.75,-5.03,4.96,4.99,4.62,-2.79,-2.79,-2.72
205.23,-7.74,-5.02,-7.74,-5.01,5.00,4.99,4.64,-2.74,-2.74,-2.72
207.28,-7.74,-5.01,-7.74,-5.01,5.05,4.98,4.66,-2.69,-2.68,-2.73
209.35,-7.74,-5.00,-7.79,-5.05,5.11,4.98,4.68,-2.63,-2.67,-2.74
211.44,-7.86,-5.12,-7.84,-5.09,5.17,4.97,4.70,-2.69,-2.67,-2.74
213.56,-7.96,-5.21,-7.93,-5.18,5.22,4.97,4.72,-2.74,-2.71,-2.75
215.69,-7.97,-5.22,-8.04,-5.29,5.26,4.96,4.74,-2.71,-2.78,-2.75
217.85,-8.17,-5.41,-8.13,-5.37,5.30,4.95,4.76,-2.87,-2.83,-2.76
220.03,-8.19,-5.43,-8.18,-5.42,5.33,4.95,4.78,-2.86,-2.85,-2.76
222.23,-8.19,-5.42,-8.17,-5.40,5.34,4.94,4.80,-2.85,-2.83,-2.77
224.45,-8.08,-5.31,-8.09,-5.31,5.32,4.93,4.81,-2.76,-2.77,-2.77
226.70,-7.98,-5.20,-8.02,-5.24,5.28,4.92,4.82,-2.70,-2.74,-2.78
228.96,-7.97,-5.19,-7.98,-5.20,5.23,4.91,4.83,-2.74,-2.76,-2.78
231.25,-7.97,-5.18,-7.94,-5.15,5.16,4.90,4.84,-2.81,-2.78,-2.79
233.57,-7.93,-5.14,-7.88,-5.09,5.09,4.88,4.84,-2.84,-2.79,-2.79
235.90,-7.75,-4.96,-7.81,-5.01,5.02,4.87,4.83,-2.73,-2.79,-2.79
238.26,-7.74,-4.94,-7.76,-4.97,4.96,4.85,4.82,-2.78,-2.80,-2.80
240.64,-7.74,-4.94,-7.72,-4.92,4.91,4.83,4.81,-2.83,-2.81,-2.80
243.05,-7.73,-4.93,-7.68,-4.87,4.87,4.80,4.78,-2.86,-2.81,-2.80
245.48,-7.57,-4.77,-7.61,-4.80,4.82,4.77,4.76,-2.75,-2.78,-2.80
247.93,-7.51,-4.71,-7.54,-4.74,4.78,4.74,4.72,-2.73,-2.76,-2.80
250.41,-7.51,-4.71,-7.51,-4.71,4.73,4.71,4.68,-2.78,-2.78,-2.80
252.92,-7.51,-4.71,-7.51,-4.71,4.68,4.67,4.63,-2.83,-2.83,-2.80
255.45,-7.51,-4.71,-7.46,-4.66,4.62,4.63,4.58,-2.89,-2.84,-2.80
258.00,-7.37,-4.57,-7.41,-4.60,4.57,4.58,4.52,-2.81,-2.84,-2.80
260.58,-7.28,-4.48,-7.31,-4.50,4.51,4.52,4.45,-2.77,-2.80,-2.80
263.19,-7.27,-4.46,-7.20,-4.39,4.44,4.46,4.38,-2.83,-2.76,-2.81
265.82,-7.08,-4.27,-7.13,-4.32,4.36,4.40,4.30,-2.72,-2.77,-2.81
268.48,-7.05,-4.24,-7.09,-4.27,4.26,4.33,4.22,-2.79,-2.83,-2.81
271.16,-7.05,-4.23,-7.01,-4.19,4.14,4.25,4.13,-2.91,-2.86,-2.82
273.87,-6.97,-4.15,-6.92,-4.10,4.02,4.16,4.03,-2.95,-2.90,-2.82
276.61,-6.71,-3.89,-6.77,-3.94,3.89,4.07,3.93,-2.82,-2.88,-2.82
279.38,-6.61,-3.78,-6.60,-3.77,3.77,3.97,3.83,-2.84,-2.83,-2.83
282.17,-6.43,-3.60,-6.43,-3.60,3.66,3.87,3.72,-2.77,-2.77,-2.83
284.99,-6.32,-3.49,-6.30,-3.47,3.55,3.76,3.61,-2.77,-2.75,-2.83
287.84,-6.15,-3.32,-6.19,-3.36,3.45,3.64,3.50,-2.70,-2.75,-2.83
290.72,-6.14,-3.31,-6.16,-3.33,3.36,3.51,3.38,-2.78,-2.80,-2.83
293.63,-6.14,-3.31,-6.12,-3.29,3.27,3.38,3.27,-2.87,-2.85,-2.83
296.57,-6.14,-3.31,-6.10,-3.27,3.20,3.24,3.15,-2.94,-2.90,-2.83
299.53,-5.97,-3.14,-6.01,-3.17,3.12,3.10,3.03,-2.86,-2.89,-2.83
302.53,-5.91,-3.07,-5.89,-3.05,3.02,2.95,2.91,-2.89,-2.87,-2.84
305.55,-5.72,-2.88,-5.75,-2.91,2.90,2.80,2.78,-2.82,-2.85,-2.84
308.61,-5.63,-2.79,-5.63,-2.78,2.77,2.64,2.66,-2.86,-2.86,-2.84
311.69,-5.48,-2.63,-5.46,-2.61,2.63,2.48,2.54,-2.86,-2.84,-2.85
314.81,-5.32,-2.46,-5.31,-2.45,2.47,2.31,2.41,-2.85,-2.84,-2.86
317.96,-5.10,-2.23,-5.13,-2.26,2.30,2.15,2.29,-2.80,-2.84,-2.87
321.14,-5.00,-2.11,-4.98,-2.10,2.12,1.98,2.17,-2.88,-2.86,-2.89
324.35,-4.82,-1.92,-4.85,-1.95,1.93,1.80,2.04,-2.89,-2.93,-2.90
327.59,-4.74,-1.83,-4.72,-1.81,1.74,1.63,1.92,-3.01,-2.99,-2.91
330.87,-4.55,-1.63,-4.51,-1.59,1.54,1.46,1.80,-3.01,-2.97,-2.92
334.18,-4.29,-1.36,-4.29,-1.36,1.35,1.28,1.68,-2.94,-2.94,-2.93
337.52,-3.98,-1.04,-4.05,-1.11,1.16,1.11,1.56,-2.82,-2.89,-2.94
340.90,-3.88,-0.94,-3.84,-0.90,0.97,0.94,1.44,-2.91,-2.87,-2.94
344.30,-3.68,-0.73,-3.69,-0.74,0.79,0.77,1.32,-2.89,-2.90,-2.95
347.75,-3.57,-0.62,-3.58,-0.63,0.62,0.60,1.20,-2.95,-2.96,-2.95
351.23,-3.45,-0.50,-3.43,-0.48,0.46,0.44,1.08,-2.99,-2.97,-2.95
354.74,-3.31,-0.36,-3.29,-0.34,0.32,0.28,0.96,-2.99,-2.97,-2.95
358.28,-3.09,-0.14,-3.12,-0.17,0.18,0.12,0.85,-2.91,-2.94,-2.95
361.87,-2.98,-0.04,-2.97,-0.02,0.02,-0.03,0.73,-2.96,-2.94,-2.94
365.49,-2.79,0.15,-2.82,0.12,-0.14,-0.18,0.62,-2.94,-2.97,-2.94
369.14,-2.71,0.23,-2.70,0.24,-0.32,-0.32,0.50,-3.03,-3.02,-2.94
372.83,-2.53,0.41,-2.50,0.44,-0.49,-0.46,0.39,-3.02,-2.99,-2.94
376.56,-2.31,0.62,-2.27,0.66,-0.65,-0.59,0.28,-2.96,-2.93,-2.93
380.33,-1.99,0.94,-2.04,0.89,-0.81,-0.72,0.16,-2.80,-2.85,-2.93
384.13,-1.84,1.09,-1.89,1.04,-0.95,-0.84,0.05,-2.80,-2.84,-2.93
387.97,-1.81,1.12,-1.80,1.13,-1.09,-0.95,-0.06,-2.90,-2.89,-2.93
391.85,-1.80,1.13,-1.74,1.19,-1.22,-1.06,-0.17,-3.02,-2.97,-2.93
395.77,-1.64,1.29,-1.65,1.28,-1.34,-1.16,-0.28,-2.98,-2.99,-2.93
399.73,-1.52,1.40,-1.54,1.39,-1.44,-1.26,-0.39,-2.96,-2.98,-2.92
403.72,-1.40,1.52,-1.42,1.50,-1.52,-1.34,-0.49,-2.92,-2.94,-2.92
407.76,-1.36,1.56,-1.32,1.60,-1.59,-1.43,-0.60,-2.95,-2.91,-2.92
