frequency,raw
20.00,-14.35
20.20,-14.18
20.40,-14.02
20.61,-13.83
20.81,-13.65
21.02,-13.47
21.23,-13.29
21.44,-13.11
21.66,-12.93
21.87,-12.76
22.09,-12.59
22.31,-12.42
22.54,-12.25
22.76,-12.07
22.99,-11.91
23.22,-11.74
23.45,-11.57
23.69,-11.39
23.92,-11.22
24.16,-11.04
24.40,-10.88
24.65,-10.69
24.89,-10.52
25.14,-10.33
25.39,-10.16
25.65,-9.98
25.91,-9.81
26.16,-9.62
26.43,-9.44
26.69,-9.26
26.96,-9.08
27.23,-8.90
27.50,-8.72
27.77,-8.54
28.05,-8.36
28.33,-8.19
28.62,-8.02
28.90,-7.86
29.19,-7.69
29.48,-7.51
29.78,-7.34
30.08,-7.16
30.38,-7.00
30.68,-6.81
30.99,-6.63
31.30,-6.47
31.61,-6.29
31.93,-6.13
32.24,-5.98
32.57,-5.81
32.89,-5.63
33.22,-5.46
33.55,-5.30
33.89,-5.14
34.23,-4.98
34.57,-4.81
34.92,-4.64
35.27,-4.47
35.62,-4.31
35.97,-4.15
36.33,-3.98
36.70,-3.83
37.06,-3.67
37.43,-3.51
37.81,-3.35
38.19,-3.20
38.57,-3.05
38.95,-2.89
39.34,-2.75
39.74,-2.60
40.14,-2.45
40.54,-2.31
40.94,-2.15
41.35,-2.01
41.76,-1.87
42.18,-1.73
42.60,-1.59
43.03,-1.46
43.46,-1.32
43.90,-1.18
44.33,-1.04
44.78,-0.92
45.23,-0.79
45.68,-0.67
46.13,-0.54
46.60,-0.42
47.06,-0.29
47.53,-0.17
48.01,-0.06
48.49,0.05
48.97,0.16
49.46,0.27
49.96,0.38
50.46,0.49
50.96,0.60
51.47,0.69
51.99,0.79
52.51,0.88
53.03,0.97
53.56,1.07
54.10,1.17
54.64,1.24
55.18,1.33
55.74,1.41
56.29,1.48
56.86,1.56
57.42,1.64
58.00,1.71
58.58,1.76
59.16,1.83
59.76,1.89
60.35,1.96
60.96,2.01
61.57,2.07
62.18,2.13
62.80,2.18
63.43,2.23
64.07,2.27
64.71,2.31
65.35,2.35
66.01,2.39
66.67,2.43
67.33,2.47
68.01,2.49
68.69,2.54
69.37,2.56
70.07,2.59
70.77,2.62
71.48,2.65
72.19,2.67
72.91,2.70
73.64,2.72
74.38,2.74
75.12,2.76
75.87,2.79
76.63,2.80
77.40,2.82
78.17,2.84
78.95,2.86
79.74,2.88
80.54,2.90
81.35,2.93
82.16,2.95
82.98,2.96
83.81,2.99
84.65,2.99
85.50,3.01
86.35,3.02
87.22,3.02
88.09,3.04
88.97,3.05
89.86,3.06
90.76,3.06
91.66,3.06
92.58,3.07
93.51,3.07
94.44,3.08
95.39,3.08
96.34,3.08
97.30,3.08
98.28,3.09
99.26,3.09
100.25,3.10
101.25,3.11
102.27,3.11
103.29,3.12
104.32,3.12
105.37,3.13
106.42,3.13
107.48,3.14
108.56,3.15
109.64,3.16
110.74,3.16
111.85,3.18
112.97,3.18
114.10,3.18
115.24,3.20
116.39,3.20
117.55,3.20
118.73,3.21
119.92,3.21
121.12,3.20
122.33,3.21
123.55,3.21
124.79,3.20
126.03,3.21
127.29,3.20
128.57,3.21
129.85,3.21
131.15,3.19
132.46,3.20
133.79,3.19
135.12,3.18
136.48,3.17
137.84,3.15
139.22,3.15
140.61,3.14
142.02,3.13
143.44,3.11
144.87,3.10
146.32,3.09
147.78,3.07
149.26,3.06
150.75,3.03
152.26,3.02
153.78,3.01
155.32,2.99
156.88,2.96
158.44,2.94
160.03,2.92
161.63,2.89
163.24,2.88
164.88,2.86
166.53,2.83
168.19,2.80
169.87,2.77
171.57,2.76
173.29,2.73
175.02,2.72
176.77,2.69
178.54,2.67
180.32,2.65
182.13,2.63
183.95,2.61
185.79,2.60
187.65,2.58
189.52,2.55
191.42,2.54
193.33,2.52
195.27,2.50
197.22,2.48
199.19,2.47
201.18,2.46
203.19,2.44
205.23,2.42
207.28,2.41
209.35,2.40
211.44,2.39
213.56,2.38
215.69,2.36
217.85,2.35
220.03,2.34
222.23,2.34
224.45,2.32
226.70,2.31
228.96,2.30
231.25,2.29
233.57,2.28
235.90,2.26
238.26,2.27
240.64,2.25
243.05,2.25
245.48,2.24
247.93,2.23
250.41,2.24
252.92,2.24
255.45,2.24
258.00,2.24
260.58,2.25
263.19,2.26
265.82,2.27
268.48,2.27
271.16,2.29
273.87,2.30
276.61,2.32
279.38,2.34
282.17,2.35
284.99,2.37
287.84,2.38
290.72,2.40
293.63,2.42
296.57,2.43
299.53,2.44
302.53,2.46
305.55,2.47
308.61,2.49
311.69,2.50
314.81,2.53
317.96,2.55
321.14,2.58
324.35,2.60
327.59,2.65
330.87,2.69
334.18,2.75
337.52,2.81
340.90,2.89
344.30,2.96
347.75,3.04
351.23,3.14
354.74,3.24
358.28,3.37
361.87,3.49
365.49,3.62
369.14,3.74
372.83,3.86
376.56,3.98
380.33,4.06
384.13,4.17
387.97,4.25
391.85,4.34
395.77,4.43
399.73,4.51
403.72,4.59
407.76,4.66
411.84,4.73
415.96,4.82
420.12,4.89
424.32,4.95
428.56,5.02
432.85,5.08
437.18,5.14
441.55,5.21
445.96,5.26
450.42,5.25
454.93,5.22
459.48,5.21
464.07,5.18
468.71,5.16
473.40,5.13
478.13,5.11
482.91,5.07
487.74,5.04
492.62,5.01
497.55,4.97
502.52,4.92
507.55,4.87
512.62,4.83
517.75,4.78
522.93,4.73
528.16,4.67
533.44,4.62
538.77,4.57
544.16,4.51
549.60,4.45
555.10,4.40
560.65,4.34
566.25,4.28
571.92,4.22
577.64,4.15
583.41,4.08
589.25,4.02
595.14,3.93
601.09,3.85
607.10,3.78
613.17,3.69
619.30,3.61
625.50,3.54
631.75,3.44
638.07,3.35
644.45,3.27
650.89,3.18
657.40,3.10
663.98,3.01
670.62,2.93
677.32,2.84
684.10,2.75
690.94,2.67
697.85,2.58
704.83,2.49
711.87,2.39
718.99,2.30
726.18,2.19
733.44,2.09
740.78,1.99
748.19,1.89
755.67,1.79
763.23,1.69
770.86,1.59
778.57,1.49
786.35,1.39
794.22,1.29
802.16,1.21
810.18,1.10
818.28,1.03
826.46,0.94
834.73,0.87
843.08,0.80
851.51,0.73
860.02,0.66
868.62,0.61
877.31,0.54
886.08,0.49
894.94,0.44
903.89,0.38
912.93,0.34
922.06,0.29
931.28,0.24
940.59,0.21
950.00,0.16
959.50,0.12
969.09,0.08
978.78,0.05
988.57,0.02
998.46,0.00
1008.44,-0.02
1018.53,-0.03
1028.71,-0.05
1039.00,-0.04
1049.39,-0.05
1059.88,-0.05
1070.48,-0.04
1081.19,-0.04
1092.00,-0.02
1102.92,-0.01
1113.95,0.01
1125.09,0.03
1136.34,0.06
1147.70,0.09
1159.18,0.12
1170.77,0.15
1182.48,0.19
1194.30,0.24
1206.25,0.28
1218.31,0.33
1230.49,0.37
1242.80,0.41
1255.22,0.48
1267.78,0.53
1280.45,0.59
1293.26,0.66
1306.19,0.73
1319.25,0.81
1332.45,0.90
1345.77,0.98
1359.23,1.08
1372.82,1.19
1386.55,1.30
1400.41,1.42
1414.42,1.53
1428.56,1.65
1442.85,1.78
1457.28,1.91
1471.85,2.05
1486.57,2.19
1501.43,2.34
1516.45,2.50
1531.61,2.65
1546.93,2.83
1562.40,3.00
1578.02,3.17
1593.80,3.35
1609.74,3.52
1625.84,3.69
1642.10,3.86
1658.52,4.01
1675.10,4.17
1691.85,4.33
1708.77,4.49
1725.86,4.64
1743.12,4.78
1760.55,4.93
1778.15,5.06
1795.94,5.18
1813.90,5.30
1832.03,5.41
1850.36,5.52
1868.86,5.61
1887.55,5.68
1906.42,5.75
1925.49,5.82
1944.74,5.87
1964.19,5.91
1983.83,5.94
2003.67,5.97
2023.71,5.99
2043.94,6.00
2064.38,6.00
2085.03,5.99
2105.88,5.96
2126.94,5.95
2148.20,5.92
2169.69,5.88
2191.38,5.84
2213.30,5.79
2235.43,5.73
2257.78,5.67
2280.36,5.61
2303.17,5.55
2326.20,5.49
2349.46,5.41
2372.95,5.35
2396.68,5.28
2420.65,5.20
2444.86,5.13
2469.31,5.05
2494.00,4.98
2518.94,4.91
2544.13,4.85
2569.57,4.78
2595.27,4.71
2621.22,4.66
2647.43,4.60
2673.90,4.55
2700.64,4.51
2727.65,4.48
2754.93,4.45
2782.48,4.43
2810.30,4.40
2838.40,4.39
2866.79,4.38
2895.46,4.37
2924.41,4.37
2953.65,4.37
2983.19,4.36
3013.02,4.37
3043.15,4.39
3073.58,4.39
3104.32,4.40
3135.36,4.40
3166.72,4.40
3198.38,4.41
3230.37,4.40
3262.67,4.38
3295.30,4.33
3328.25,4.28
3361.53,4.20
3395.15,4.11
3429.10,4.00
3463.39,3.87
3498.03,3.71
3533.01,3.54
3568.34,3.36
3604.02,3.15
3640.06,2.93
3676.46,2.69
3713.22,2.44
3750.36,2.18
3787.86,1.90
3825.74,1.62
3864.00,1.34
3902.64,1.05
3941.66,0.74
3981.08,0.46
4020.89,0.18
4061.10,-0.09
4101.71,-0.32
4142.73,-0.52
4184.15,-0.69
4226.00,-0.82
4268.26,-0.91
4310.94,-0.98
4354.05,-1.01
4397.59,-1.02
4441.56,-1.02
4485.98,-0.98
4530.84,-0.96
4576.15,-0.92
4621.91,-0.85
4668.13,-0.80
4714.81,-0.73
4761.96,-0.65
4809.58,-0.56
4857.67,-0.46
4906.25,-0.37
4955.31,-0.25
5004.87,-0.12
5054.91,0.01
5105.46,0.15
5156.52,0.31
5208.08,0.48
5260.16,0.66
5312.77,0.86
5365.89,1.08
5419.55,1.29
5473.75,1.53
5528.49,1.77
5583.77,1.98
5639.61,2.20
5696.00,2.42
5752.96,2.60
5810.49,2.77
5868.60,2.91
5927.28,3.03
5986.56,3.13
6046.42,3.20
6106.89,3.26
6167.96,3.29
6229.64,3.32
6291.93,3.34
6354.85,3.35
6418.40,3.37
6482.58,3.43
6547.41,3.48
6612.88,3.61
6679.01,3.77
6745.80,3.97
6813.26,4.24
6881.39,4.56
6950.21,4.90
7019.71,5.29
7089.91,5.71
7160.81,6.13
7232.41,6.56
7304.74,6.96
7377.79,7.29
7451.56,7.61
7526.08,7.80
7601.34,7.93
7677.35,7.96
7754.13,7.89
7831.67,7.71
7909.98,7.43
7989.08,7.02
8068.98,6.49
8149.67,5.80
8231.16,4.97
8313.47,3.93
8396.61,2.76
8480.57,1.46
8565.38,-0.05
8651.03,-1.59
8737.54,-3.17
8824.92,-4.78
8913.17,-6.31
9002.30,-7.72
9092.32,-8.97
9183.25,-10.06
9275.08,-10.97
9367.83,-11.69
9461.51,-12.21
9556.12,-12.61
9651.68,-12.83
9748.20,-12.93
9845.68,-12.91
9944.14,-12.82
10043.58,-12.62
10144.02,-12.38
10245.46,-12.13
10347.91,-11.89
10451.39,-11.70
10555.91,-11.58
10661.46,-11.58
10768.08,-11.72
10875.76,-11.99
10984.52,-12.37
11094.36,-12.85
11205.31,-13.37
11317.36,-13.90
11430.53,-14.41
11544.84,-14.87
11660.29,-15.26
11776.89,-15.55
11894.66,-15.74
12013.60,-15.82
12133.74,-15.81
12255.08,-15.70
12377.63,-15.49
12501.41,-15.14
12626.42,-14.65
12752.68,-14.05
12880.21,-13.31
13009.01,-12.40
13139.10,-11.40
13270.49,-10.33
13403.20,-9.11
13537.23,-7.90
13672.60,-6.71
13809.33,-5.61
13947.42,-4.70
14086.90,-3.99
14227.77,-3.64
14370.04,-3.58
14513.74,-3.72
14658.88,-4.10
14805.47,-4.57
14953.52,-5.00
15103.06,-5.34
15254.09,-5.48
15406.63,-5.40
15560.70,-5.10
15716.30,-4.51
15873.47,-3.79
16032.20,-2.98
16192.52,-2.13
16354.45,-1.34
16517.99,-0.66
16683.17,-0.17
16850.01,0.06
17018.51,0.07
17188.69,-0.21
17360.58,-0.78
17534.18,-1.55
17709.53,-2.47
17886.62,-3.48
18065.49,-4.30
18246.14,-5.09
18428.60,-5.75
18612.89,-6.29
18799.02,-6.71
18987.01,-6.95
19176.88,-7.10
19368.65,-7.16
19562.33,-7.20
19757.96,-7.28
19955.54,-7.43
