frequency,raw,error,smoothed,error_smoothed,equalization,parametric_eq,fixed_band_eq,equalized_raw,equalized_smoothed,target
20.00,12.07,9.38,12.07,9.39,-9.38,-9.43,-4.38,2.69,2.69,2.68
20.20,12.06,9.40,12.05,9.40,-9.39,-9.43,-4.49,2.66,2.66,2.65
20.40,12.04,9.40,12.04,9.40,-9.40,-9.43,-4.61,2.64,2.63,2.63
20.61,12.02,9.40,12.02,9.41,-9.41,-9.44,-4.73,2.61,2.61,2.61
20.81,12.00,9.40,12.00,9.41,-9.41,-9.44,-4.86,2.58,2.58,2.59
21.02,11.98,9.40,11.98,9.41,-9.42,-9.44,-4.99,2.56,2.57,2.57
21.23,11.97,9.41,11.97,9.41,-9.42,-9.44,-5.12,2.55,2.55,2.55
21.44,11.95,9.41,11.95,9.41,-9.41,-9.44,-5.25,2.53,2.53,2.53
21.66,11.93,9.41,11.93,9.41,-9.41,-9.44,-5.39,2.52,2.52,2.51
21.87,11.91,9.40,11.91,9.41,-9.40,-9.44,-5.54,2.50,2.51,2.50
22.09,11.89,9.40,11.89,9.40,-9.39,-9.44,-5.68,2.49,2.49,2.48
22.31,11.87,9.39,11.86,9.39,-9.38,-9.44,-5.84,2.49,2.48,2.47
22.54,11.83,9.37,11.83,9.37,-9.37,-9.44,-5.99,2.46,2.46,2.46
22.76,11.80,9.34,11.80,9.35,-9.35,-9.44,-6.15,2.45,2.45,2.45
22.99,11.77,9.32,11.77,9.33,-9.33,-9.44,-6.31,2.44,2.44,2.44
23.22,11.75,9.31,11.74,9.31,-9.31,-9.44,-6.48,2.44,2.43,2.43
23.45,11.72,9.29,11.72,9.30,-9.29,-9.44,-6.65,2.42,2.43,2.42
23.69,11.70,9.28,11.70,9.28,-9.28,-9.44,-6.83,2.42,2.42,2.41
23.92,11.68,9.26,11.68,9.27,-9.27,-9.43,-7.00,2.41,2.41,2.41
24.16,11.67,9.26,11.67,9.26,-9.27,-9.43,-7.19,2.40,2.40,2.40
24.40,11.66,9.25,11.66,9.26,-9.27,-9.43,-7.37,2.39,2.39,2.40
24.65,11.66,9.26,11.66,9.27,-9.27,-9.43,-7.56,2.39,2.39,2.39
24.89,11.67,9.27,11.67,9.28,-9.28,-9.42,-7.75,2.39,2.39,2.39
25.14,11.68,9.29,11.68,9.29,-9.29,-9.42,-7.95,2.39,2.39,2.38
25.39,11.69,9.30,11.69,9.30,-9.30,-9.42,-8.15,2.39,2.39,2.38
25.65,11.69,9.31,11.69,9.31,-9.31,-9.42,-8.35,2.38,2.38,2.37
25.91,11.69,9.31,11.69,9.32,-9.32,-9.41,-8.55,2.37,2.37,2.37
26.16,11.69,9.32,11.69,9.32,-9.32,-9.41,-8.75,2.37,2.37,2.36
26.43,11.69,9.32,11.69,9.33,-9.33,-9.41,-8.96,2.36,2.36,2.36
26.69,11.69,9.33,11.69,9.33,-9.33,-9.40,-9.16,2.36,2.36,2.35
26.96,11.69,9.33,11.69,9.33,-9.34,-9.40,-9.36,2.35,2.35,2.35
27.23,11.69,9.33,11.69,9.34,-9.34,-9.39,-9.56,2.35,2.35,2.35
27.50,11.69,9.34,11.69,9.34,-9.34,-9.39,-9.76,2.35,2.35,2.34
27.77,11.69,9.34,11.69,9.35,-9.35,-9.38,-9.96,2.34,2.34,2.34
28.05,11.69,9.35,11.69,9.35,-9.35,-9.38,-10.14,2.34,2.34,2.33
28.33,11.69,9.35,11.69,9.35,-9.35,-9.37,-10.32,2.33,2.33,2.33
28.62,11.69,9.35,11.69,9.36,-9.36,-9.37,-10.50,2.33,2.33,2.33
28.90,11.69,9.36,11.69,9.36,-9.36,-9.36,-10.66,2.33,2.33,2.32
29.19,11.69,9.36,11.69,9.36,-9.36,-9.36,-10.81,2.33,2.33,2.32
29.48,11.69,9.36,11.69,9.37,-9.36,-9.35,-10.95,2.32,2.32,2.32
29.78,11.69,9.36,11.69,9.36,-9.37,-9.34,-11.07,2.32,2.32,2.32
30.08,11.69,9.36,11.69,9.37,-9.37,-9.34,-11.18,2.32,2.32,2.32
30.38,11.69,9.36,11.69,9.37,-9.37,-9.33,-11.27,2.32,2.32,2.32
30.68,11.69,9.37,11.69,9.37,-9.37,-9.32,-11.34,2.32,2.32,2.31
30.99,11.69,9.37,11.69,9.37,-9.37,-9.31,-11.40,2.32,2.32,2.31
31.30,11.69,9.37,11.69,9.38,-9.38,-9.31,-11.44,2.31,2.31,2.31
31.61,11.69,9.37,11.69,9.38,-9.38,-9.30,-11.45,2.30,2.30,2.31
31.93,11.69,9.38,11.69,9.38,-9.39,-9.29,-11.45,2.30,2.30,2.30
32.24,11.70,9.39,11.70,9.39,-9.40,-9.28,-11.43,2.30,2.30,2.30
32.57,11.70,9.40,11.70,9.41,-9.40,-9.27,-11.40,2.29,2.30,2.29
32.89,11.71,9.41,11.71,9.41,-9.41,-9.27,-11.35,2.30,2.30,2.29
33.22,11.71,9.41,11.71,9.41,-9.41,-9.26,-11.28,2.30,2.30,2.29
33.55,11.70,9.40,11.70,9.41,-9.41,-9.25,-11.20,2.29,2.29,2.29
33.89,11.69,9.40,11.69,9.40,-9.40,-9.24,-11.11,2.29,2.29,2.28
34.23,11.67,9.38,11.67,9.39,-9.38,-9.23,-11.01,2.28,2.29,2.28
34.57,11.65,9.37,11.65,9.37,-9.37,-9.22,-10.90,2.28,2.28,2.27
34.92,11.62,9.34,11.62,9.34,-9.34,-9.21,-10.79,2.27,2.28,2.27
35.27,11.59,9.31,11.59,9.32,-9.32,-9.20,-10.66,2.27,2.27,2.27
35.62,11.56,9.28,11.56,9.29,-9.29,-9.19,-10.54,2.27,2.27,2.27
35.97,11.53,9.26,11.53,9.26,-9.26,-9.17,-10.41,2.27,2.27,2.26
36.33,11.50,9.23,11.50,9.23,-9.23,-9.16,-10.28,2.27,2.27,2.26
36.70,11.47,9.20,11.47,9.20,-9.20,-9.15,-10.15,2.27,2.27,2.26
37.06,11.44,9.17,11.44,9.17,-9.17,-9.14,-10.02,2.26,2.26,2.26
37.43,11.41,9.14,11.41,9.15,-9.15,-9.13,-9.89,2.26,2.26,2.26
37.81,11.39,9.13,11.39,9.13,-9.13,-9.12,-9.76,2.26,2.25,2.25
38.19,11.37,9.11,11.37,9.11,-9.12,-9.10,-9.63,2.25,2.24,2.25
38.57,11.35,9.10,11.35,9.10,-9.11,-9.09,-9.51,2.23,2.24,2.24
38.95,11.34,9.09,11.34,9.10,-9.12,-9.08,-9.39,2.22,2.23,2.24
39.34,11.35,9.11,11.35,9.11,-9.12,-9.06,-9.28,2.23,2.23,2.23
39.74,11.36,9.12,11.36,9.12,-9.13,-9.05,-9.17,2.23,2.23,2.23
40.14,11.37,9.13,11.37,9.14,-9.13,-9.03,-9.07,2.23,2.24,2.23
40.54,11.38,9.15,11.38,9.15,-9.14,-9.02,-8.97,2.24,2.24,2.22
40.94,11.38,9.15,11.38,9.15,-9.14,-9.01,-8.88,2.24,2.24,2.22
41.35,11.37,9.14,11.37,9.14,-9.13,-8.99,-8.79,2.24,2.24,2.22
41.76,11.35,9.12,11.35,9.12,-9.12,-8.98,-8.71,2.23,2.23,2.22
42.18,11.33,9.09,11.33,9.10,-9.10,-8.96,-8.63,2.23,2.23,2.23
42.60,11.30,9.06,11.30,9.07,-9.07,-8.94,-8.56,2.23,2.23,2.23
43.03,11.27,9.03,11.27,9.04,-9.04,-8.93,-8.50,2.23,2.23,2.23
43.46,11.24,9.00,11.24,9.00,-9.00,-8.91,-8.44,2.23,2.23,2.23
43.90,11.21,8.97,11.21,8.97,-8.97,-8.89,-8.39,2.24,2.24,2.23
44.33,11.18,8.93,11.18,8.94,-8.94,-8.88,-8.34,2.24,2.24,2.24
44.78,11.15,8.90,11.15,8.90,-8.91,-8.86,-8.30,2.24,2.24,2.24
45.23,11.12,8.87,11.12,8.87,-8.88,-8.84,-8.26,2.23,2.24,2.24
45.68,11.10,8.85,11.10,8.86,-8.86,-8.82,-8.23,2.24,2.24,2.24
46.13,11.08,8.83,11.08,8.84,-8.84,-8.81,-8.21,2.24,2.24,2.24
46.60,11.07,8.83,11.06,8.83,-8.83,-8.79,-8.19,2.24,2.24,2.23
47.06,11.05,8.81,11.05,8.81,-8.81,-8.77,-8.18,2.24,2.24,2.23
47.53,11.03,8.79,11.03,8.80,-8.80,-8.75,-8.18,2.23,2.23,2.23
48.01,11.02,8.78,11.01,8.78,-8.79,-8.73,-8.18,2.23,2.23,2.23
48.49,11.00,8.77,11.00,8.78,-8.77,-8.71,-8.18,2.22,2.23,2.22
48.97,10.99,8.76,10.99,8.77,-8.76,-8.69,-8.19,2.23,2.23,2.22
49.46,10.98,8.75,10.97,8.75,-8.74,-8.67,-8.20,2.24,2.23,2.22
49.96,10.95,8.72,10.95,8.72,-8.71,-8.65,-8.22,2.23,2.23,2.22
50.46,10.92,8.68,10.92,8.69,-8.69,-8.63,-8.24,2.23,2.23,2.23
50.96,10.89,8.65,10.89,8.66,-8.67,-8.60,-8.27,2.22,2.23,2.23
51.47,10.87,8.63,10.86,8.63,-8.64,-8.58,-8.29,2.23,2.23,2.23
51.99,10.84,8.60,10.84,8.60,-8.61,-8.56,-8.32,2.23,2.23,2.23
52.51,10.82,8.57,10.82,8.58,-8.58,-8.54,-8.36,2.24,2.24,2.24
53.03,10.80,8.55,10.79,8.55,-8.55,-8.52,-8.39,2.25,2.25,2.24
53.56,10.77,8.52,10.77,8.53,-8.52,-8.49,-8.43,2.25,2.25,2.24
54.10,10.74,8.49,10.74,8.49,-8.49,-8.47,-8.47,2.25,2.25,2.24
54.64,10.71,8.46,10.70,8.46,-8.46,-8.44,-8.50,2.25,2.25,2.24
55.18,10.67,8.41,10.67,8.42,-8.42,-8.42,-8.54,2.24,2.25,2.25
55.74,10.64,8.38,10.64,8.39,-8.39,-8.40,-8.58,2.25,2.25,2.25
56.29,10.62,8.36,10.61,8.36,-8.36,-8.37,-8.61,2.25,2.25,2.25
56.86,10.59,8.32,10.59,8.33,-8.34,-8.34,-8.64,2.25,2.25,2.26
57.42,10.57,8.30,10.57,8.31,-8.31,-8.32,-8.67,2.26,2.26,2.26
58.00,10.55,8.28,10.55,8.28,-8.28,-8.29,-8.69,2.27,2.27,2.26
58.58,10.53,8.26,10.53,8.26,-8.26,-8.27,-8.71,2.27,2.27,2.26
59.16,10.51,8.23,10.51,8.24,-8.23,-8.24,-8.72,2.28,2.28,2.27
59.76,10.48,8.20,10.48,8.21,-8.19,-8.21,-8.73,2.28,2.28,2.27
60.35,10.45,8.17,10.45,8.17,-8.16,-8.19,-8.73,2.29,2.28,2.27
60.96,10.41,8.12,10.41,8.13,-8.13,-8.16,-8.72,2.28,2.28,2.28
61.57,10.37,8.08,10.37,8.09,-8.09,-8.13,-8.71,2.27,2.28,2.28
62.18,10.34,8.05,10.34,8.05,-8.06,-8.10,-8.69,2.27,2.27,2.28
62.80,10.31,8.02,10.31,8.02,-8.03,-8.07,-8.66,2.27,2.27,2.28
63.43,10.28,7.99,10.28,8.00,-8.01,-8.04,-8.62,2.27,2.27,2.28
64.07,10.26,7.97,10.26,7.98,-7.98,-8.01,-8.58,2.28,2.28,2.28
64.71,10.25,7.96,10.25,7.96,-7.96,-7.98,-8.52,2.29,2.29,2.28
65.35,10.23,7.94,10.22,7.94,-7.93,-7.95,-8.46,2.30,2.30,2.28
66.01,10.20,7.91,10.20,7.91,-7.90,-7.92,-8.40,2.30,2.30,2.28
66.67,10.16,7.87,10.16,7.88,-7.87,-7.89,-8.33,2.29,2.29,2.28
67.33,10.13,7.84,10.12,7.84,-7.84,-7.86,-8.25,2.29,2.29,2.28
68.01,10.08,7.79,10.08,7.80,-7.80,-7.83,-8.17,2.28,2.28,2.28
68.69,10.04,7.75,10.04,7.76,-7.77,-7.79,-8.08,2.27,2.27,2.28
69.37,10.00,7.71,10.00,7.72,-7.73,-7.76,-7.99,2.27,2.27,2.28
70.07,9.98,7.69,9.97,7.69,-7.70,-7.73,-7.89,2.28,2.28,2.28
70.77,9.95,7.66,9.95,7.66,-7.66,-7.70,-7.79,2.29,2.28,2.28
71.48,9.92,7.63,9.92,7.63,-7.63,-7.66,-7.69,2.29,2.30,2.28
72.19,9.89,7.59,9.89,7.60,-7.59,-7.63,-7.59,2.30,2.30,2.29
72.91,9.86,7.56,9.85,7.56,-7.55,-7.59,-7.49,2.31,2.30,2.29
73.64,9.81,7.51,9.81,7.51,-7.51,-7.56,-7.39,2.30,2.30,2.29
74.38,9.76,7.45,9.76,7.46,-7.46,-7.52,-7.29,2.30,2.30,2.30
75.12,9.71,7.40,9.71,7.41,-7.41,-7.49,-7.19,2.29,2.30,2.30
75.87,9.67,7.36,9.67,7.36,-7.37,-7.45,-7.09,2.30,2.30,2.30
76.63,9.63,7.31,9.63,7.32,-7.32,-7.42,-7.00,2.31,2.31,2.31
77.40,9.59,7.27,9.59,7.27,-7.28,-7.38,-6.90,2.31,2.31,2.31
78.17,9.56,7.23,9.55,7.23,-7.24,-7.34,-6.81,2.32,2.32,2.32
78.95,9.52,7.19,9.52,7.20,-7.20,-7.31,-6.72,2.32,2.33,2.32
79.74,9.49,7.16,9.49,7.16,-7.16,-7.27,-6.64,2.33,2.33,2.32
80.54,9.46,7.12,9.45,7.12,-7.12,-7.23,-6.56,2.34,2.34,2.33
81.35,9.42,7.08,9.42,7.08,-7.08,-7.19,-6.48,2.34,2.34,2.33
82.16,9.37,7.03,9.37,7.04,-7.04,-7.15,-6.41,2.32,2.33,2.33
82.98,9.34,7.00,9.34,7.00,-7.01,-7.11,-6.34,2.33,2.33,2.33
83.81,9.30,6.96,9.30,6.97,-6.98,-7.07,-6.27,2.32,2.33,2.33
84.65,9.28,6.94,9.28,6.94,-6.94,-7.04,-6.21,2.34,2.33,2.33
85.50,9.25,6.90,9.25,6.91,-6.91,-6.99,-6.15,2.34,2.34,2.34
86.35,9.22,6.87,9.22,6.88,-6.87,-6.95,-6.10,2.35,2.35,2.34
87.22,9.19,6.84,9.19,6.84,-6.83,-6.91,-6.05,2.36,2.36,2.34
88.09,9.15,6.80,9.15,6.80,-6.79,-6.87,-6.00,2.36,2.36,2.34
88.97,9.10,6.75,9.10,6.76,-6.75,-6.83,-5.96,2.35,2.35,2.34
89.86,9.05,6.70,9.05,6.71,-6.71,-6.79,-5.93,2.34,2.34,2.34
90.76,9.00,6.65,9.00,6.66,-6.67,-6.75,-5.90,2.33,2.33,2.34
91.66,8.96,6.61,8.96,6.61,-6.63,-6.71,-5.87,2.33,2.33,2.34
92.58,8.92,6.57,8.92,6.58,-6.59,-6.66,-5.85,2.32,2.33,2.34
93.51,8.90,6.55,8.90,6.56,-6.56,-6.62,-5.83,2.34,2.34,2.34
94.44,8.88,6.53,8.88,6.54,-6.53,-6.58,-5.82,2.35,2.35,2.34
95.39,8.87,6.52,8.86,6.52,-6.50,-6.53,-5.81,2.36,2.36,2.34
96.34,8.84,6.49,8.84,6.49,-6.48,-6.49,-5.80,2.36,2.36,2.34
97.30,8.81,6.45,8.81,6.46,-6.45,-6.44,-5.80,2.36,2.36,2.35
98.28,8.78,6.42,8.77,6.42,-6.43,-6.40,-5.80,2.35,2.35,2.35
99.26,8.74,6.38,8.74,6.39,-6.40,-6.35,-5.80,2.34,2.34,2.35
100.25,8.71,6.35,8.71,6.36,-6.37,-6.31,-5.81,2.34,2.34,2.35
101.25,8.69,6.33,8.69,6.34,-6.34,-6.26,-5.81,2.35,2.35,2.35
102.27,8.67,6.31,8.67,6.31,-6.31,-6.22,-5.83,2.36,2.36,2.35
103.29,8.65,6.29,8.64,6.29,-6.28,-6.17,-5.84,2.37,2.36,2.35
104.32,8.61,6.24,8.61,6.25,-6.25,-6.13,-5.85,2.36,2.37,2.36
105.37,8.58,6.21,8.58,6.21,-6.21,-6.08,-5.87,2.37,2.37,2.36
106.42,8.54,6.17,8.54,6.17,-6.17,-6.03,-5.89,2.37,2.37,2.36
107.48,8.49,6.11,8.49,6.12,-6.12,-5.99,-5.91,2.37,2.38,2.37
108.56,8.45,6.07,8.44,6.07,-6.06,-5.94,-5.92,2.38,2.38,2.37
109.64,8.39,6.01,8.39,6.01,-6.01,-5.89,-5.94,2.38,2.38,2.37
110.74,8.33,5.95,8.33,5.95,-5.95,-5.84,-5.96,2.38,2.38,2.37
111.85,8.27,5.88,8.27,5.89,-5.90,-5.79,-5.97,2.37,2.37,2.38
112.97,8.21,5.82,8.21,5.83,-5.84,-5.75,-5.98,2.37,2.37,2.38
114.10,8.16,5.77,8.16,5.78,-5.79,-5.70,-5.99,2.37,2.37,2.38
115.24,8.12,5.73,8.12,5.73,-5.73,-5.65,-6.00,2.39,2.38,2.38
116.39,8.08,5.69,8.08,5.69,-5.68,-5.60,-6.01,2.40,2.40,2.38
117.55,8.03,5.63,8.03,5.64,-5.63,-5.55,-6.01,2.40,2.40,2.39
118.73,7.98,5.58,7.98,5.58,-5.57,-5.50,-6.00,2.40,2.40,2.39
119.92,7.92,5.52,7.92,5.52,-5.52,-5.45,-5.99,2.39,2.39,2.39
121.12,7.86,5.45,7.86,5.46,-5.47,-5.40,-5.98,2.39,2.39,2.40
122.33,7.81,5.40,7.82,5.41,-5.42,-5.35,-5.96,2.39,2.40,2.40
123.55,7.78,5.36,7.77,5.36,-5.37,-5.30,-5.93,2.41,2.41,2.41
124.79,7.74,5.32,7.74,5.32,-5.31,-5.25,-5.90,2.43,2.42,2.41
126.03,7.69,5.27,7.69,5.27,-5.26,-5.20,-5.86,2.43,2.43,2.41
127.29,7.64,5.21,7.64,5.21,-5.21,-5.15,-5.82,2.42,2.42,2.42
128.57,7.58,5.15,7.58,5.16,-5.17,-5.09,-5.77,2.41,2.42,2.42
129.85,7.54,5.10,7.54,5.11,-5.12,-5.04,-5.72,2.42,2.42,2.43
131.15,7.50,5.06,7.50,5.07,-5.07,-4.99,-5.65,2.43,2.43,2.43
132.46,7.46,5.02,7.45,5.02,-5.01,-4.94,-5.59,2.44,2.44,2.43
133.79,7.41,4.97,7.40,4.97,-4.96,-4.89,-5.52,2.45,2.44,2.43
135.12,7.34,4.90,7.35,4.91,-4.91,-4.84,-5.44,2.43,2.44,2.43
136.48,7.29,4.85,7.29,4.85,-4.85,-4.78,-5.36,2.43,2.43,2.43
137.84,7.24,4.79,7.23,4.79,-4.80,-4.73,-5.28,2.44,2.44,2.44
139.22,7.18,4.73,7.18,4.74,-4.74,-4.68,-5.19,2.44,2.44,2.44
140.61,7.13,4.68,7.13,4.68,-4.68,-4.62,-5.11,2.45,2.45,2.44
142.02,7.07,4.62,7.07,4.62,-4.62,-4.57,-5.01,2.45,2.45,2.44
143.44,7.01,4.56,7.01,4.56,-4.56,-4.52,-4.92,2.45,2.45,2.44
144.87,6.95,4.49,6.95,4.50,-4.50,-4.47,-4.83,2.45,2.45,2.45
146.32,6.89,4.43,6.89,4.44,-4.44,-4.41,-4.73,2.45,2.45,2.45
147.78,6.84,4.38,6.83,4.38,-4.38,-4.36,-4.63,2.46,2.45,2.45
149.26,6.78,4.31,6.78,4.32,-4.32,-4.30,-4.53,2.46,2.46,2.46
150.75,6.73,4.26,6.73,4.26,-4.26,-4.25,-4.44,2.46,2.47,2.46
152.26,6.68,4.21,6.67,4.21,-4.21,-4.20,-4.34,2.47,2.47,2.46
153.78,6.62,4.14,6.62,4.15,-4.15,-4.14,-4.24,2.47,2.47,2.47
155.32,6.57,4.09,6.57,4.10,-4.10,-4.09,-4.15,2.47,2.47,2.47
156.88,6.52,4.04,6.52,4.04,-4.04,-4.03,-4.05,2.48,2.47,2.47
158.44,6.47,3.98,6.47,3.99,-3.99,-3.98,-3.96,2.48,2.48,2.48
160.03,6.42,3.93,6.42,3.93,-3.93,-3.93,-3.87,2.49,2.48,2.48
161.63,6.37,3.88,6.37,3.88,-3.88,-3.87,-3.78,2.49,2.49,2.48
163.24,6.31,3.82,6.31,3.83,-3.82,-3.82,-3.69,2.48,2.49,2.48
164.88,6.26,3.77,6.26,3.77,-3.77,-3.76,-3.61,2.49,2.49,2.48
166.53,6.20,3.70,6.20,3.71,-3.71,-3.71,-3.52,2.48,2.49,2.49
168.19,6.15,3.65,6.15,3.66,-3.66,-3.65,-3.44,2.49,2.49,2.49
169.87,6.10,3.60,6.10,3.60,-3.60,-3.60,-3.36,2.50,2.50,2.49
171.57,6.05,3.54,6.05,3.54,-3.54,-3.54,-3.29,2.51,2.50,2.50
173.29,5.99,3.48,5.99,3.49,-3.48,-3.49,-3.21,2.51,2.51,2.50
175.02,5.93,3.42,5.93,3.42,-3.42,-3.43,-3.14,2.51,2.51,2.50
176.77,5.87,3.36,5.87,3.36,-3.36,-3.38,-3.07,2.51,2.51,2.50
178.54,5.81,3.29,5.81,3.30,-3.30,-3.32,-3.00,2.51,2.51,2.51
180.32,5.76,3.24,5.76,3.24,-3.24,-3.27,-2.93,2.52,2.51,2.51
182.13,5.70,3.18,5.70,3.18,-3.18,-3.21,-2.87,2.51,2.51,2.51
183.95,5.64,3.12,5.63,3.12,-3.13,-3.16,-2.81,2.51,2.51,2.51
185.79,5.57,3.06,5.58,3.07,-3.07,-3.10,-2.75,2.49,2.50,2.50
187.65,5.52,3.01,5.52,3.02,-3.02,-3.05,-2.69,2.50,2.50,2.50
189.52,5.48,2.97,5.47,2.97,-2.97,-2.99,-2.64,2.51,2.51,2.50
191.42,5.43,2.92,5.43,2.93,-2.92,-2.93,-2.58,2.51,2.51,2.50
193.33,5.39,2.87,5.39,2.88,-2.87,-2.88,-2.53,2.52,2.52,2.51
195.27,5.34,2.82,5.33,2.82,-2.82,-2.82,-2.48,2.52,2.51,2.51
197.22,5.28,2.76,5.28,2.77,-2.77,-2.77,-2.44,2.51,2.51,2.51
199.19,5.23,2.71,5.24,2.72,-2.73,-2.71,-2.39,2.50,2.51,2.51
201.18,5.20,2.67,5.19,2.67,-2.68,-2.66,-2.35,2.52,2.52,2.52
203.19,5.16,2.63,5.16,2.64,-2.63,-2.60,-2.30,2.53,2.53,2.52
205.23,5.12,2.59,5.12,2.59,-2.58,-2.55,-2.26,2.53,2.53,2.52
207.28,5.08,2.54,5.07,2.54,-2.54,-2.49,-2.22,2.54,2.53,2.53
209.35,5.02,2.48,5.03,2.49,-2.50,-2.44,-2.18,2.52,2.53,2.53
211.44,4.98,2.44,4.98,2.44,-2.45,-2.38,-2.14,2.53,2.53,2.53
213.56,4.94,2.39,4.94,2.40,-2.40,-2.33,-2.11,2.54,2.54,2.54
215.69,4.90,2.35,4.90,2.36,-2.35,-2.27,-2.07,2.55,2.55,2.54
217.85,4.85,2.30,4.85,2.30,-2.29,-2.21,-2.04,2.56,2.56,2.54
220.03,4.80,2.25,4.79,2.25,-2.24,-2.16,-2.00,2.56,2.55,2.54
222.23,4.73,2.17,4.73,2.18,-2.18,-2.10,-1.97,2.54,2.55,2.55
224.45,4.67,2.11,4.67,2.12,-2.13,-2.05,-1.93,2.54,2.54,2.55
226.70,4.62,2.06,4.62,2.06,-2.07,-1.99,-1.90,2.55,2.55,2.55
228.96,4.57,2.01,4.57,2.01,-2.01,-1.94,-1.86,2.56,2.55,2.55
231.25,4.52,1.95,4.52,1.96,-1.96,-1.88,-1.83,2.56,2.56,2.56
233.57,4.47,1.90,4.47,1.90,-1.90,-1.83,-1.79,2.57,2.57,2.56
235.90,4.42,1.84,4.42,1.84,-1.84,-1.77,-1.76,2.58,2.57,2.57
238.26,4.36,1.78,4.36,1.78,-1.78,-1.72,-1.72,2.57,2.58,2.57
240.64,4.31,1.72,4.31,1.73,-1.73,-1.66,-1.68,2.58,2.58,2.58
243.05,4.26,1.66,4.26,1.67,-1.67,-1.61,-1.65,2.59,2.59,2.59
245.48,4.21,1.61,4.21,1.61,-1.61,-1.55,-1.61,2.60,2.60,2.59
247.93,4.15,1.54,4.15,1.55,-1.55,-1.50,-1.57,2.60,2.60,2.60
250.41,4.10,1.48,4.10,1.49,-1.49,-1.44,-1.53,2.61,2.61,2.61
252.92,4.05,1.42,4.05,1.43,-1.43,-1.39,-1.49,2.62,2.62,2.62
255.45,4.00,1.37,4.00,1.37,-1.37,-1.33,-1.44,2.63,2.63,2.62
258.00,3.94,1.30,3.94,1.31,-1.31,-1.28,-1.40,2.63,2.63,2.63
260.58,3.89,1.25,3.89,1.25,-1.25,-1.23,-1.36,2.64,2.64,2.63
263.19,3.83,1.18,3.83,1.19,-1.19,-1.17,-1.31,2.64,2.64,2.64
265.82,3.77,1.12,3.77,1.13,-1.13,-1.12,-1.26,2.64,2.65,2.64
268.48,3.72,1.06,3.72,1.06,-1.06,-1.06,-1.22,2.65,2.65,2.65
271.16,3.66,1.00,3.66,1.00,-1.00,-1.01,-1.17,2.66,2.66,2.65
273.87,3.60,0.94,3.60,0.94,-0.94,-0.95,-1.12,2.66,2.66,2.65
276.61,3.54,0.87,3.54,0.88,-0.88,-0.90,-1.07,2.66,2.66,2.66
279.38,3.48,0.81,3.48,0.82,-0.82,-0.85,-1.02,2.66,2.66,2.66
282.17,3.43,0.76,3.43,0.76,-0.76,-0.79,-0.96,2.67,2.67,2.66
284.99,3.38,0.70,3.37,0.70,-0.70,-0.74,-0.91,2.68,2.67,2.67
287.84,3.32,0.64,3.32,0.64,-0.64,-0.69,-0.86,2.67,2.67,2.67
290.72,3.26,0.58,3.26,0.59,-0.59,-0.63,-0.80,2.67,2.67,2.67
293.63,3.20,0.52,3.20,0.53,-0.53,-0.58,-0.75,2.67,2.67,2.67
296.57,3.15,0.47,3.14,0.47,-0.47,-0.52,-0.69,2.68,2.68,2.67
299.53,3.09,0.41,3.09,0.41,-0.41,-0.47,-0.64,2.68,2.68,2.67
302.53,3.03,0.34,3.03,0.35,-0.35,-0.42,-0.58,2.68,2.68,2.68
305.55,2.98,0.29,2.98,0.29,-0.29,-0.37,-0.52,2.69,2.68,2.68
308.61,2.93,0.23,2.92,0.23,-0.23,-0.31,-0.47,2.70,2.69,2.69
311.69,2.87,0.17,2.87,0.18,-0.17,-0.26,-0.41,2.70,2.70,2.69
314.81,2.82,0.11,2.82,0.12,-0.11,-0.21,-0.35,2.70,2.70,2.70
317.96,2.77,0.06,2.76,0.06,-0.06,-0.15,-0.30,2.71,2.71,2.70
321.14,2.71,-0.01,2.71,-0.00,-0.00,-0.10,-0.24,2.71,2.71,2.71
324.35,2.65,-0.07,2.65,-0.06,0.06,-0.05,-0.18,2.70,2.71,2.71
327.59,2.60,-0.12,2.60,-0.12,0.11,0.00,-0.12,2.71,2.71,2.71
330.87,2.56,-0.17,2.56,-0.16,0.17,0.05,-0.06,2.73,2.73,2.72
334.18,2.52,-0.21,2.51,-0.21,0.22,0.11,-0.00,2.74,2.74,2.72
337.52,2.47,-0.27,2.47,-0.27,0.27,0.16,0.06,2.74,2.74,2.73
340.90,2.41,-0.34,2.41,-0.33,0.33,0.21,0.12,2.73,2.74,2.74
344.30,2.36,-0.39,2.36,-0.39,0.37,0.26,0.18,2.73,2.73,2.74
347.75,2.31,-0.44,2.31,-0.43,0.42,0.31,0.24,2.73,2.73,2.74
351.23,2.27,-0.48,2.27,-0.47,0.47,0.36,0.30,2.74,2.74,2.74
354.74,2.24,-0.52,2.24,-0.51,0.52,0.41,0.36,2.76,2.76,2.75
358.28,2.20,-0.56,2.19,-0.56,0.57,0.46,0.42,2.77,2.76,2.75
361.87,2.15,-0.61,2.15,-0.61,0.62,0.51,0.48,2.77,2.76,2.75
365.49,2.09,-0.67,2.09,-0.66,0.66,0.56,0.55,2.75,2.76,2.75
369.14,2.04,-0.72,2.04,-0.71,0.71,0.61,0.61,2.75,2.75,2.75
372.83,2.00,-0.76,1.99,-0.76,0.76,0.66,0.67,2.75,2.75,2.75
376.56,1.95,-0.82,1.95,-0.81,0.80,0.71,0.73,2.75,2.75,2.76
380.33,1.91,-0.86,1.91,-0.85,0.85,0.76,0.80,2.76,2.76,2.76
384.13,1.88,-0.89,1.87,-0.89,0.89,0.81,0.86,2.77,2.77,2.76
387.97,1.84,-0.93,1.83,-0.93,0.94,0.86,0.93,2.78,2.77,2.76
391.85,1.79,-0.99,1.79,-0.98,0.98,0.91,0.99,2.77,2.78,2.77
395.77,1.75,-1.03,1.75,-1.03,1.03,0.96,1.05,2.78,2.78,2.77
399.73,1.71,-1.08,1.71,-1.07,1.07,1.01,1.12,2.78,2.78,2.78
403.72,1.67,-1.12,1.67,-1.12,1.12,1.06,1.18,2.79,2.79,2.78
407.76,1.63,-1.17,1.63,-1.16,1.16,1.10,1.25,2.79,2.79,2.79
411.84,1.59,-1.21,1.59,-1.21,1.20,1.15,1.31,2.79,2.79,2.79
415.96,1.55,-1.26,1.55,-1.25,1.25,1.20,1.37,2.79,2.80,2.80
420.12,1.52,-1.29,1.52,-1.29,1.28,1.24,1.44,2.80,2.80,2.80
424.32,1.49,-1.32,1.49,-1.32,1.32,1.29,1.50,2.81,2.81,2.80
428.56,1.45,-1.37,1.45,-1.36,1.36,1.34,1.56,2.81,2.81,2.81
432.85,1.42,-1.40,1.42,-1.40,1.40,1.38,1.62,2.82,2.82,2.81
437.18,1.38,-1.44,1.38,-1.44,1.44,1.43,1.68,2.82,2.82,2.81
441.55,1.34,-1.48,1.34,-1.47,1.48,1.47,1.74,2.81,2.81,2.81
445.96,1.30,-1.52,1.30,-1.52,1.51,1.52,1.79,2.81,2.81,2.81
450.42,1.26,-1.56,1.26,-1.55,1.55,1.56,1.85,2.81,2.81,2.81
454.93,1.22,-1.60,1.22,-1.59,1.59,1.61,1.90,2.81,2.81,2.81
459.48,1.19,-1.63,1.19,-1.63,1.63,1.65,1.95,2.82,2.81,2.81
464.07,1.15,-1.67,1.15,-1.66,1.67,1.70,2.00,2.82,2.82,2.81
468.71,1.11,-1.71,1.11,-1.70,1.71,1.74,2.05,2.82,2.82,2.81
473.40,1.07,-1.75,1.07,-1.75,1.75,1.78,2.09,2.82,2.82,2.81
478.13,1.03,-1.80,1.03,-1.79,1.80,1.82,2.13,2.82,2.82,2.82
482.91,0.99,-1.84,0.98,-1.84,1.84,1.87,2.17,2.83,2.82,2.82
487.74,0.94,-1.89,0.94,-1.89,1.88,1.91,2.20,2.82,2.82,2.82
492.62,0.89,-1.94,0.90,-1.93,1.92,1.95,2.24,2.81,2.82,2.82
497.55,0.86,-1.98,0.86,-1.97,1.97,1.99,2.26,2.82,2.82,2.83
502.52,0.83,-2.01,0.82,-2.01,2.00,2.03,2.29,2.83,2.83,2.83
507.55,0.79,-2.05,0.79,-2.04,2.04,2.07,2.31,2.83,2.84,2.83
512.62,0.76,-2.08,0.76,-2.08,2.08,2.11,2.33,2.84,2.84,2.83
517.75,0.73,-2.12,0.73,-2.11,2.12,2.15,2.35,2.85,2.85,2.84
522.93,0.69,-2.16,0.69,-2.15,2.17,2.19,2.36,2.85,2.85,2.84
