frequency,raw,error,smoothed,error_smoothed,equalization,parametric_eq,fixed_band_eq,equalized_raw,equalized_smoothed,target
20.00,0.30,-3.06,0.30,-3.06,3.06,3.03,0.26,3.35,3.36,3.36
20.20,0.36,-2.97,0.36,-2.98,2.98,2.96,0.27,3.33,3.33,3.33
20.40,0.42,-2.89,0.41,-2.89,2.89,2.89,0.28,3.31,3.31,3.31
20.61,0.48,-2.81,0.48,-2.81,2.81,2.83,0.29,3.29,3.29,3.29
20.81,0.54,-2.73,0.54,-2.73,2.73,2.76,0.30,3.27,3.27,3.27
21.02,0.60,-2.65,0.60,-2.65,2.65,2.69,0.31,3.24,3.25,3.25
21.23,0.67,-2.56,0.66,-2.56,2.57,2.63,0.32,3.23,3.23,3.23
21.44,0.73,-2.48,0.73,-2.48,2.48,2.56,0.34,3.21,3.21,3.21
21.66,0.79,-2.40,0.79,-2.40,2.40,2.49,0.35,3.19,3.19,3.19
21.87,0.86,-2.32,0.85,-2.32,2.32,2.42,0.36,3.18,3.17,3.18
22.09,0.92,-2.24,0.92,-2.24,2.24,2.36,0.37,3.15,3.16,3.16
22.31,0.99,-2.16,0.99,-2.16,2.16,2.29,0.39,3.14,3.15,3.15
22.54,1.06,-2.07,1.06,-2.07,2.08,2.22,0.40,3.14,3.14,3.14
22.76,1.14,-1.99,1.14,-1.99,2.00,2.15,0.41,3.13,3.13,3.13
22.99,1.21,-1.91,1.20,-1.91,1.92,2.09,0.43,3.12,3.12,3.12
23.22,1.27,-1.84,1.27,-1.84,1.84,2.02,0.44,3.10,3.10,3.11
23.45,1.33,-1.77,1.33,-1.77,1.76,1.95,0.46,3.09,3.09,3.10
23.69,1.40,-1.69,1.40,-1.69,1.69,1.88,0.47,3.08,3.09,3.09
23.92,1.48,-1.61,1.47,-1.61,1.62,1.82,0.49,3.10,3.09,3.09
24.16,1.55,-1.53,1.54,-1.54,1.55,1.75,0.50,3.10,3.09,3.08
24.40,1.60,-1.48,1.59,-1.48,1.48,1.68,0.52,3.08,3.08,3.08
24.65,1.64,-1.43,1.64,-1.43,1.42,1.61,0.53,3.06,3.07,3.07
24.89,1.70,-1.37,1.70,-1.37,1.36,1.55,0.55,3.06,3.06,3.07
25.14,1.76,-1.30,1.76,-1.30,1.30,1.48,0.56,3.06,3.06,3.06
25.39,1.82,-1.23,1.81,-1.24,1.24,1.41,0.58,3.06,3.06,3.05
25.65,1.87,-1.18,1.86,-1.18,1.19,1.35,0.59,3.05,3.05,3.05
25.91,1.91,-1.13,1.91,-1.13,1.13,1.28,0.61,3.04,3.04,3.04
26.16,1.96,-1.08,1.96,-1.08,1.07,1.21,0.62,3.03,3.03,3.04
26.43,2.02,-1.02,2.01,-1.02,1.02,1.15,0.63,3.03,3.03,3.04
26.69,2.07,-0.96,2.07,-0.97,0.96,1.08,0.65,3.03,3.03,3.03
26.96,2.12,-0.91,2.12,-0.91,0.91,1.01,0.66,3.02,3.03,3.03
27.23,2.18,-0.84,2.17,-0.85,0.85,0.95,0.67,3.03,3.03,3.02
27.50,2.23,-0.79,2.23,-0.79,0.80,0.88,0.68,3.02,3.02,3.02
27.77,2.29,-0.73,2.28,-0.73,0.74,0.82,0.69,3.02,3.02,3.02
28.05,2.33,-0.68,2.33,-0.68,0.68,0.75,0.70,3.01,3.01,3.01
28.33,2.38,-0.63,2.38,-0.63,0.63,0.69,0.70,3.00,3.00,3.01
28.62,2.43,-0.58,2.43,-0.57,0.57,0.63,0.71,3.00,3.00,3.01
28.90,2.49,-0.51,2.49,-0.52,0.52,0.56,0.71,3.00,3.00,3.00
29.19,2.55,-0.45,2.54,-0.46,0.46,0.50,0.71,3.01,3.00,3.00
29.48,2.60,-0.40,2.60,-0.40,0.41,0.43,0.71,3.00,3.00,3.00
29.78,2.65,-0.35,2.65,-0.35,0.35,0.37,0.70,2.99,3.00,3.00
30.08,2.71,-0.29,2.70,-0.30,0.29,0.31,0.70,3.00,2.99,3.00
30.38,2.75,-0.24,2.75,-0.24,0.23,0.25,0.69,2.98,2.98,2.99
30.68,2.81,-0.18,2.81,-0.18,0.18,0.19,0.68,2.98,2.98,2.99
30.99,2.87,-0.12,2.87,-0.12,0.12,0.13,0.67,2.99,2.99,2.99
31.30,2.94,-0.05,2.93,-0.06,0.07,0.06,0.65,3.00,3.00,2.99
31.61,2.99,0.01,2.98,-0.00,0.01,0.00,0.63,3.00,2.99,2.98
31.93,3.02,0.04,3.02,0.04,-0.04,-0.05,0.61,2.97,2.98,2.98
32.24,3.06,0.08,3.06,0.09,-0.10,-0.11,0.59,2.96,2.96,2.98
32.57,3.11,0.14,3.11,0.13,-0.15,-0.17,0.56,2.96,2.96,2.97
32.89,3.16,0.19,3.16,0.19,-0.20,-0.23,0.53,2.96,2.96,2.97
33.22,3.22,0.25,3.22,0.25,-0.25,-0.29,0.50,2.97,2.97,2.97
33.55,3.27,0.31,3.27,0.30,-0.29,-0.34,0.47,2.97,2.97,2.96
33.89,3.32,0.36,3.31,0.35,-0.34,-0.40,0.43,2.97,2.97,2.96
34.23,3.35,0.39,3.35,0.39,-0.39,-0.45,0.40,2.96,2.96,2.96
34.57,3.38,0.43,3.38,0.43,-0.43,-0.51,0.36,2.94,2.95,2.95
34.92,3.42,0.47,3.42,0.47,-0.48,-0.56,0.32,2.94,2.94,2.95
35.27,3.47,0.52,3.46,0.52,-0.52,-0.62,0.27,2.94,2.94,2.95
35.62,3.51,0.57,3.51,0.56,-0.56,-0.67,0.23,2.94,2.94,2.94
35.97,3.55,0.61,3.55,0.61,-0.61,-0.72,0.18,2.94,2.94,2.94
36.33,3.59,0.65,3.59,0.65,-0.65,-0.77,0.13,2.94,2.94,2.94
36.70,3.63,0.69,3.63,0.69,-0.69,-0.82,0.08,2.93,2.94,2.94
37.06,3.68,0.74,3.67,0.74,-0.74,-0.87,0.03,2.94,2.94,2.94
37.43,3.72,0.79,3.71,0.78,-0.78,-0.92,-0.02,2.94,2.93,2.93
37.81,3.75,0.82,3.75,0.82,-0.82,-0.97,-0.07,2.93,2.93,2.93
38.19,3.79,0.86,3.79,0.86,-0.86,-1.01,-0.13,2.92,2.92,2.93
38.57,3.83,0.91,3.82,0.90,-0.91,-1.06,-0.18,2.92,2.92,2.92
38.95,3.87,0.95,3.86,0.95,-0.95,-1.10,-0.24,2.92,2.91,2.92
39.34,3.90,0.99,3.90,0.99,-1.00,-1.15,-0.30,2.90,2.90,2.91
39.74,3.94,1.03,3.94,1.03,-1.04,-1.19,-0.36,2.90,2.90,2.91
40.14,3.99,1.09,3.98,1.08,-1.08,-1.23,-0.41,2.90,2.90,2.90
40.54,4.03,1.13,4.03,1.13,-1.12,-1.27,-0.48,2.91,2.91,2.90
40.94,4.07,1.17,4.07,1.17,-1.16,-1.31,-0.54,2.91,2.91,2.90
41.35,4.10,1.20,4.10,1.20,-1.19,-1.35,-0.60,2.91,2.91,2.90
41.76,4.13,1.23,4.12,1.23,-1.22,-1.39,-0.66,2.90,2.90,2.90
42.18,4.15,1.25,4.15,1.25,-1.25,-1.42,-0.72,2.89,2.90,2.90
42.60,4.18,1.28,4.18,1.27,-1.28,-1.46,-0.79,2.89,2.89,2.90
43.03,4.21,1.30,4.21,1.30,-1.32,-1.50,-0.85,2.89,2.89,2.91
43.46,4.25,1.34,4.25,1.34,-1.35,-1.53,-0.92,2.90,2.90,2.91
43.90,4.29,1.38,4.29,1.38,-1.38,-1.56,-0.98,2.91,2.91,2.91
44.33,4.33,1.42,4.33,1.42,-1.41,-1.59,-1.05,2.92,2.92,2.91
44.78,4.37,1.46,4.36,1.45,-1.44,-1.62,-1.12,2.93,2.92,2.91
45.23,4.39,1.48,4.39,1.48,-1.47,-1.65,-1.19,2.92,2.92,2.91
45.68,4.42,1.51,4.41,1.51,-1.50,-1.68,-1.26,2.91,2.91,2.91
46.13,4.44,1.53,4.44,1.53,-1.54,-1.71,-1.33,2.90,2.90,2.91
46.60,4.47,1.56,4.47,1.56,-1.57,-1.74,-1.40,2.89,2.89,2.91
47.06,4.51,1.60,4.50,1.60,-1.61,-1.76,-1.47,2.89,2.89,2.91
47.53,4.55,1.65,4.55,1.65,-1.65,-1.79,-1.54,2.89,2.89,2.90
48.01,4.60,1.70,4.60,1.70,-1.70,-1.81,-1.62,2.90,2.90,2.90
48.49,4.65,1.75,4.64,1.75,-1.74,-1.83,-1.69,2.90,2.90,2.90
48.97,4.69,1.79,4.69,1.79,-1.79,-1.86,-1.76,2.90,2.90,2.90
49.46,4.74,1.84,4.73,1.84,-1.82,-1.88,-1.84,2.91,2.91,2.90
49.96,4.77,1.87,4.77,1.87,-1.86,-1.90,-1.91,2.91,2.91,2.90
50.46,4.81,1.91,4.80,1.90,-1.89,-1.92,-1.98,2.92,2.91,2.90
50.96,4.82,1.92,4.82,1.91,-1.91,-1.93,-2.06,2.91,2.91,2.90
51.47,4.83,1.92,4.83,1.93,-1.93,-1.95,-2.13,2.89,2.90,2.91
51.99,4.85,1.94,4.85,1.94,-1.95,-1.97,-2.21,2.89,2.89,2.91
52.51,4.87,1.96,4.87,1.96,-1.97,-1.98,-2.28,2.89,2.90,2.91
53.03,4.90,1.99,4.90,1.99,-1.99,-2.00,-2.35,2.91,2.91,2.91
53.56,4.93,2.02,4.92,2.01,-2.01,-2.01,-2.42,2.91,2.91,2.91
54.10,4.96,2.04,4.95,2.04,-2.03,-2.03,-2.49,2.92,2.92,2.92
54.64,4.98,2.06,4.98,2.06,-2.06,-2.04,-2.56,2.92,2.92,2.92
55.18,5.01,2.09,5.00,2.08,-2.08,-2.05,-2.62,2.92,2.92,2.92
55.74,5.03,2.11,5.03,2.10,-2.11,-2.06,-2.69,2.92,2.92,2.92
56.29,5.05,2.12,5.05,2.13,-2.13,-2.07,-2.75,2.92,2.92,2.93
56.86,5.08,2.15,5.08,2.15,-2.15,-2.08,-2.81,2.92,2.92,2.93
57.42,5.11,2.18,5.11,2.17,-2.18,-2.09,-2.86,2.93,2.93,2.93
58.00,5.14,2.20,5.14,2.20,-2.20,-2.10,-2.92,2.94,2.94,2.94
58.58,5.17,2.23,5.16,2.23,-2.22,-2.11,-2.96,2.95,2.95,2.94
59.16,5.19,2.25,5.19,2.24,-2.24,-2.12,-3.01,2.95,2.95,2.94
59.76,5.21,2.26,5.20,2.26,-2.26,-2.13,-3.05,2.95,2.95,2.95
60.35,5.22,2.27,5.22,2.27,-2.27,-2.14,-3.09,2.94,2.95,2.95
60.96,5.24,2.29,5.23,2.29,-2.29,-2.14,-3.12,2.95,2.95,2.95
61.57,5.25,2.30,5.25,2.30,-2.30,-2.15,-3.15,2.95,2.95,2.95
62.18,5.27,2.32,5.26,2.32,-2.31,-2.16,-3.17,2.95,2.95,2.95
62.80,5.28,2.33,5.28,2.33,-2.33,-2.17,-3.19,2.95,2.95,2.95
63.43,5.30,2.35,5.29,2.35,-2.35,-2.17,-3.20,2.95,2.95,2.95
64.07,5.31,2.36,5.31,2.36,-2.37,-2.18,-3.21,2.94,2.94,2.95
64.71,5.34,2.39,5.33,2.39,-2.39,-2.19,-3.22,2.94,2.94,2.95
65.35,5.36,2.41,5.36,2.41,-2.42,-2.19,-3.22,2.94,2.94,2.95
66.01,5.40,2.45,5.39,2.45,-2.45,-2.20,-3.21,2.95,2.95,2.95
66.67,5.43,2.48,5.43,2.48,-2.48,-2.21,-3.21,2.95,2.95,2.95
67.33,5.46,2.51,5.46,2.51,-2.51,-2.21,-3.20,2.95,2.95,2.95
68.01,5.49,2.54,5.48,2.54,-2.54,-2.22,-3.18,2.95,2.95,2.95
68.69,5.51,2.56,5.51,2.56,-2.56,-2.23,-3.17,2.94,2.95,2.95
69.37,5.54,2.59,5.53,2.59,-2.59,-2.23,-3.15,2.95,2.95,2.95
70.07,5.56,2.61,5.56,2.61,-2.60,-2.24,-3.13,2.95,2.95,2.95
70.77,5.58,2.63,5.57,2.62,-2.62,-2.25,-3.10,2.96,2.96,2.95
71.48,5.59,2.63,5.59,2.63,-2.62,-2.26,-3.08,2.97,2.97,2.96
72.19,5.59,2.63,5.59,2.63,-2.62,-2.26,-3.05,2.97,2.97,2.96
72.91,5.59,2.63,5.58,2.62,-2.61,-2.27,-3.02,2.97,2.97,2.96
73.64,5.57,2.61,5.57,2.61,-2.61,-2.28,-2.99,2.96,2.96,2.96
74.38,5.56,2.59,5.56,2.59,-2.60,-2.29,-2.97,2.96,2.96,2.97
75.12,5.55,2.58,5.55,2.58,-2.59,-2.30,-2.94,2.95,2.96,2.97
75.87,5.56,2.58,5.55,2.58,-2.59,-2.31,-2.91,2.96,2.96,2.98
76.63,5.57,2.59,5.57,2.59,-2.59,-2.32,-2.88,2.97,2.97,2.98
77.40,5.59,2.61,5.58,2.60,-2.60,-2.33,-2.85,2.98,2.98,2.98
78.17,5.61,2.62,5.60,2.62,-2.62,-2.34,-2.83,2.99,2.99,2.99
78.95,5.63,2.64,5.63,2.64,-2.64,-2.35,-2.80,2.99,2.99,2.99
79.74,5.66,2.67,5.66,2.66,-2.66,-2.36,-2.77,2.99,2.99,2.99
80.54,5.69,2.69,5.69,2.69,-2.69,-2.38,-2.75,3.00,2.99,3.00
81.35,5.72,2.72,5.72,2.72,-2.72,-2.39,-2.73,3.00,3.00,3.00
82.16,5.75,2.75,5.75,2.75,-2.75,-2.40,-2.71,3.00,3.00,3.00
82.98,5.78,2.78,5.78,2.78,-2.78,-2.42,-2.69,3.00,3.00,3.00
83.81,5.81,2.81,5.81,2.81,-2.81,-2.43,-2.67,3.00,3.00,3.00
84.65,5.84,2.83,5.84,2.83,-2.83,-2.45,-2.66,3.00,3.00,3.01
85.50,5.87,2.86,5.86,2.86,-2.86,-2.46,-2.64,3.01,3.01,3.01
86.35,5.89,2.88,5.89,2.88,-2.88,-2.48,-2.63,3.01,3.01,3.01
87.22,5.91,2.90,5.90,2.90,-2.89,-2.49,-2.62,3.02,3.02,3.01
88.09,5.92,2.91,5.91,2.91,-2.90,-2.51,-2.62,3.02,3.02,3.01
88.97,5.92,2.91,5.92,2.91,-2.90,-2.52,-2.61,3.01,3.02,3.01
89.86,5.92,2.91,5.91,2.91,-2.90,-2.54,-2.61,3.01,3.01,3.01
90.76,5.91,2.90,5.91,2.90,-2.90,-2.56,-2.61,3.00,3.00,3.01
91.66,5.90,2.89,5.90,2.89,-2.90,-2.58,-2.61,3.00,3.00,3.01
92.58,5.90,2.89,5.90,2.89,-2.90,-2.59,-2.61,3.00,3.00,3.01
93.51,5.90,2.89,5.90,2.89,-2.89,-2.61,-2.62,3.01,3.00,3.01
94.44,5.90,2.89,5.90,2.89,-2.89,-2.63,-2.62,3.01,3.01,3.01
95.39,5.90,2.89,5.90,2.89,-2.88,-2.65,-2.63,3.01,3.01,3.01
96.34,5.90,2.89,5.90,2.88,-2.88,-2.67,-2.64,3.01,3.01,3.01
97.30,5.90,2.88,5.90,2.88,-2.88,-2.68,-2.65,3.01,3.01,3.02
98.28,5.90,2.88,5.90,2.88,-2.88,-2.70,-2.67,3.01,3.01,3.02
99.26,5.90,2.88,5.90,2.88,-2.88,-2.72,-2.68,3.01,3.01,3.02
100.25,5.90,2.88,5.90,2.88,-2.88,-2.74,-2.70,3.02,3.02,3.02
101.25,5.90,2.88,5.90,2.88,-2.88,-2.76,-2.72,3.02,3.02,3.02
102.27,5.90,2.88,5.90,2.88,-2.88,-2.78,-2.74,3.02,3.02,3.02
103.29,5.90,2.88,5.90,2.88,-2.87,-2.80,-2.76,3.03,3.03,3.02
104.32,5.90,2.87,5.90,2.87,-2.86,-2.81,-2.78,3.03,3.03,3.03
105.37,5.90,2.87,5.89,2.87,-2.86,-2.83,-2.80,3.04,3.04,3.03
106.42,5.89,2.86,5.88,2.85,-2.85,-2.85,-2.82,3.03,3.03,3.03
107.48,5.88,2.84,5.88,2.84,-2.85,-2.87,-2.84,3.03,3.03,3.04
108.56,5.87,2.83,5.87,2.83,-2.84,-2.88,-2.86,3.02,3.03,3.04
109.64,5.88,2.84,5.87,2.84,-2.84,-2.90,-2.88,3.03,3.03,3.04
110.74,5.89,2.85,5.88,2.85,-2.85,-2.92,-2.90,3.04,3.04,3.04
111.85,5.90,2.86,5.90,2.86,-2.86,-2.93,-2.92,3.04,3.04,3.04
112.97,5.92,2.87,5.92,2.87,-2.87,-2.95,-2.94,3.04,3.04,3.05
114.10,5.94,2.89,5.94,2.89,-2.89,-2.96,-2.96,3.04,3.04,3.05
115.24,5.97,2.92,5.97,2.92,-2.92,-2.97,-2.98,3.05,3.05,3.05
116.39,6.00,2.95,6.00,2.94,-2.94,-2.99,-2.99,3.05,3.05,3.05
117.55,6.03,2.97,6.03,2.97,-2.97,-3.00,-3.01,3.06,3.06,3.06
118.73,6.06,3.00,6.06,3.00,-3.00,-3.01,-3.02,3.06,3.06,3.06
119.92,6.09,3.03,6.09,3.03,-3.03,-3.02,-3.03,3.06,3.06,3.06
121.12,6.12,3.06,6.12,3.06,-3.05,-3.03,-3.03,3.06,3.06,3.06
122.33,6.15,3.08,6.15,3.08,-3.08,-3.04,-3.04,3.07,3.07,3.07
123.55,6.18,3.11,6.17,3.10,-3.10,-3.05,-3.04,3.07,3.07,3.07
124.79,6.20,3.12,6.20,3.12,-3.12,-3.06,-3.04,3.07,3.07,3.08
126.03,6.22,3.14,6.22,3.14,-3.14,-3.06,-3.03,3.07,3.08,3.08
127.29,6.24,3.15,6.24,3.15,-3.15,-3.07,-3.03,3.08,3.08,3.09
128.57,6.26,3.17,6.25,3.17,-3.16,-3.07,-3.02,3.10,3.09,3.09
129.85,6.27,3.18,6.26,3.17,-3.16,-3.08,-3.01,3.10,3.10,3.09
131.15,6.26,3.17,6.26,3.17,-3.16,-3.08,-2.99,3.10,3.10,3.09
132.46,6.25,3.15,6.25,3.15,-3.15,-3.08,-2.98,3.09,3.09,3.10
133.79,6.23,3.13,6.23,3.13,-3.14,-3.08,-2.96,3.09,3.09,3.10
135.12,6.22,3.12,6.21,3.12,-3.12,-3.08,-2.94,3.10,3.10,3.10
136.48,6.20,3.10,6.19,3.09,-3.09,-3.07,-2.92,3.10,3.10,3.10
137.84,6.17,3.07,6.17,3.07,-3.07,-3.07,-2.89,3.10,3.10,3.10
139.22,6.14,3.04,6.14,3.04,-3.04,-3.06,-2.87,3.10,3.10,3.10
140.61,6.11,3.01,6.11,3.00,-3.01,-3.06,-2.84,3.10,3.10,3.10
142.02,6.08,2.97,6.08,2.97,-2.97,-3.05,-2.81,3.10,3.10,3.11
143.44,6.05,2.94,6.05,2.94,-2.94,-3.04,-2.79,3.11,3.11,3.11
144.87,6.02,2.91,6.02,2.90,-2.90,-3.03,-2.76,3.11,3.11,3.11
146.32,5.99,2.87,5.99,2.87,-2.87,-3.02,-2.73,3.12,3.12,3.12
147.78,5.96,2.84,5.96,2.84,-2.84,-3.01,-2.70,3.12,3.12,3.12
149.26,5.94,2.82,5.93,2.81,-2.81,-3.00,-2.67,3.13,3.12,3.12
150.75,5.91,2.78,5.91,2.79,-2.79,-2.98,-2.65,3.12,3.12,3.13
152.26,5.90,2.77,5.89,2.77,-2.77,-2.97,-2.62,3.13,3.13,3.13
153.78,5.88,2.75,5.88,2.75,-2.75,-2.95,-2.59,3.12,3.12,3.13
155.32,5.88,2.74,5.87,2.74,-2.75,-2.94,-2.57,3.13,3.13,3.14
156.88,5.87,2.73,5.87,2.73,-2.74,-2.92,-2.54,3.13,3.13,3.14
158.44,5.88,2.74,5.88,2.74,-2.74,-2.90,-2.52,3.14,3.14,3.14
160.03,5.89,2.75,5.88,2.75,-2.74,-2.89,-2.50,3.15,3.14,3.14
161.63,5.90,2.76,5.89,2.75,-2.74,-2.87,-2.48,3.15,3.15,3.14
163.24,5.90,2.75,5.90,2.75,-2.75,-2.85,-2.46,3.15,3.15,3.15
164.88,5.90,2.75,5.90,2.75,-2.75,-2.83,-2.44,3.15,3.15,3.15
166.53,5.90,2.75,5.90,2.75,-2.75,-2.82,-2.42,3.15,3.15,3.15
168.19,5.90,2.75,5.90,2.74,-2.75,-2.80,-2.41,3.15,3.15,3.15
169.87,5.90,2.74,5.90,2.74,-2.74,-2.78,-2.39,3.15,3.15,3.16
171.57,5.90,2.74,5.90,2.74,-2.74,-2.77,-2.38,3.16,3.16,3.16
173.29,5.90,2.74,5.90,2.74,-2.74,-2.75,-2.37,3.16,3.16,3.16
175.02,5.90,2.74,5.90,2.73,-2.73,-2.74,-2.37,3.16,3.16,3.16
176.77,5.90,2.73,5.90,2.73,-2.73,-2.72,-2.36,3.16,3.16,3.17
178.54,5.90,2.73,5.90,2.73,-2.73,-2.71,-2.36,3.17,3.17,3.17
180.32,5.90,2.73,5.90,2.73,-2.73,-2.70,-2.36,3.17,3.17,3.17
182.13,5.90,2.73,5.90,2.73,-2.73,-2.68,-2.36,3.17,3.17,3.17
183.95,5.90,2.73,5.90,2.73,-2.73,-2.67,-2.36,3.17,3.17,3.17
185.79,5.90,2.73,5.90,2.73,-2.73,-2.66,-2.36,3.17,3.17,3.17
187.65,5.90,2.73,5.90,2.73,-2.73,-2.65,-2.37,3.17,3.17,3.17
189.52,5.90,2.73,5.90,2.73,-2.73,-2.65,-2.38,3.17,3.17,3.17
191.42,5.90,2.73,5.90,2.73,-2.73,-2.64,-2.38,3.17,3.17,3.17
193.33,5.90,2.73,5.90,2.73,-2.73,-2.63,-2.39,3.17,3.17,3.17
195.27,5.90,2.73,5.90,2.73,-2.73,-2.62,-2.41,3.17,3.16,3.17
197.22,5.90,2.73,5.90,2.73,-2.73,-2.62,-2.42,3.16,3.16,3.17
199.19,5.90,2.73,5.90,2.73,-2.73,-2.61,-2.43,3.16,3.17,3.17
201.18,5.91,2.73,5.91,2.73,-2.73,-2.61,-2.45,3.17,3.17,3.18
203.19,5.92,2.74,5.91,2.73,-2.73,-2.60,-2.46,3.18,3.18,3.18
205.23,5.92,2.73,5.92,2.73,-2.73,-2.60,-2.48,3.19,3.19,3.19
207.28,5.92,2.73,5.91,2.72,-2.72,-2.59,-2.50,3.20,3.19,3.19
209.35,5.90,2.71,5.90,2.71,-2.70,-2.59,-2.52,3.19,3.20,3.19
211.44,5.89,2.69,5.89,2.69,-2.69,-2.59,-2.54,3.20,3.20,3.20
213.56,5.87,2.67,5.86,2.67,-2.66,-2.58,-2.56,3.20,3.20,3.20
215.69,5.84,2.64,5.84,2.64,-2.64,-2.58,-2.57,3.20,3.20,3.20
217.85,5.81,2.61,5.81,2.61,-2.61,-2.57,-2.59,3.20,3.20,3.20
220.03,5.78,2.57,5.78,2.57,-2.57,-2.57,-2.61,3.20,3.20,3.21
222.23,5.75,2.54,5.75,2.54,-2.54,-2.56,-2.63,3.21,3.21,3.21
224.45,5.72,2.51,5.72,2.51,-2.51,-2.55,-2.64,3.21,3.21,3.21
226.70,5.69,2.48,5.69,2.47,-2.47,-2.55,-2.66,3.21,3.21,3.21
228.96,5.66,2.44,5.66,2.44,-2.44,-2.54,-2.67,3.22,3.22,3.22
231.25,5.63,2.41,5.63,2.41,-2.41,-2.53,-2.68,3.22,3.22,3.22
233.57,5.61,2.39,5.60,2.38,-2.38,-2.53,-2.69,3.22,3.22,3.22
235.90,5.58,2.35,5.58,2.36,-2.36,-2.52,-2.70,3.22,3.22,3.23
238.26,5.57,2.34,5.57,2.33,-2.34,-2.51,-2.71,3.23,3.23,3.23
240.64,5.56,2.32,5.55,2.31,-2.32,-2.50,-2.71,3.24,3.23,3.24
243.05,5.55,2.30,5.55,2.30,-2.30,-2.50,-2.71,3.24,3.24,3.25
245.48,5.55,2.29,5.55,2.29,-2.29,-2.49,-2.71,3.25,3.25,3.26
247.93,5.55,2.29,5.55,2.29,-2.28,-2.48,-2.70,3.26,3.27,3.26
250.41,5.56,2.29,5.55,2.28,-2.27,-2.47,-2.70,3.28,3.28,3.27
252.92,5.56,2.28,5.55,2.28,-2.27,-2.46,-2.69,3.29,3.28,3.28
255.45,5.55,2.26,5.55,2.27,-2.27,-2.45,-2.67,3.28,3.29,3.29
258.00,5.56,2.27,5.56,2.26,-2.27,-2.45,-2.66,3.29,3.29,3.29
260.58,5.57,2.27,5.56,2.27,-2.27,-2.44,-2.64,3.29,3.29,3.30
263.19,5.58,2.28,5.58,2.28,-2.28,-2.43,-2.62,3.29,3.29,3.30
265.82,5.60,2.30,5.60,2.29,-2.30,-2.42,-2.59,3.30,3.30,3.30
268.48,5.62,2.31,5.62,2.31,-2.32,-2.41,-2.57,3.30,3.30,3.31
271.16,5.65,2.34,5.65,2.34,-2.34,-2.40,-2.54,3.31,3.31,3.31
273.87,5.68,2.37,5.68,2.36,-2.36,-2.40,-2.51,3.32,3.31,3.31
276.61,5.71,2.39,5.71,2.39,-2.39,-2.39,-2.48,3.32,3.32,3.32
279.38,5.74,2.42,5.74,2.42,-2.42,-2.38,-2.44,3.32,3.32,3.32
282.17,5.77,2.44,5.77,2.44,-2.44,-2.37,-2.41,3.32,3.32,3.33
284.99,5.80,2.47,5.80,2.47,-2.47,-2.36,-2.37,3.32,3.32,3.33
287.84,5.83,2.50,5.83,2.50,-2.50,-2.36,-2.34,3.32,3.32,3.33
290.72,5.86,2.53,5.85,2.53,-2.53,-2.35,-2.30,3.33,3.32,3.33
293.63,5.88,2.55,5.88,2.55,-2.55,-2.34,-2.26,3.32,3.33,3.33
296.57,5.91,2.58,5.91,2.57,-2.57,-2.34,-2.23,3.33,3.33,3.33
299.53,5.93,2.59,5.93,2.59,-2.58,-2.33,-2.19,3.34,3.34,3.34
302.53,5.94,2.60,5.94,2.60,-2.59,-2.32,-2.15,3.35,3.35,3.34
305.55,5.94,2.60,5.93,2.59,-2.58,-2.32,-2.11,3.36,3.35,3.34
308.61,5.92,2.57,5.92,2.57,-2.57,-2.31,-2.08,3.35,3.35,3.35
311.69,5.90,2.55,5.90,2.55,-2.54,-2.31,-2.04,3.35,3.35,3.35
314.81,5.87,2.51,5.87,2.51,-2.52,-2.30,-2.00,3.35,3.35,3.36
317.96,5.84,2.48,5.84,2.48,-2.48,-2.29,-1.97,3.35,3.36,3.36
321.14,5.81,2.44,5.81,2.44,-2.45,-2.29,-1.94,3.36,3.36,3.37
324.35,5.78,2.41,5.78,2.41,-2.41,-2.28,-1.90,3.37,3.37,3.37
327.59,5.75,2.38,5.75,2.37,-2.37,-2.27,-1.87,3.37,3.37,3.37
330.87,5.72,2.34,5.72,2.34,-2.34,-2.26,-1.84,3.37,3.37,3.38
334.18,5.69,2.30,5.69,2.30,-2.31,-2.26,-1.81,3.38,3.38,3.39
337.52,5.67,2.28,5.67,2.27,-2.28,-2.25,-1.78,3.39,3.39,3.39
340.90,5.65,2.25,5.65,2.25,-2.25,-2.24,-1.76,3.40,3.40,3.40
344.30,5.63,2.23,5.62,2.23,-2.22,-2.23,-1.73,3.41,3.40,3.40
347.75,5.60,2.20,5.60,2.20,-2.19,-2.21,-1.71,3.41,3.40,3.40
351.23,5.57,2.17,5.57,2.17,-2.16,-2.20,-1.69,3.40,3.40,3.40
354.74,5.54,2.13,5.54,2.13,-2.14,-2.19,-1.66,3.40,3.40,3.41
358.28,5.52,2.11,5.51,2.10,-2.11,-2.17,-1.64,3.41,3.40,3.41
361.87,5.49,2.08,5.49,2.08,-2.09,-2.15,-1.63,3.40,3.40,3.41
365.49,5.47,2.06,5.47,2.06,-2.06,-2.13,-1.61,3.41,3.41,3.41
369.14,5.45,2.04,5.44,2.04,-2.04,-2.11,-1.59,3.41,3.41,3.41
372.83,5.43,2.02,5.42,2.01,-2.01,-2.09,-1.58,3.41,3.41,3.41
376.56,5.40,1.98,5.40,1.99,-1.99,-2.06,-1.56,3.41,3.41,3.42
380.33,5.38,1.96,5.38,1.96,-1.96,-2.03,-1.55,3.42,3.42,3.42
384.13,5.36,1.94,5.35,1.93,-1.93,-2.00,-1.54,3.43,3.42,3.42
387.97,5.33,1.91,5.32,1.90,-1.89,-1.97,-1.53,3.43,3.43,3.42
391.85,5.29,1.86,5.29,1.86,-1.86,-1.94,-1.52,3.43,3.43,3.43
395.77,5.26,1.83,5.25,1.82,-1.82,-1.90,-1.51,3.43,3.43,3.43
399.73,5.22,1.78,5.22,1.78,-1.79,-1.86,-1.50,3.43,3.43,3.44
403.72,5.19,1.75,5.19,1.75,-1.76,-1.82,-1.50,3.43,3.43,3.44
407.76,5.16,1.71,5.16,1.71,-1.73,-1.78,-1.49,3.43,3.43,3.45
411.84,5.14,1.69,5.14,1.69,-1.69,-1.74,-1.48,3.44,3.45,3.45
415.96,5.13,1.67,5.12,1.67,-1.66,-1.70,-1.48,3.47,3.46,3.46
420.12,5.11,1.65,5.10,1.64,-1.63,-1.65,-1.47,3.48,3.47,3.46
424.32,5.07,1.61,5.07,1.61,-1.60,-1.60,-1.46,3.47,3.47,3.46
428.56,5.03,1.56,5.03,1.56,-1.56,-1.55,-1.46,3.46,3.47,3.47
432.85,4.99,1.52,4.99,1.52,-1.52,-1.50,-1.45,3.46,3.46,3.47
437.18,4.95,1.48,4.95,1.48,-1.48,-1.45,-1.44,3.46,3.46,3.47
441.55,4.91,1.44,4.91,1.44,-1.44,-1.40,-1.43,3.47,3.47,3.47
445.96,4.87,1.40,4.86,1.40,-1.39,-1.35,-1.42,3.47,3.47,3.47
450.42,4.82,1.35,4.82,1.35,-1.35,-1.29,-1.41,3.47,3.47,3.47
454.93,4.77,1.30,4.77,1.30,-1.30,-1.24,-1.40,3.47,3.47,3.47
459.48,4.72,1.25,4.72,1.25,-1.25,-1.19,-1.39,3.46,3.46,3.47
464.07,4.67,1.20,4.67,1.20,-1.21,-1.13,-1.37,3.46,3.46,3.47
468.71,4.63,1.16,4.63,1.16,-1.16,-1.08,-1.35,3.47,3.47,3.47
473.40,4.59,1.12,4.58,1.11,-1.10,-1.02,-1.33,3.48,3.48,3.47
478.13,4.54,1.06,4.53,1.06,-1.05,-0.97,-1.31,3.48,3.48,3.48
482.91,4.48,1.00,4.48,1.00,-1.00,-0.91,-1.29,3.48,3.48,3.48
487.74,4.42,0.94,4.42,0.94,-0.95,-0.86,-1.26,3.47,3.47,3.48
492.62,4.38,0.90,4.37,0.89,-0.90,-0.80,-1.23,3.48,3.48,3.48
497.55,4.33,0.84,4.32,0.84,-0.84,-0.74,-1.19,3.48,3.48,3.49
502.52,4.28,0.79,4.28,0.79,-0.79,-0.69,-1.16,3.49,3.49,3.49
507.55,4.23,0.74,4.23,0.74,-0.74,-0.63,-1.12,3.49,3.49,3.49
512.62,4.18,0.69,4.18,0.69,-0.68,-0.58,-1.08,3.49,3.49,3.49
517.75,4.13,0.63,4.13,0.63,-0.63,-0.52,-1.03,3.50,3.50,3.50
522.93,4.08,0.58,4.07,0.58,-0.57,-0.47,-0.98,3.50,3.50,3.50
528.16,4.02,0.52,4.02,0.52,-0.52,-0.41,-0.93,3.50,3.50,3.50
533.44,3.96,0.46,3.96,0.46,-0.46,-0.36,-0.88,3.50,3.50,3.50
538.77,3.90,0.39,3.90,0.40,-0.40,-0.30,-0.83,3.50,3.50,3.51
544.16,3.85,0.34,3.84,0.34,-0.33,-0.25,-0.77,3.51,3.51,3.51
549.60,3.79,0.28,3.78,0.27,-0.27,-0.19,-0.71,3.52,3.52,3.51
555.10,3.72,0.21,3.72,0.21,-0.20,-0.14,-0.64,3.52,3.52,3.51
