frequency,raw
20.00,-16.73
20.20,-16.38
20.40,-16.06
20.61,-15.73
20.81,-15.39
21.02,-15.06
21.23,-14.72
21.44,-14.38
21.66,-14.02
21.87,-13.65
22.09,-13.29
22.31,-12.93
22.54,-12.58
22.76,-12.22
22.99,-11.88
23.22,-11.55
23.45,-11.21
23.69,-10.88
23.92,-10.54
24.16,-10.19
24.40,-9.84
24.65,-9.50
24.89,-9.15
25.14,-8.81
25.39,-8.46
25.65,-8.14
25.91,-7.81
26.16,-7.44
26.43,-7.11
26.69,-6.75
26.96,-6.40
27.23,-6.04
27.50,-5.69
27.77,-5.34
28.05,-4.99
28.33,-4.65
28.62,-4.32
28.90,-3.98
29.19,-3.64
29.48,-3.30
29.78,-2.95
30.08,-2.61
30.38,-2.27
30.68,-1.92
30.99,-1.57
31.30,-1.23
31.61,-0.88
31.93,-0.54
32.24,-0.19
32.57,0.17
32.89,0.53
33.22,0.88
33.55,1.23
33.89,1.57
34.23,1.91
34.57,2.26
34.92,2.61
35.27,2.96
35.62,3.30
35.97,3.62
36.33,3.95
36.70,4.28
37.06,4.62
37.43,4.98
37.81,5.34
38.19,5.70
38.57,6.04
38.95,6.38
39.34,6.70
39.74,7.03
40.14,7.34
40.54,7.65
40.94,7.96
41.35,8.26
41.76,8.54
42.18,8.80
42.60,9.05
43.03,9.27
43.46,9.48
43.90,9.66
44.33,9.82
44.78,9.94
45.23,10.06
45.68,10.15
46.13,10.24
46.60,10.30
47.06,10.35
47.53,10.38
48.01,10.40
48.49,10.40
48.97,10.39
49.46,10.36
49.96,10.32
50.46,10.27
50.96,10.21
51.47,10.14
51.99,10.05
52.51,9.94
53.03,9.84
53.56,9.75
54.10,9.64
54.64,9.50
55.18,9.37
55.74,9.26
56.29,9.13
56.86,8.97
57.42,8.79
58.00,8.67
58.58,8.63
59.16,8.60
59.76,8.42
60.35,8.16
60.96,7.92
61.57,7.77
62.18,7.62
62.80,7.45
63.43,7.28
64.07,7.15
64.71,7.03
65.35,6.89
66.01,6.76
66.67,6.65
67.33,6.54
68.01,6.41
68.69,6.32
69.37,6.19
70.07,6.07
70.77,5.95
71.48,5.82
72.19,5.69
72.91,5.56
73.64,5.43
74.38,5.32
75.12,5.21
75.87,5.11
76.63,4.99
77.40,4.89
78.17,4.79
78.95,4.68
79.74,4.56
80.54,4.45
81.35,4.34
82.16,4.23
82.98,4.12
83.81,4.02
84.65,3.92
85.50,3.82
86.35,3.72
87.22,3.62
88.09,3.52
88.97,3.42
89.86,3.31
90.76,3.21
91.66,3.11
92.58,3.01
93.51,2.92
94.44,2.83
95.39,2.74
96.34,2.64
97.30,2.55
98.28,2.47
99.26,2.39
100.25,2.32
101.25,2.26
102.27,2.19
103.29,2.12
104.32,2.06
105.37,1.99
106.42,1.91
107.48,1.85
108.56,1.78
109.64,1.71
110.74,1.64
111.85,1.57
112.97,1.49
114.10,1.41
115.24,1.35
116.39,1.27
117.55,1.19
118.73,1.09
119.92,1.00
121.12,0.89
122.33,0.78
123.55,0.68
124.79,0.57
126.03,0.46
127.29,0.36
128.57,0.26
129.85,0.15
131.15,0.04
132.46,-0.05
133.79,-0.15
135.12,-0.25
136.48,-0.35
137.84,-0.45
139.22,-0.53
140.61,-0.61
142.02,-0.68
143.44,-0.77
144.87,-0.85
146.32,-0.94
147.78,-1.04
149.26,-1.12
150.75,-1.21
152.26,-1.30
153.78,-1.38
155.32,-1.47
156.88,-1.55
158.44,-1.64
160.03,-1.72
161.63,-1.80
163.24,-1.87
164.88,-1.94
166.53,-2.01
168.19,-2.09
169.87,-2.16
171.57,-2.21
173.29,-2.28
175.02,-2.34
176.77,-2.41
178.54,-2.46
180.32,-2.52
182.13,-2.57
183.95,-2.63
185.79,-2.68
187.65,-2.73
189.52,-2.80
191.42,-2.85
193.33,-2.89
195.27,-2.95
197.22,-2.99
199.19,-3.04
201.18,-3.07
203.19,-3.12
205.23,-3.16
207.28,-3.18
209.35,-3.22
211.44,-3.26
213.56,-3.31
215.69,-3.36
217.85,-3.41
220.03,-3.46
222.23,-3.49
224.45,-3.53
226.70,-3.55
228.96,-3.57
231.25,-3.59
233.57,-3.59
235.90,-3.61
238.26,-3.61
240.64,-3.63
243.05,-3.63
245.48,-3.67
247.93,-3.69
250.41,-3.70
252.92,-3.73
255.45,-3.77
258.00,-3.79
260.58,-3.81
263.19,-3.84
265.82,-3.86
268.48,-3.89
271.16,-3.89
273.87,-3.91
276.61,-3.92
279.38,-3.92
282.17,-3.93
284.99,-3.94
287.84,-3.96
290.72,-3.97
293.63,-3.98
296.57,-4.01
299.53,-4.04
302.53,-4.06
305.55,-4.08
308.61,-4.09
311.69,-4.12
314.81,-4.13
317.96,-4.16
321.14,-4.18
324.35,-4.21
327.59,-4.23
330.87,-4.25
334.18,-4.28
337.52,-4.30
340.90,-4.33
344.30,-4.37
347.75,-4.43
351.23,-4.49
354.74,-4.57
358.28,-4.66
361.87,-4.76
365.49,-4.86
369.14,-4.95
372.83,-5.01
376.56,-5.04
380.33,-5.06
384.13,-5.05
387.97,-5.03
391.85,-5.01
395.77,-4.98
399.73,-4.95
403.72,-4.91
407.76,-4.89
411.84,-4.88
415.96,-4.86
420.12,-4.86
424.32,-4.88
428.56,-4.91
432.85,-4.96
437.18,-5.01
441.55,-5.07
445.96,-5.14
450.42,-5.19
454.93,-5.23
459.48,-5.25
464.07,-5.27
468.71,-5.28
473.40,-5.29
478.13,-5.29
482.91,-5.29
487.74,-5.29
492.62,-5.28
497.55,-5.28
502.52,-5.28
507.55,-5.28
512.62,-5.28
517.75,-5.28
522.93,-5.27
528.16,-5.27
533.44,-5.25
538.77,-5.24
544.16,-5.23
549.60,-5.21
555.10,-5.18
560.65,-5.15
566.25,-5.11
571.92,-5.05
577.64,-5.00
583.41,-4.93
589.25,-4.86
595.14,-4.80
601.09,-4.71
607.10,-4.63
613.17,-4.56
619.30,-4.49
625.50,-4.43
631.75,-4.38
638.07,-4.30
644.45,-4.21
650.89,-4.12
657.40,-4.03
663.98,-3.94
670.62,-3.84
677.32,-3.74
684.10,-3.65
690.94,-3.55
697.85,-3.45
704.83,-3.35
711.87,-3.27
718.99,-3.18
726.18,-3.10
733.44,-3.02
740.78,-2.93
748.19,-2.84
755.67,-2.74
763.23,-2.65
770.86,-2.55
778.57,-2.45
786.35,-2.35
794.22,-2.25
802.16,-2.14
810.18,-2.05
818.28,-1.95
826.46,-1.86
834.73,-1.76
843.08,-1.67
851.51,-1.58
860.02,-1.49
868.62,-1.39
877.31,-1.30
886.08,-1.21
894.94,-1.11
903.89,-1.01
912.93,-0.91
922.06,-0.81
931.28,-0.72
940.59,-0.61
950.00,-0.51
959.50,-0.42
969.09,-0.31
978.78,-0.19
988.57,-0.10
998.46,-0.02
1008.44,0.05
1018.53,0.09
1028.71,0.10
1039.00,0.10
1049.39,0.06
1059.88,-0.00
1070.48,-0.06
1081.19,-0.14
1092.00,-0.18
1102.92,-0.16
1113.95,-0.07
1125.09,0.11
1136.34,0.35
1147.70,0.63
1159.18,0.94
1170.77,1.26
1182.48,1.60
1194.30,1.92
1206.25,2.18
1218.31,2.39
1230.49,2.54
1242.80,2.66
1255.22,2.76
1267.78,2.83
1280.45,2.88
1293.26,2.93
1306.19,2.97
1319.25,3.00
1332.45,3.02
1345.77,3.03
1359.23,3.05
1372.82,3.07
1386.55,3.10
1400.41,3.15
1414.42,3.18
1428.56,3.22
1442.85,3.26
1457.28,3.28
1471.85,3.28
1486.57,3.26
1501.43,3.21
1516.45,3.15
1531.61,3.13
1546.93,3.20
1562.40,3.26
1578.02,3.27
1593.80,3.26
1609.74,3.25
1625.84,3.26
1642.10,3.26
1658.52,3.24
1675.10,3.22
1691.85,3.18
1708.77,3.14
1725.86,3.10
1743.12,3.06
1760.55,3.03
1778.15,2.99
1795.94,2.93
1813.90,2.85
1832.03,2.74
1850.36,2.63
1868.86,2.52
1887.55,2.40
1906.42,2.28
1925.49,2.17
1944.74,2.05
1964.19,1.94
1983.83,1.84
2003.67,1.77
2023.71,1.78
2043.94,1.90
2064.38,2.16
2085.03,2.53
2105.88,2.88
2126.94,3.10
2148.20,3.14
2169.69,2.96
2191.38,2.69
2213.30,2.41
2235.43,2.22
2257.78,2.14
2280.36,2.18
2303.17,2.34
2326.20,2.59
2349.46,2.88
2372.95,3.16
2396.68,3.38
2420.65,3.50
2444.86,3.55
2469.31,3.55
2494.00,3.57
2518.94,3.63
2544.13,3.83
2569.57,4.13
2595.27,4.47
2621.22,4.78
2647.43,4.96
2673.90,5.00
2700.64,4.96
2727.65,4.94
2754.93,5.02
2782.48,5.13
2810.30,5.17
2838.40,5.13
2866.79,5.05
2895.46,4.93
2924.41,4.76
2953.65,4.51
2983.19,4.19
3013.02,3.85
3043.15,3.54
3073.58,3.26
3104.32,3.04
3135.36,2.86
3166.72,2.75
3198.38,2.69
3230.37,2.66
3262.67,2.66
3295.30,2.66
3328.25,2.68
3361.53,2.71
3395.15,2.74
3429.10,2.76
3463.39,2.72
3498.03,2.62
3533.01,2.51
3568.34,2.46
3604.02,2.45
3640.06,2.48
3676.46,2.51
3713.22,2.57
3750.36,2.64
3787.86,2.73
3825.74,2.84
3864.00,2.97
3902.64,3.06
3941.66,3.04
3981.08,2.87
4020.89,2.43
4061.10,1.73
4101.71,0.79
4142.73,-0.19
4184.15,-1.07
4226.00,-1.71
4268.26,-2.12
4310.94,-2.33
4354.05,-2.40
4397.59,-2.42
4441.56,-2.42
4485.98,-2.39
4530.84,-2.39
4576.15,-2.44
4621.91,-2.49
4668.13,-2.58
4714.81,-2.66
4761.96,-2.75
4809.58,-2.80
4857.67,-2.83
4906.25,-2.81
4955.31,-2.66
5004.87,-2.35
5054.91,-1.84
5105.46,-1.12
5156.52,-0.22
5208.08,0.86
5260.16,2.03
5312.77,3.21
5365.89,4.29
5419.55,5.16
5473.75,5.82
5528.49,6.30
5583.77,6.61
5639.61,6.80
5696.00,6.96
5752.96,7.10
5810.49,7.18
5868.60,7.20
5927.28,7.13
5986.56,6.98
6046.42,6.72
6106.89,6.41
6167.96,6.06
6229.64,5.69
6291.93,5.25
6354.85,4.79
6418.40,4.46
6482.58,4.30
6547.41,4.27
6612.88,4.33
6679.01,4.34
6745.80,4.30
6813.26,4.21
6881.39,4.08
6950.21,3.88
7019.71,3.62
7089.91,3.18
7160.81,2.53
7232.41,1.81
7304.74,1.11
7377.79,0.42
7451.56,-0.23
7526.08,-0.89
7601.34,-1.47
7677.35,-1.95
7754.13,-2.23
7831.67,-2.38
7909.98,-2.45
7989.08,-2.50
8068.98,-2.53
8149.67,-2.56
8231.16,-2.55
8313.47,-2.57
8396.61,-2.61
8480.57,-2.65
8565.38,-2.75
8651.03,-2.86
8737.54,-2.97
8824.92,-3.11
8913.17,-3.29
9002.30,-3.63
9092.32,-4.31
9183.25,-5.31
9275.08,-6.62
9367.83,-8.09
9461.51,-9.53
9556.12,-10.83
9651.68,-11.91
9748.20,-12.77
9845.68,-13.40
9944.14,-13.88
10043.58,-14.05
10144.02,-14.00
10245.46,-13.84
10347.91,-13.63
10451.39,-13.45
10555.91,-13.43
10661.46,-13.58
10768.08,-13.86
10875.76,-14.30
10984.52,-15.05
11094.36,-16.27
11205.31,-16.38
11317.36,-13.55
11430.53,-9.95
11544.84,-7.25
11660.29,-5.12
11776.89,-3.21
11894.66,-1.22
12013.60,0.94
12133.74,3.25
12255.08,5.60
12377.63,7.72
12501.41,9.14
12626.42,9.75
12752.68,9.52
12880.21,8.83
13009.01,7.90
13139.10,6.94
13270.49,6.02
13403.20,5.23
13537.23,4.54
13672.60,3.89
13809.33,3.31
13947.42,2.80
14086.90,2.32
14227.77,1.93
14370.04,1.52
14513.74,0.81
14658.88,0.03
14805.47,-0.43
14953.52,-0.41
15103.06,0.23
15254.09,1.42
15406.63,2.77
15560.70,3.81
15716.30,4.42
15873.47,4.93
16032.20,5.60
16192.52,6.43
16354.45,7.23
16517.99,7.77
16683.17,8.11
16850.01,8.40
17018.51,8.63
17188.69,8.53
17360.58,7.89
17534.18,6.54
17709.53,4.47
17886.62,1.79
18065.49,-1.16
18246.14,-4.25
18428.60,-6.92
18612.89,-8.56
18799.02,-9.11
18987.01,-9.57
19176.88,-10.90
19368.65,-13.36
19562.33,-17.02
19757.96,-21.56
19955.54,-26.00
