frequency,raw,error,smoothed,error_smoothed,equalization,parametric_eq,fixed_band_eq,equalized_raw,equalized_smoothed,target
20.00,2.95,-3.63,2.95,-3.63,3.60,2.00,0.98,6.55,6.55,6.58
20.20,3.01,-3.57,3.01,-3.56,3.56,2.00,1.01,6.57,6.57,6.58
20.40,3.06,-3.51,3.06,-3.51,3.51,2.00,1.04,6.58,6.58,6.57
20.61,3.11,-3.46,3.11,-3.45,3.47,2.00,1.07,6.58,6.58,6.57
20.81,3.15,-3.40,3.15,-3.41,3.43,2.00,1.10,6.58,6.58,6.56
21.02,3.19,-3.36,3.19,-3.37,3.38,2.00,1.13,6.57,6.57,6.55
21.23,3.21,-3.33,3.21,-3.33,3.34,2.00,1.16,6.55,6.55,6.54
21.44,3.24,-3.30,3.24,-3.30,3.30,1.99,1.20,6.54,6.54,6.54
21.66,3.27,-3.26,3.27,-3.27,3.26,1.99,1.23,6.53,6.53,6.53
21.87,3.30,-3.23,3.30,-3.23,3.22,1.99,1.27,6.52,6.52,6.53
22.09,3.34,-3.18,3.34,-3.18,3.18,1.99,1.31,6.52,6.52,6.52
22.31,3.38,-3.14,3.38,-3.14,3.13,1.99,1.35,6.51,6.52,6.52
22.54,3.43,-3.09,3.43,-3.09,3.09,1.99,1.39,6.52,6.52,6.52
22.76,3.47,-3.04,3.47,-3.04,3.04,1.99,1.43,6.51,6.51,6.51
22.99,3.52,-2.99,3.52,-2.99,2.99,1.99,1.47,6.51,6.51,6.51
23.22,3.56,-2.94,3.56,-2.94,2.95,1.99,1.51,6.51,6.51,6.50
23.45,3.60,-2.90,3.60,-2.90,2.91,1.98,1.56,6.51,6.50,6.50
23.69,3.63,-2.87,3.63,-2.86,2.86,1.98,1.60,6.49,6.50,6.50
23.92,3.67,-2.82,3.67,-2.82,2.82,1.98,1.65,6.49,6.49,6.49
24.16,3.70,-2.78,3.70,-2.79,2.78,1.98,1.69,6.48,6.48,6.49
24.40,3.73,-2.75,3.74,-2.75,2.74,1.98,1.74,6.47,6.48,6.48
24.65,3.78,-2.70,3.78,-2.70,2.70,1.98,1.79,6.48,6.47,6.48
24.89,3.82,-2.65,3.82,-2.65,2.65,1.97,1.83,6.47,6.47,6.47
25.14,3.86,-2.61,3.86,-2.61,2.61,1.97,1.88,6.47,6.48,6.47
25.39,3.91,-2.56,3.91,-2.56,2.57,1.97,1.93,6.48,6.48,6.47
25.65,3.94,-2.53,3.94,-2.52,2.53,1.97,1.98,6.47,6.48,6.47
25.91,3.98,-2.49,3.98,-2.49,2.50,1.97,2.03,6.48,6.47,6.47
26.16,4.01,-2.46,4.01,-2.46,2.46,1.96,2.07,6.47,6.47,6.47
26.43,4.03,-2.44,4.03,-2.43,2.43,1.96,2.12,6.46,6.47,6.47
26.69,4.05,-2.40,4.05,-2.41,2.41,1.96,2.17,6.46,6.46,6.46
26.96,4.07,-2.38,4.07,-2.39,2.38,1.96,2.22,6.45,6.45,6.45
27.23,4.09,-2.36,4.09,-2.36,2.36,1.95,2.26,6.45,6.45,6.45
27.50,4.11,-2.34,4.11,-2.34,2.33,1.95,2.31,6.44,6.44,6.45
27.77,4.14,-2.31,4.14,-2.31,2.30,1.95,2.35,6.44,6.44,6.45
28.05,4.17,-2.27,4.17,-2.28,2.27,1.95,2.39,6.44,6.44,6.44
28.33,4.19,-2.25,4.19,-2.24,2.25,1.94,2.43,6.44,6.44,6.44
28.62,4.22,-2.22,4.22,-2.21,2.22,1.94,2.46,6.44,6.44,6.44
28.90,4.24,-2.18,4.24,-2.19,2.19,1.94,2.50,6.43,6.43,6.42
29.19,4.26,-2.16,4.26,-2.16,2.17,1.93,2.53,6.43,6.42,6.42
29.48,4.27,-2.15,4.27,-2.14,2.14,1.93,2.56,6.41,6.42,6.42
29.78,4.29,-2.12,4.29,-2.12,2.12,1.93,2.58,6.41,6.41,6.41
30.08,4.31,-2.10,4.31,-2.10,2.10,1.92,2.60,6.41,6.40,6.41
30.38,4.33,-2.07,4.33,-2.07,2.07,1.92,2.62,6.40,6.40,6.40
30.68,4.35,-2.05,4.35,-2.05,2.05,1.91,2.63,6.40,6.40,6.40
30.99,4.38,-2.02,4.38,-2.02,2.02,1.91,2.65,6.40,6.40,6.40
31.30,4.40,-2.00,4.40,-2.00,2.00,1.91,2.65,6.40,6.40,6.40
31.61,4.43,-1.98,4.43,-1.97,1.97,1.90,2.66,6.40,6.40,6.41
31.93,4.46,-1.94,4.46,-1.95,1.95,1.90,2.66,6.41,6.40,6.40
32.24,4.48,-1.92,4.48,-1.92,1.92,1.89,2.65,6.41,6.41,6.40
32.57,4.50,-1.90,4.50,-1.90,1.90,1.88,2.65,6.40,6.40,6.40
32.89,4.52,-1.88,4.52,-1.88,1.88,1.88,2.64,6.40,6.40,6.40
33.22,4.54,-1.85,4.54,-1.86,1.85,1.87,2.62,6.39,6.39,6.39
33.55,4.55,-1.84,4.56,-1.83,1.83,1.87,2.61,6.38,6.39,6.39
33.89,4.58,-1.81,4.58,-1.81,1.81,1.86,2.58,6.39,6.38,6.39
34.23,4.59,-1.78,4.59,-1.79,1.79,1.85,2.56,6.38,6.38,6.38
34.57,4.61,-1.76,4.61,-1.76,1.76,1.85,2.54,6.37,6.37,6.37
34.92,4.62,-1.74,4.62,-1.74,1.74,1.84,2.51,6.36,6.36,6.36
35.27,4.63,-1.72,4.63,-1.72,1.72,1.83,2.48,6.35,6.35,6.35
35.62,4.64,-1.69,4.64,-1.70,1.70,1.82,2.45,6.34,6.33,6.33
35.97,4.64,-1.69,4.64,-1.68,1.68,1.81,2.42,6.32,6.32,6.33
36.33,4.65,-1.66,4.65,-1.66,1.65,1.80,2.39,6.30,6.31,6.31
36.70,4.66,-1.63,4.66,-1.64,1.63,1.80,2.36,6.29,6.29,6.29
37.06,4.67,-1.61,4.67,-1.61,1.61,1.79,2.32,6.28,6.28,6.28
37.43,4.67,-1.59,4.67,-1.59,1.59,1.78,2.29,6.26,6.27,6.26
37.81,4.68,-1.57,4.68,-1.57,1.57,1.76,2.26,6.25,6.25,6.25
38.19,4.68,-1.55,4.68,-1.55,1.55,1.75,2.22,6.23,6.24,6.23
38.57,4.69,-1.54,4.69,-1.54,1.54,1.74,2.19,6.23,6.22,6.23
38.95,4.69,-1.52,4.69,-1.52,1.52,1.73,2.15,6.21,6.21,6.21
39.34,4.69,-1.51,4.69,-1.51,1.51,1.72,2.12,6.20,6.20,6.20
39.74,4.69,-1.50,4.69,-1.50,1.50,1.71,2.09,6.19,6.19,6.19
40.14,4.70,-1.48,4.70,-1.49,1.49,1.69,2.06,6.19,6.18,6.18
40.54,4.69,-1.48,4.70,-1.48,1.48,1.68,2.03,6.17,6.18,6.17
40.94,4.70,-1.47,4.70,-1.47,1.47,1.67,2.00,6.17,6.17,6.17
41.35,4.69,-1.47,4.69,-1.47,1.47,1.66,1.97,6.16,6.16,6.16
41.76,4.69,-1.46,4.69,-1.46,1.46,1.64,1.94,6.15,6.15,6.15
42.18,4.69,-1.46,4.69,-1.46,1.46,1.63,1.92,6.15,6.14,6.15
42.60,4.68,-1.46,4.68,-1.46,1.46,1.62,1.89,6.14,6.14,6.14
43.03,4.68,-1.45,4.68,-1.45,1.45,1.60,1.87,6.14,6.14,6.13
43.46,4.68,-1.45,4.68,-1.45,1.45,1.59,1.85,6.14,6.13,6.13
43.90,4.67,-1.45,4.67,-1.45,1.46,1.58,1.83,6.13,6.13,6.12
44.33,4.66,-1.46,4.66,-1.46,1.46,1.57,1.81,6.12,6.12,6.12
44.78,4.65,-1.46,4.65,-1.46,1.46,1.56,1.79,6.11,6.11,6.11
45.23,4.64,-1.46,4.64,-1.47,1.46,1.55,1.78,6.11,6.11,6.11
45.68,4.63,-1.48,4.63,-1.47,1.47,1.54,1.76,6.10,6.10,6.11
46.13,4.63,-1.47,4.62,-1.47,1.47,1.53,1.75,6.10,6.10,6.10
46.60,4.61,-1.48,4.61,-1.48,1.48,1.52,1.74,6.09,6.09,6.09
47.06,4.60,-1.48,4.60,-1.48,1.48,1.52,1.73,6.08,6.08,6.08
47.53,4.59,-1.48,4.59,-1.48,1.48,1.51,1.72,6.07,6.07,6.07
48.01,4.57,-1.49,4.57,-1.48,1.48,1.51,1.71,6.05,6.06,6.06
48.49,4.56,-1.48,4.56,-1.48,1.48,1.51,1.70,6.04,6.04,6.04
48.97,4.55,-1.48,4.55,-1.48,1.48,1.51,1.70,6.03,6.03,6.03
49.46,4.53,-1.49,4.53,-1.48,1.48,1.51,1.69,6.01,6.01,6.02
49.96,4.52,-1.47,4.52,-1.48,1.48,1.51,1.69,6.00,6.00,5.99
50.46,4.49,-1.49,4.50,-1.48,1.48,1.51,1.69,5.97,5.98,5.98
50.96,4.48,-1.48,4.48,-1.48,1.48,1.51,1.69,5.96,5.96,5.96
51.47,4.46,-1.49,4.46,-1.48,1.48,1.52,1.69,5.94,5.94,5.95
51.99,4.45,-1.47,4.45,-1.48,1.48,1.52,1.69,5.93,5.93,5.92
52.51,4.43,-1.48,4.43,-1.48,1.48,1.53,1.69,5.91,5.91,5.91
53.03,4.40,-1.49,4.41,-1.48,1.49,1.54,1.69,5.89,5.89,5.89
53.56,4.38,-1.49,4.38,-1.49,1.49,1.54,1.69,5.87,5.87,5.87
54.10,4.36,-1.49,4.36,-1.50,1.50,1.55,1.69,5.86,5.86,5.85
54.64,4.33,-1.51,4.33,-1.50,1.51,1.56,1.70,5.84,5.84,5.84
55.18,4.31,-1.51,4.31,-1.52,1.52,1.57,1.70,5.83,5.82,5.82
55.74,4.28,-1.53,4.28,-1.53,1.52,1.58,1.70,5.80,5.81,5.81
56.29,4.26,-1.54,4.26,-1.54,1.53,1.59,1.70,5.79,5.79,5.80
56.86,4.24,-1.54,4.24,-1.54,1.54,1.59,1.71,5.78,5.78,5.78
57.42,4.21,-1.55,4.22,-1.54,1.55,1.60,1.71,5.76,5.76,5.76
58.00,4.19,-1.55,4.19,-1.55,1.55,1.61,1.71,5.74,5.74,5.74
58.58,4.17,-1.55,4.16,-1.56,1.56,1.62,1.71,5.73,5.72,5.72
59.16,4.13,-1.57,4.14,-1.56,1.56,1.62,1.71,5.69,5.70,5.70
59.76,4.11,-1.57,4.11,-1.57,1.57,1.63,1.71,5.68,5.68,5.68
60.35,4.08,-1.58,4.08,-1.57,1.57,1.64,1.71,5.65,5.65,5.66
60.96,4.05,-1.57,4.05,-1.58,1.58,1.64,1.70,5.63,5.63,5.63
61.57,4.02,-1.58,4.02,-1.58,1.58,1.65,1.70,5.61,5.60,5.60
62.18,3.98,-1.60,3.98,-1.59,1.59,1.65,1.69,5.57,5.57,5.58
62.80,3.95,-1.59,3.95,-1.60,1.59,1.66,1.69,5.54,5.54,5.54
63.43,3.92,-1.60,3.92,-1.60,1.60,1.66,1.68,5.52,5.52,5.52
64.07,3.88,-1.60,3.88,-1.60,1.60,1.66,1.67,5.48,5.49,5.48
64.71,3.85,-1.61,3.85,-1.61,1.61,1.67,1.66,5.46,5.46,5.46
65.35,3.81,-1.62,3.82,-1.61,1.62,1.67,1.65,5.43,5.43,5.43
66.01,3.78,-1.62,3.78,-1.62,1.62,1.67,1.64,5.40,5.40,5.40
66.67,3.75,-1.62,3.74,-1.63,1.63,1.67,1.63,5.38,5.37,5.37
67.33,3.70,-1.64,3.71,-1.63,1.63,1.67,1.62,5.33,5.34,5.34
68.01,3.67,-1.64,3.67,-1.64,1.64,1.67,1.61,5.31,5.31,5.31
68.69,3.64,-1.64,3.63,-1.65,1.64,1.67,1.59,5.28,5.28,5.28
69.37,3.60,-1.65,3.60,-1.65,1.64,1.67,1.58,5.25,5.25,5.25
70.07,3.56,-1.65,3.56,-1.65,1.65,1.67,1.56,5.21,5.21,5.22
70.77,3.53,-1.65,3.53,-1.65,1.65,1.67,1.55,5.18,5.18,5.18
71.48,3.49,-1.65,3.49,-1.65,1.65,1.67,1.53,5.14,5.14,5.14
72.19,3.45,-1.65,3.45,-1.65,1.66,1.66,1.52,5.11,5.11,5.10
72.91,3.41,-1.66,3.41,-1.66,1.66,1.66,1.50,5.07,5.07,5.07
73.64,3.37,-1.66,3.37,-1.66,1.66,1.66,1.49,5.03,5.03,5.03
74.38,3.32,-1.68,3.33,-1.67,1.67,1.65,1.47,4.99,5.00,5.00
75.12,3.29,-1.67,3.28,-1.68,1.67,1.65,1.46,4.96,4.96,4.96
75.87,3.24,-1.68,3.24,-1.68,1.68,1.65,1.44,4.92,4.92,4.92
76.63,3.20,-1.68,3.20,-1.68,1.68,1.64,1.43,4.88,4.88,4.88
77.40,3.16,-1.68,3.16,-1.68,1.68,1.64,1.41,4.84,4.84,4.84
78.17,3.12,-1.68,3.12,-1.68,1.69,1.63,1.40,4.81,4.80,4.80
78.95,3.07,-1.69,3.07,-1.68,1.69,1.63,1.39,4.76,4.76,4.76
79.74,3.03,-1.68,3.03,-1.69,1.69,1.62,1.38,4.72,4.72,4.71
80.54,2.98,-1.69,2.98,-1.69,1.69,1.62,1.37,4.67,4.67,4.67
81.35,2.94,-1.69,2.94,-1.69,1.69,1.61,1.36,4.63,4.63,4.64
82.16,2.89,-1.70,2.89,-1.70,1.70,1.60,1.35,4.59,4.59,4.59
82.98,2.84,-1.70,2.85,-1.70,1.70,1.60,1.34,4.54,4.55,4.54
83.81,2.81,-1.70,2.80,-1.70,1.70,1.59,1.33,4.51,4.50,4.51
84.65,2.76,-1.70,2.76,-1.70,1.70,1.58,1.33,4.46,4.46,4.46
85.50,2.71,-1.70,2.71,-1.70,1.70,1.58,1.32,4.41,4.42,4.41
86.35,2.67,-1.70,2.66,-1.70,1.70,1.57,1.32,4.37,4.37,4.37
87.22,2.61,-1.71,2.62,-1.71,1.70,1.56,1.32,4.31,4.32,4.32
88.09,2.57,-1.70,2.57,-1.70,1.70,1.55,1.32,4.27,4.27,4.27
88.97,2.52,-1.71,2.52,-1.70,1.70,1.55,1.32,4.22,4.23,4.23
89.86,2.48,-1.70,2.48,-1.70,1.70,1.54,1.32,4.19,4.18,4.18
90.76,2.43,-1.71,2.43,-1.70,1.70,1.53,1.32,4.14,4.14,4.14
91.66,2.38,-1.70,2.38,-1.70,1.70,1.52,1.32,4.09,4.09,4.08
92.58,2.33,-1.70,2.33,-1.70,1.70,1.52,1.32,4.03,4.03,4.03
93.51,2.28,-1.71,2.28,-1.70,1.70,1.51,1.33,3.98,3.98,3.99
94.44,2.23,-1.70,2.23,-1.70,1.70,1.50,1.33,3.93,3.93,3.93
95.39,2.18,-1.70,2.18,-1.70,1.70,1.49,1.34,3.88,3.88,3.88
96.34,2.13,-1.69,2.13,-1.69,1.69,1.49,1.34,3.82,3.82,3.82
97.30,2.08,-1.69,2.08,-1.69,1.68,1.48,1.35,3.76,3.77,3.77
98.28,2.04,-1.67,2.04,-1.67,1.68,1.47,1.36,3.72,3.71,3.71
99.26,1.98,-1.67,1.99,-1.67,1.67,1.46,1.37,3.65,3.65,3.65
100.25,1.94,-1.65,1.94,-1.66,1.66,1.46,1.38,3.60,3.59,3.59
101.25,1.88,-1.66,1.88,-1.65,1.65,1.45,1.39,3.53,3.53,3.54
102.27,1.83,-1.64,1.83,-1.64,1.64,1.44,1.40,3.47,3.47,3.47
103.29,1.78,-1.63,1.78,-1.63,1.63,1.43,1.41,3.41,3.41,3.41
104.32,1.73,-1.62,1.73,-1.62,1.62,1.43,1.42,3.35,3.35,3.35
105.37,1.68,-1.61,1.68,-1.61,1.62,1.42,1.43,3.30,3.29,3.29
106.42,1.62,-1.61,1.62,-1.61,1.61,1.41,1.44,3.23,3.23,3.23
107.48,1.57,-1.61,1.57,-1.60,1.60,1.41,1.45,3.17,3.17,3.18
108.56,1.52,-1.59,1.52,-1.60,1.59,1.40,1.46,3.12,3.11,3.11
109.64,1.47,-1.59,1.47,-1.59,1.59,1.39,1.47,3.06,3.06,3.06
110.74,1.41,-1.59,1.42,-1.58,1.58,1.39,1.48,2.99,3.00,3.00
111.85,1.37,-1.56,1.37,-1.57,1.57,1.38,1.49,2.94,2.94,2.93
112.97,1.31,-1.57,1.31,-1.57,1.57,1.37,1.50,2.88,2.88,2.88
114.10,1.26,-1.55,1.26,-1.56,1.56,1.36,1.50,2.82,2.82,2.81
115.24,1.20,-1.56,1.20,-1.55,1.55,1.36,1.51,2.75,2.75,2.76
116.39,1.15,-1.53,1.15,-1.54,1.54,1.35,1.51,2.69,2.69,2.68
117.55,1.10,-1.52,1.10,-1.53,1.52,1.34,1.51,2.62,2.62,2.62
118.73,1.04,-1.52,1.04,-1.51,1.51,1.33,1.51,2.55,2.55,2.56
119.92,0.99,-1.49,0.99,-1.49,1.49,1.33,1.51,2.48,2.48,2.48
121.12,0.94,-1.47,0.94,-1.47,1.47,1.32,1.51,2.41,2.41,2.41
122.33,0.90,-1.44,0.90,-1.44,1.44,1.31,1.50,2.34,2.34,2.34
123.55,0.85,-1.42,0.85,-1.41,1.41,1.30,1.50,2.26,2.26,2.27
124.79,0.81,-1.38,0.81,-1.38,1.38,1.29,1.49,2.19,2.19,2.19
126.03,0.77,-1.34,0.77,-1.35,1.34,1.28,1.47,2.12,2.12,2.11
127.29,0.74,-1.30,0.74,-1.31,1.31,1.27,1.46,2.05,2.05,2.04
128.57,0.70,-1.27,0.70,-1.27,1.28,1.26,1.44,1.98,1.98,1.97
129.85,0.67,-1.24,0.67,-1.24,1.24,1.24,1.43,1.91,1.91,1.91
131.15,0.64,-1.21,0.64,-1.21,1.21,1.23,1.41,1.85,1.85,1.85
132.46,0.61,-1.18,0.61,-1.18,1.18,1.22,1.38,1.79,1.79,1.79
133.79,0.59,-1.14,0.59,-1.15,1.15,1.20,1.36,1.74,1.73,1.73
135.12,0.56,-1.12,0.56,-1.12,1.12,1.19,1.34,1.68,1.68,1.68
136.48,0.54,-1.09,0.54,-1.09,1.09,1.17,1.31,1.63,1.63,1.63
137.84,0.52,-1.06,0.52,-1.06,1.06,1.15,1.28,1.59,1.58,1.58
139.22,0.50,-1.03,0.50,-1.04,1.04,1.13,1.25,1.54,1.54,1.54
140.61,0.47,-1.02,0.47,-1.02,1.02,1.11,1.22,1.49,1.49,1.49
142.02,0.45,-1.00,0.45,-1.00,1.00,1.09,1.19,1.45,1.45,1.45
143.44,0.43,-0.98,0.43,-0.98,0.98,1.07,1.15,1.41,1.41,1.41
144.87,0.41,-0.96,0.41,-0.96,0.96,1.05,1.12,1.37,1.37,1.37
146.32,0.39,-0.94,0.39,-0.94,0.94,1.03,1.09,1.33,1.33,1.33
147.78,0.38,-0.92,0.38,-0.92,0.92,1.00,1.05,1.30,1.30,1.30
149.26,0.36,-0.90,0.36,-0.90,0.90,0.98,1.01,1.26,1.26,1.26
150.75,0.34,-0.88,0.35,-0.88,0.88,0.95,0.98,1.22,1.22,1.23
152.26,0.34,-0.85,0.33,-0.85,0.85,0.93,0.94,1.19,1.19,1.19
153.78,0.32,-0.83,0.32,-0.83,0.83,0.90,0.91,1.15,1.15,1.15
155.32,0.32,-0.80,0.32,-0.80,0.80,0.87,0.87,1.13,1.12,1.12
156.88,0.30,-0.78,0.31,-0.78,0.78,0.85,0.83,1.08,1.09,1.09
158.44,0.30,-0.75,0.30,-0.75,0.75,0.82,0.79,1.05,1.05,1.05
160.03,0.29,-0.73,0.29,-0.73,0.73,0.79,0.76,1.02,1.02,1.02
161.63,0.28,-0.71,0.28,-0.70,0.71,0.76,0.72,0.99,0.99,0.99
163.24,0.28,-0.68,0.28,-0.68,0.68,0.73,0.68,0.96,0.96,0.96
164.88,0.27,-0.66,0.27,-0.66,0.66,0.70,0.65,0.93,0.93,0.93
166.53,0.27,-0.64,0.27,-0.64,0.64,0.67,0.61,0.91,0.91,0.91
168.19,0.26,-0.62,0.26,-0.62,0.61,0.64,0.58,0.87,0.88,0.88
169.87,0.26,-0.59,0.26,-0.60,0.59,0.60,0.54,0.85,0.85,0.85
171.57,0.26,-0.57,0.26,-0.57,0.57,0.57,0.51,0.83,0.83,0.84
173.29,0.27,-0.54,0.27,-0.54,0.54,0.54,0.47,0.81,0.81,0.81
175.02,0.27,-0.51,0.27,-0.52,0.52,0.51,0.44,0.79,0.79,0.78
176.77,0.27,-0.50,0.28,-0.49,0.49,0.48,0.40,0.76,0.77,0.77
178.54,0.28,-0.46,0.28,-0.47,0.47,0.45,0.37,0.75,0.75,0.75
180.32,0.29,-0.44,0.29,-0.44,0.44,0.42,0.34,0.73,0.73,0.73
182.13,0.29,-0.42,0.29,-0.42,0.42,0.38,0.30,0.71,0.71,0.71
183.95,0.30,-0.39,0.30,-0.39,0.39,0.35,0.27,0.69,0.69,0.69
185.79,0.31,-0.37,0.31,-0.36,0.36,0.32,0.24,0.67,0.67,0.68
187.65,0.32,-0.33,0.32,-0.33,0.33,0.29,0.21,0.65,0.65,0.66
189.52,0.33,-0.30,0.33,-0.31,0.30,0.26,0.17,0.64,0.64,0.64
191.42,0.35,-0.28,0.35,-0.28,0.28,0.23,0.14,0.63,0.62,0.63
193.33,0.36,-0.25,0.36,-0.24,0.25,0.20,0.11,0.61,0.61,0.61
195.27,0.37,-0.22,0.37,-0.22,0.22,0.17,0.08,0.59,0.59,0.59
197.22,0.39,-0.18,0.39,-0.19,0.19,0.13,0.05,0.58,0.58,0.57
199.19,0.40,-0.16,0.40,-0.16,0.16,0.10,0.02,0.56,0.56,0.56
201.18,0.41,-0.14,0.41,-0.13,0.13,0.07,-0.01,0.54,0.55,0.55
203.19,0.43,-0.10,0.43,-0.10,0.10,0.04,-0.04,0.53,0.53,0.53
205.23,0.44,-0.07,0.44,-0.07,0.07,0.01,-0.07,0.51,0.52,0.52
207.28,0.46,-0.04,0.46,-0.04,0.04,-0.02,-0.10,0.50,0.50,0.50
209.35,0.47,-0.02,0.47,-0.01,0.01,-0.05,-0.13,0.48,0.48,0.49
211.44,0.49,0.02,0.49,0.02,-0.02,-0.08,-0.16,0.47,0.47,0.47
213.56,0.51,0.05,0.51,0.05,-0.05,-0.11,-0.19,0.46,0.46,0.46
215.69,0.53,0.09,0.53,0.09,-0.08,-0.14,-0.22,0.45,0.45,0.44
217.85,0.55,0.12,0.55,0.12,-0.12,-0.16,-0.25,0.44,0.44,0.43
220.03,0.57,0.15,0.57,0.15,-0.15,-0.19,-0.27,0.42,0.42,0.42
222.23,0.59,0.18,0.59,0.18,-0.18,-0.22,-0.30,0.41,0.41,0.41
224.45,0.60,0.20,0.60,0.21,-0.21,-0.25,-0.33,0.39,0.39,0.40
226.70,0.62,0.24,0.62,0.24,-0.24,-0.28,-0.36,0.38,0.38,0.39
228.96,0.64,0.27,0.64,0.27,-0.27,-0.31,-0.38,0.37,0.37,0.37
231.25,0.67,0.31,0.66,0.30,-0.30,-0.34,-0.41,0.37,0.36,0.36
233.57,0.68,0.34,0.69,0.34,-0.34,-0.37,-0.44,0.34,0.35,0.34
235.90,0.71,0.38,0.71,0.37,-0.37,-0.40,-0.46,0.34,0.34,0.33
238.26,0.73,0.41,0.73,0.41,-0.41,-0.43,-0.49,0.32,0.32,0.33
240.64,0.75,0.44,0.75,0.44,-0.44,-0.46,-0.51,0.31,0.31,0.31
243.05,0.78,0.48,0.78,0.48,-0.48,-0.49,-0.54,0.30,0.30,0.30
245.48,0.80,0.51,0.80,0.52,-0.51,-0.52,-0.56,0.29,0.29,0.29
247.93,0.83,0.55,0.83,0.55,-0.55,-0.55,-0.59,0.28,0.28,0.28
250.41,0.86,0.59,0.86,0.59,-0.59,-0.58,-0.61,0.27,0.27,0.27
252.92,0.88,0.63,0.88,0.62,-0.63,-0.61,-0.64,0.26,0.26,0.26
255.45,0.91,0.66,0.91,0.66,-0.66,-0.64,-0.66,0.25,0.25,0.25
258.00,0.94,0.70,0.94,0.70,-0.70,-0.67,-0.68,0.24,0.24,0.24
260.58,0.97,0.75,0.97,0.74,-0.74,-0.70,-0.71,0.23,0.23,0.22
263.19,1.00,0.78,1.00,0.78,-0.79,-0.73,-0.73,0.22,0.21,0.22
265.82,1.03,0.83,1.03,0.83,-0.83,-0.76,-0.75,0.20,0.21,0.20
268.48,1.06,0.87,1.06,0.87,-0.87,-0.79,-0.77,0.19,0.19,0.20
271.16,1.10,0.92,1.10,0.91,-0.91,-0.83,-0.80,0.19,0.18,0.18
273.87,1.12,0.95,1.13,0.95,-0.95,-0.86,-0.82,0.17,0.17,0.17
276.61,1.16,1.00,1.16,1.00,-1.00,-0.89,-0.84,0.16,0.16,0.16
279.38,1.18,1.03,1.19,1.04,-1.04,-0.92,-0.87,0.14,0.15,0.15
282.17,1.22,1.08,1.22,1.08,-1.08,-0.96,-0.89,0.14,0.13,0.14
284.99,1.25,1.13,1.25,1.13,-1.13,-0.99,-0.92,0.12,0.12,0.12
287.84,1.28,1.17,1.28,1.17,-1.17,-1.02,-0.94,0.11,0.11,0.11
290.72,1.31,1.22,1.31,1.21,-1.21,-1.06,-0.97,0.10,0.10,0.09
293.63,1.34,1.25,1.34,1.26,-1.25,-1.09,-0.99,0.09,0.09,0.09
296.57,1.37,1.30,1.37,1.30,-1.29,-1.13,-1.02,0.08,0.08,0.07
299.53,1.40,1.34,1.40,1.33,-1.33,-1.16,-1.05,0.07,0.07,0.06
302.53,1.42,1.36,1.42,1.37,-1.37,-1.20,-1.07,0.05,0.05,0.06
305.55,1.45,1.41,1.45,1.40,-1.40,-1.23,-1.10,0.05,0.04,0.04
308.61,1.47,1.43,1.47,1.43,-1.44,-1.27,-1.13,0.03,0.04,0.04
311.69,1.50,1.46,1.50,1.47,-1.47,-1.31,-1.16,0.03,0.03,0.04
314.81,1.53,1.51,1.53,1.50,-1.50,-1.34,-1.19,0.03,0.03,0.02
317.96,1.55,1.53,1.55,1.53,-1.53,-1.38,-1.23,0.02,0.02,0.02
321.14,1.58,1.56,1.58,1.56,-1.56,-1.42,-1.26,0.02,0.01,0.02
324.35,1.59,1.59,1.60,1.59,-1.59,-1.45,-1.29,-0.00,0.00,0.00
327.59,1.62,1.62,1.62,1.62,-1.62,-1.49,-1.33,-0.00,-0.00,0.00
330.87,1.64,1.65,1.64,1.65,-1.65,-1.53,-1.37,-0.01,-0.01,-0.01
334.18,1.67,1.69,1.67,1.69,-1.68,-1.57,-1.40,-0.01,-0.01,-0.02
337.52,1.69,1.71,1.69,1.71,-1.71,-1.61,-1.44,-0.02,-0.02,-0.02
340.90,1.72,1.75,1.71,1.74,-1.74,-1.65,-1.49,-0.02,-0.03,-0.03
344.30,1.73,1.76,1.74,1.77,-1.78,-1.69,-1.53,-0.04,-0.04,-0.03
347.75,1.76,1.81,1.76,1.81,-1.81,-1.73,-1.57,-0.05,-0.05,-0.05
351.23,1.79,1.85,1.78,1.84,-1.84,-1.77,-1.62,-0.05,-0.06,-0.06
354.74,1.80,1.87,1.81,1.87,-1.87,-1.80,-1.66,-0.07,-0.06,-0.07
358.28,1.82,1.89,1.82,1.90,-1.90,-1.84,-1.71,-0.08,-0.07,-0.07
361.87,1.85,1.93,1.84,1.93,-1.93,-1.88,-1.76,-0.08,-0.09,-0.08
365.49,1.86,1.96,1.86,1.96,-1.96,-1.92,-1.81,-0.10,-0.10,-0.10
369.14,1.88,1.99,1.88,1.99,-1.99,-1.96,-1.86,-0.11,-0.11,-0.11
372.83,1.91,2.03,1.90,2.02,-2.02,-2.00,-1.91,-0.11,-0.12,-0.12
376.56,1.92,2.05,1.92,2.06,-2.05,-2.04,-1.97,-0.13,-0.13,-0.13
380.33,1.94,2.08,1.94,2.09,-2.08,-2.08,-2.02,-0.14,-0.14,-0.14
384.13,1.96,2.12,1.96,2.11,-2.11,-2.11,-2.08,-0.15,-0.16,-0.15
387.97,1.98,2.15,1.98,2.14,-2.14,-2.15,-2.13,-0.16,-0.17,-0.17
391.85,1.99,2.17,1.99,2.17,-2.17,-2.19,-2.19,-0.18,-0.18,-0.18
395.77,2.01,2.20,2.01,2.20,-2.20,-2.22,-2.25,-0.19,-0.19,-0.19
399.73,2.03,2.23,2.03,2.23,-2.23,-2.26,-2.31,-0.20,-0.20,-0.20
403.72,2.05,2.25,2.05,2.25,-2.25,-2.29,-2.37,-0.20,-0.21,-0.20
407.76,2.06,2.27,2.06,2.28,-2.28,-2.33,-2.43,-0.22,-0.21,-0.21
411.84,2.08,2.31,2.08,2.31,-2.31,-2.36,-2.48,-0.23,-0.22,-0.22
415.96,2.10,2.34,2.10,2.33,-2.33,-2.39,-2.54,-0.23,-0.24,-0.24
420.12,2.11,2.36,2.11,2.36,-2.36,-2.42,-2.60,-0.25,-0.25,-0.25
424.32,2.12,2.38,2.13,2.38,-2.38,-2.45,-2.66,-0.26,-0.26,-0.26
428.56,2.14,2.41,2.14,2.41,-2.41,-2.47,-2.71,-0.27,-0.27,-0.27
432.85,2.16,2.44,2.16,2.44,-2.44,-2.50,-2.77,-0.28,-0.28,-0.28
437.18,2.17,2.46,2.17,2.46,-2.46,-2.52,-2.82,-0.29,-0.29,-0.29
441.55,2.18,2.48,2.18,2.49,-2.49,-2.54,-2.87,-0.31,-0.30,-0.30
445.96,2.19,2.51,2.19,2.51,-2.51,-2.56,-2.92,-0.32,-0.32,-0.32
450.42,2.20,2.53,2.20,2.53,-2.54,-2.58,-2.96,-0.34,-0.34,-0.33
454.93,2.21,2.56,2.21,2.56,-2.56,-2.59,-3.00,-0.35,-0.35,-0.34
459.48,2.22,2.59,2.22,2.58,-2.58,-2.61,-3.04,-0.36,-0.36,-0.37
464.07,2.23,2.61,2.23,2.61,-2.61,-2.62,-3.07,-0.38,-0.38,-0.38
468.71,2.24,2.63,2.24,2.63,-2.63,-2.62,-3.10,-0.39,-0.39,-0.39
473.40,2.25,2.65,2.25,2.65,-2.65,-2.63,-3.13,-0.40,-0.40,-0.40
478.13,2.25,2.67,2.25,2.67,-2.67,-2.63,-3.14,-0.42,-0.41,-0.42
482.91,2.26,2.69,2.25,2.68,-2.68,-2.64,-3.16,-0.42,-0.43,-0.43
487.74,2.25,2.69,2.25,2.69,-2.69,-2.63,-3.16,-0.44,-0.44,-0.44
492.62,2.25,2.70,2.25,2.70,-2.71,-2.63,-3.16,-0.46,-0.45,-0.45
497.55,2.25,2.71,2.25,2.71,-2.72,-2.62,-3.16,-0.46,-0.47,-0.46
502.52,2.25,2.72,2.24,2.72,-2.72,-2.62,-3.15,-0.47,-0.48,-0.47
507.55,2.23,2.72,2.24,2.73,-2.73,-2.60,-3.13,-0.50,-0.49,-0.49
512.62,2.23,2.73,2.23,2.73,-2.73,-2.59,-3.11,-0.50,-0.50,-0.50
517.75,2.22,2.73,2.22,2.73,-2.73,-2.58,-3.08,-0.51,-0.51,-0.51
522.93,2.20,2.73,2.21,2.73,-2.73,-2.56,-3.05,-0.53,-0.52,-0.52
528.16,2.19,2.73,2.19,2.72,-2.72,-2.54,-3.01,-0.53,-0.53,-0.53
533.44,2.17,2.72,2.17,2.72,-2.71,-2.51,-2.96,-0.54,-0.54,-0.55
538.77,2.15,2.71,2.15,2.70,-2.70,-2.49,-2.91,-0.55,-0.55,-0.56
544.16,2.12,2.69,2.12,2.69,-2.68,-2.46,-2.86,-0.56,-0.56,-0.57
549.60,2.09,2.66,2.09,2.66,-2.66,-2.43,-2.80,-0.57,-0.57,-0.57
555.10,2.06,2.64,2.06,2.64,-2.64,-2.40,-2.73,-0.58,-0.58,-0.58
