frequency,raw,error,smoothed,error_smoothed,equalization,parametric_eq,fixed_band_eq,equalized_raw,equalized_smoothed,target
20.00,11.28,9.99,11.28,9.99,-9.99,-8.78,-4.28,1.29,1.29,1.29
20.20,11.31,9.93,11.31,9.93,-9.93,-8.78,-4.39,1.38,1.38,1.38
20.40,11.34,9.87,11.34,9.88,-9.88,-8.79,-4.51,1.47,1.47,1.47
20.61,11.37,9.83,11.37,9.82,-9.83,-8.79,-4.63,1.55,1.55,1.54
20.81,11.40,9.77,11.40,9.78,-9.78,-8.80,-4.75,1.63,1.63,1.63
21.02,11.43,9.72,11.43,9.73,-9.73,-8.80,-4.88,1.70,1.70,1.71
21.23,11.46,9.69,11.46,9.69,-9.69,-8.80,-5.01,1.77,1.77,1.77
21.44,11.49,9.66,11.49,9.66,-9.66,-8.81,-5.14,1.84,1.83,1.83
21.66,11.52,9.63,11.52,9.63,-9.63,-8.81,-5.28,1.90,1.89,1.90
21.87,11.54,9.60,11.55,9.60,-9.60,-8.82,-5.42,1.94,1.95,1.95
22.09,11.57,9.58,11.57,9.57,-9.58,-8.82,-5.57,2.00,2.00,2.00
22.31,11.60,9.56,11.60,9.56,-9.56,-8.83,-5.72,2.04,2.04,2.05
22.54,11.63,9.54,11.63,9.54,-9.54,-8.83,-5.87,2.09,2.09,2.10
22.76,11.66,9.53,11.66,9.53,-9.52,-8.83,-6.03,2.14,2.14,2.14
22.99,11.69,9.52,11.69,9.51,-9.51,-8.84,-6.19,2.18,2.18,2.17
23.22,11.71,9.50,11.72,9.50,-9.49,-8.84,-6.36,2.22,2.22,2.21
23.45,11.74,9.48,11.74,9.48,-9.48,-8.85,-6.53,2.26,2.26,2.26
23.69,11.77,9.47,11.77,9.47,-9.47,-8.85,-6.70,2.31,2.30,2.30
23.92,11.79,9.45,11.80,9.45,-9.45,-8.86,-6.88,2.34,2.35,2.34
24.16,11.82,9.43,11.82,9.43,-9.43,-8.86,-7.06,2.39,2.39,2.39
24.40,11.84,9.41,11.85,9.42,-9.42,-8.87,-7.24,2.42,2.43,2.43
24.65,11.87,9.41,11.87,9.40,-9.40,-8.87,-7.43,2.47,2.47,2.46
24.89,11.89,9.39,11.89,9.39,-9.39,-8.88,-7.62,2.50,2.50,2.50
25.14,11.91,9.37,11.92,9.38,-9.38,-8.88,-7.82,2.54,2.54,2.54
25.39,11.94,9.36,11.94,9.36,-9.37,-8.89,-8.01,2.58,2.58,2.58
25.65,11.97,9.35,11.97,9.35,-9.35,-8.89,-8.21,2.62,2.62,2.62
25.91,11.99,9.35,11.99,9.34,-9.34,-8.90,-8.41,2.65,2.65,2.65
26.16,12.01,9.33,12.01,9.33,-9.33,-8.91,-8.61,2.68,2.69,2.69
26.43,12.03,9.32,12.04,9.32,-9.32,-8.91,-8.82,2.72,2.72,2.72
26.69,12.06,9.31,12.06,9.30,-9.30,-8.92,-9.02,2.76,2.76,2.76
26.96,12.08,9.29,12.08,9.29,-9.29,-8.92,-9.22,2.79,2.79,2.79
27.23,12.10,9.28,12.10,9.28,-9.27,-8.93,-9.42,2.83,2.83,2.82
27.50,12.12,9.26,12.12,9.26,-9.26,-8.93,-9.62,2.86,2.86,2.86
27.77,12.13,9.24,12.14,9.24,-9.25,-8.94,-9.81,2.89,2.89,2.89
28.05,12.15,9.22,12.15,9.23,-9.23,-8.95,-10.00,2.92,2.92,2.93
28.33,12.17,9.22,12.17,9.21,-9.22,-8.95,-10.18,2.96,2.96,2.95
28.62,12.19,9.20,12.19,9.20,-9.20,-8.96,-10.35,2.99,2.99,2.99
28.90,12.21,9.18,12.21,9.19,-9.18,-8.97,-10.51,3.03,3.03,3.03
29.19,12.23,9.18,12.23,9.17,-9.17,-8.97,-10.67,3.07,3.06,3.06
29.48,12.24,9.14,12.25,9.15,-9.15,-8.98,-10.81,3.09,3.10,3.11
29.78,12.26,9.14,12.26,9.13,-9.13,-8.98,-10.94,3.13,3.13,3.13
30.08,12.27,9.11,12.28,9.11,-9.11,-8.99,-11.05,3.16,3.16,3.16
30.38,12.29,9.10,12.29,9.10,-9.09,-9.00,-11.15,3.20,3.20,3.19
30.68,12.30,9.07,12.30,9.08,-9.07,-9.00,-11.22,3.23,3.23,3.23
30.99,12.31,9.06,12.31,9.06,-9.05,-9.01,-11.29,3.26,3.26,3.25
31.30,12.32,9.03,12.32,9.03,-9.03,-9.02,-11.33,3.29,3.29,3.29
31.61,12.32,9.01,12.33,9.01,-9.01,-9.03,-11.36,3.31,3.31,3.32
31.93,12.33,8.99,12.33,8.99,-8.99,-9.03,-11.36,3.34,3.34,3.35
32.24,12.33,8.97,12.34,8.97,-8.97,-9.04,-11.36,3.36,3.37,3.36
32.57,12.34,8.95,12.34,8.95,-8.95,-9.05,-11.33,3.39,3.39,3.39
32.89,12.35,8.92,12.35,8.93,-8.93,-9.05,-11.29,3.43,3.42,3.43
33.22,12.35,8.90,12.36,8.91,-8.91,-9.06,-11.23,3.45,3.45,3.45
33.55,12.36,8.90,12.36,8.89,-8.89,-9.07,-11.17,3.48,3.47,3.47
33.89,12.36,8.88,12.36,8.87,-8.87,-9.08,-11.09,3.50,3.49,3.49
34.23,12.36,8.85,12.36,8.85,-8.85,-9.08,-11.00,3.51,3.51,3.51
34.57,12.35,8.82,12.36,8.83,-8.83,-9.09,-10.90,3.52,3.53,3.53
34.92,12.35,8.81,12.35,8.81,-8.81,-9.10,-10.80,3.54,3.54,3.54
35.27,12.35,8.79,12.35,8.79,-8.80,-9.11,-10.69,3.56,3.55,3.57
35.62,12.35,8.78,12.35,8.78,-8.78,-9.11,-10.58,3.57,3.57,3.58
35.97,12.35,8.77,12.35,8.76,-8.76,-9.12,-10.46,3.59,3.59,3.58
36.33,12.35,8.75,12.35,8.76,-8.75,-9.13,-10.35,3.61,3.61,3.60
36.70,12.34,8.74,12.35,8.74,-8.73,-9.14,-10.23,3.62,3.62,3.61
37.06,12.34,8.73,12.34,8.72,-8.71,-9.14,-10.11,3.63,3.63,3.62
37.43,12.32,8.69,12.32,8.70,-8.70,-9.15,-10.00,3.63,3.63,3.63
37.81,12.31,8.67,12.31,8.67,-8.68,-9.16,-9.88,3.63,3.63,3.64
38.19,12.30,8.66,12.31,8.66,-8.67,-9.17,-9.77,3.64,3.64,3.65
38.57,12.30,8.65,12.30,8.65,-8.66,-9.18,-9.66,3.64,3.64,3.65
38.95,12.30,8.65,12.30,8.65,-8.65,-9.18,-9.56,3.65,3.65,3.65
39.34,12.30,8.66,12.30,8.65,-8.65,-9.19,-9.46,3.65,3.65,3.65
39.74,12.30,8.65,12.30,8.65,-8.65,-9.20,-9.37,3.65,3.65,3.65
40.14,12.30,8.65,12.31,8.65,-8.65,-9.21,-9.28,3.65,3.65,3.65
40.54,12.31,8.67,12.31,8.66,-8.66,-9.21,-9.20,3.66,3.65,3.65
40.94,12.31,8.66,12.32,8.67,-8.66,-9.22,-9.12,3.65,3.66,3.65
41.35,12.32,8.67,12.32,8.67,-8.67,-9.23,-9.04,3.66,3.66,3.65
41.76,12.33,8.68,12.33,8.67,-8.67,-9.24,-8.98,3.66,3.66,3.66
42.18,12.33,8.67,12.34,8.68,-8.68,-9.25,-8.92,3.65,3.66,3.66
42.60,12.34,8.69,12.34,8.68,-8.69,-9.25,-8.86,3.65,3.65,3.66
43.03,12.35,8.69,12.35,8.69,-8.70,-9.26,-8.81,3.65,3.65,3.66
43.46,12.36,8.71,12.37,8.71,-8.72,-9.27,-8.77,3.65,3.65,3.66
43.90,12.38,8.74,12.38,8.73,-8.73,-9.28,-8.74,3.65,3.65,3.64
44.33,12.39,8.76,12.39,8.75,-8.75,-9.28,-8.71,3.64,3.64,3.64
44.78,12.40,8.77,12.41,8.78,-8.77,-9.29,-8.68,3.63,3.64,3.63
45.23,12.42,8.80,12.42,8.79,-8.79,-9.30,-8.67,3.63,3.63,3.63
45.68,12.43,8.81,12.43,8.81,-8.81,-9.30,-8.66,3.63,3.63,3.62
46.13,12.44,8.83,12.45,8.83,-8.82,-9.31,-8.65,3.62,3.62,3.62
46.60,12.46,8.84,12.46,8.84,-8.84,-9.32,-8.65,3.62,3.62,3.62
47.06,12.47,8.85,12.48,8.85,-8.86,-9.33,-8.66,3.61,3.62,3.62
47.53,12.49,8.88,12.49,8.87,-8.88,-9.33,-8.67,3.62,3.62,3.62
48.01,12.51,8.88,12.51,8.89,-8.90,-9.34,-8.69,3.62,3.61,3.63
48.49,12.52,8.91,12.53,8.91,-8.92,-9.34,-8.71,3.61,3.61,3.61
48.97,12.54,8.94,12.54,8.94,-8.93,-9.35,-8.74,3.61,3.61,3.61
49.46,12.56,8.96,12.56,8.96,-8.95,-9.36,-8.78,3.61,3.61,3.60
49.96,12.58,8.99,12.58,8.98,-8.97,-9.36,-8.81,3.61,3.61,3.59
50.46,12.59,8.98,12.59,8.99,-8.98,-9.37,-8.86,3.61,3.61,3.61
50.96,12.60,8.99,12.60,8.99,-9.00,-9.37,-8.90,3.61,3.61,3.62
51.47,12.61,9.01,12.62,9.00,-9.00,-9.38,-8.95,3.61,3.61,3.61
51.99,12.63,9.01,12.63,9.01,-9.01,-9.38,-9.01,3.62,3.62,3.62
52.51,12.64,9.01,12.64,9.02,-9.01,-9.39,-9.06,3.63,3.63,3.63
53.03,12.65,9.01,12.65,9.02,-9.02,-9.39,-9.12,3.64,3.64,3.64
53.56,12.66,9.02,12.66,9.02,-9.02,-9.40,-9.18,3.64,3.64,3.64
54.10,12.66,9.02,12.67,9.02,-9.02,-9.40,-9.24,3.64,3.64,3.64
54.64,12.67,9.02,12.67,9.02,-9.02,-9.41,-9.30,3.65,3.65,3.65
55.18,12.67,9.02,12.67,9.02,-9.02,-9.41,-9.36,3.65,3.65,3.65
55.74,12.67,9.03,12.67,9.02,-9.02,-9.41,-9.42,3.65,3.65,3.65
56.29,12.67,9.03,12.67,9.02,-9.02,-9.41,-9.48,3.65,3.65,3.65
56.86,12.66,9.02,12.67,9.02,-9.02,-9.42,-9.53,3.64,3.64,3.64
57.42,12.66,9.03,12.66,9.02,-9.02,-9.42,-9.59,3.64,3.64,3.63
58.00,12.65,9.02,12.66,9.02,-9.02,-9.42,-9.63,3.63,3.63,3.63
58.58,12.65,9.03,12.65,9.03,-9.03,-9.42,-9.68,3.63,3.63,3.63
59.16,12.65,9.03,12.65,9.03,-9.03,-9.42,-9.72,3.62,3.62,3.62
59.76,12.65,9.03,12.65,9.04,-9.04,-9.42,-9.75,3.61,3.61,3.62
60.35,12.65,9.05,12.65,9.05,-9.05,-9.42,-9.77,3.60,3.60,3.61
60.96,12.65,9.06,12.65,9.07,-9.07,-9.42,-9.79,3.58,3.58,3.59
61.57,12.65,9.09,12.65,9.09,-9.09,-9.42,-9.80,3.57,3.57,3.57
62.18,12.65,9.11,12.65,9.11,-9.10,-9.42,-9.81,3.55,3.55,3.54
62.80,12.65,9.12,12.65,9.13,-9.12,-9.42,-9.80,3.53,3.53,3.53
63.43,12.65,9.15,12.65,9.14,-9.14,-9.42,-9.79,3.51,3.51,3.51
64.07,12.65,9.15,12.66,9.16,-9.16,-9.42,-9.78,3.50,3.50,3.50
64.71,12.66,9.17,12.66,9.17,-9.17,-9.41,-9.75,3.49,3.49,3.49
65.35,12.66,9.18,12.66,9.18,-9.18,-9.41,-9.72,3.48,3.48,3.48
66.01,12.66,9.19,12.66,9.19,-9.19,-9.41,-9.68,3.48,3.48,3.48
66.67,12.66,9.20,12.66,9.19,-9.19,-9.40,-9.63,3.48,3.48,3.47
67.33,12.66,9.20,12.66,9.19,-9.19,-9.40,-9.58,3.48,3.47,3.47
68.01,12.65,9.19,12.65,9.19,-9.18,-9.39,-9.53,3.47,3.47,3.47
68.69,12.64,9.18,12.64,9.18,-9.18,-9.39,-9.47,3.47,3.47,3.47
69.37,12.63,9.17,12.63,9.17,-9.17,-9.38,-9.41,3.46,3.46,3.47
70.07,12.62,9.16,12.62,9.16,-9.16,-9.37,-9.34,3.46,3.46,3.46
70.77,12.61,9.14,12.62,9.15,-9.15,-9.37,-9.27,3.46,3.46,3.47
71.48,12.61,9.14,12.61,9.14,-9.15,-9.36,-9.21,3.47,3.46,3.47
72.19,12.60,9.14,12.60,9.14,-9.14,-9.35,-9.14,3.46,3.46,3.47
72.91,12.60,9.14,12.60,9.14,-9.14,-9.34,-9.07,3.46,3.46,3.46
73.64,12.59,9.15,12.60,9.14,-9.14,-9.33,-9.00,3.45,3.45,3.45
74.38,12.59,9.14,12.59,9.14,-9.14,-9.33,-8.94,3.45,3.45,3.45
75.12,12.59,9.15,12.59,9.15,-9.15,-9.32,-8.87,3.45,3.45,3.45
75.87,12.59,9.14,12.59,9.15,-9.15,-9.31,-8.81,3.45,3.45,3.45
76.63,12.59,9.15,12.59,9.15,-9.15,-9.30,-8.76,3.44,3.44,3.44
77.40,12.59,9.15,12.59,9.15,-9.15,-9.28,-8.70,3.44,3.44,3.45
78.17,12.59,9.16,12.60,9.15,-9.15,-9.27,-8.65,3.44,3.45,3.44
78.95,12.60,9.15,12.60,9.15,-9.15,-9.26,-8.61,3.46,3.45,3.45
79.74,12.60,9.14,12.61,9.15,-9.15,-9.25,-8.56,3.46,3.46,3.46
80.54,12.61,9.14,12.61,9.14,-9.14,-9.24,-8.53,3.47,3.47,3.47
81.35,12.61,9.13,12.62,9.13,-9.14,-9.23,-8.49,3.47,3.48,3.48
82.16,12.62,9.13,12.62,9.13,-9.13,-9.21,-8.47,3.49,3.49,3.49
82.98,12.63,9.11,12.63,9.12,-9.12,-9.20,-8.45,3.51,3.51,3.52
83.81,12.64,9.12,12.64,9.12,-9.11,-9.19,-8.43,3.53,3.53,3.53
84.65,12.65,9.12,12.65,9.11,-9.10,-9.18,-8.42,3.55,3.55,3.53
85.50,12.66,9.09,12.66,9.10,-9.09,-9.16,-8.42,3.58,3.57,3.57
86.35,12.66,9.07,12.66,9.08,-9.07,-9.15,-8.42,3.59,3.59,3.59
87.22,12.66,9.06,12.66,9.06,-9.06,-9.14,-8.43,3.61,3.60,3.60
88.09,12.65,9.04,12.66,9.04,-9.04,-9.12,-8.44,3.61,3.61,3.61
88.97,12.65,9.02,12.65,9.02,-9.03,-9.11,-8.46,3.62,3.62,3.64
89.86,12.65,9.01,12.65,9.01,-9.02,-9.10,-8.49,3.63,3.63,3.64
90.76,12.65,9.02,12.65,9.01,-9.01,-9.08,-8.52,3.64,3.64,3.64
91.66,12.65,9.00,12.65,9.01,-9.01,-9.07,-8.56,3.65,3.65,3.65
92.58,12.65,9.02,12.65,9.01,-9.01,-9.06,-8.60,3.64,3.64,3.63
93.51,12.65,9.02,12.65,9.01,-9.02,-9.04,-8.65,3.64,3.64,3.64
94.44,12.65,9.02,12.65,9.03,-9.03,-9.03,-8.71,3.62,3.62,3.63
95.39,12.65,9.04,12.65,9.04,-9.04,-9.02,-8.77,3.61,3.61,3.61
96.34,12.65,9.07,12.65,9.06,-9.07,-9.01,-8.84,3.59,3.59,3.59
97.30,12.65,9.09,12.65,9.09,-9.09,-9.00,-8.91,3.56,3.56,3.56
98.28,12.65,9.12,12.65,9.12,-9.12,-8.99,-8.99,3.53,3.53,3.53
99.26,12.65,9.15,12.65,9.15,-9.16,-8.98,-9.07,3.50,3.50,3.50
100.25,12.65,9.19,12.66,9.19,-9.19,-8.97,-9.16,3.46,3.46,3.47
101.25,12.66,9.23,12.66,9.23,-9.23,-8.96,-9.25,3.43,3.43,3.43
102.27,12.66,9.26,12.66,9.27,-9.27,-8.95,-9.35,3.40,3.40,3.40
103.29,12.66,9.31,12.66,9.31,-9.30,-8.94,-9.44,3.36,3.36,3.35
104.32,12.66,9.34,12.66,9.34,-9.34,-8.93,-9.55,3.33,3.32,3.32
105.37,12.65,9.37,12.66,9.37,-9.37,-8.93,-9.65,3.28,3.29,3.28
106.42,12.64,9.39,12.65,9.39,-9.40,-8.92,-9.75,3.25,3.25,3.26
107.48,12.64,9.42,12.64,9.42,-9.42,-8.92,-9.86,3.22,3.22,3.22
108.56,12.62,9.44,12.62,9.45,-9.44,-8.91,-9.96,3.19,3.19,3.18
109.64,12.60,9.46,12.60,9.46,-9.45,-8.91,-10.07,3.15,3.15,3.14
110.74,12.58,9.47,12.58,9.46,-9.46,-8.91,-10.17,3.12,3.12,3.11
111.85,12.54,9.45,12.55,9.46,-9.47,-8.90,-10.27,3.08,3.08,3.10
112.97,12.52,9.47,12.52,9.46,-9.47,-8.90,-10.36,3.06,3.05,3.05
114.10,12.49,9.46,12.49,9.46,-9.46,-8.90,-10.46,3.03,3.03,3.03
115.24,12.46,9.46,12.47,9.46,-9.46,-8.91,-10.54,3.00,3.01,3.00
116.39,12.44,9.46,12.44,9.46,-9.45,-8.91,-10.62,2.99,2.98,2.99
117.55,12.41,9.45,12.41,9.45,-9.45,-8.91,-10.68,2.96,2.96,2.96
118.73,12.38,9.44,12.39,9.44,-9.45,-8.92,-10.74,2.94,2.94,2.94
119.92,12.36,9.43,12.37,9.44,-9.45,-8.92,-10.78,2.92,2.92,2.94
121.12,12.36,9.44,12.36,9.44,-9.45,-8.93,-10.82,2.92,2.91,2.92
122.33,12.35,9.45,12.36,9.45,-9.44,-8.94,-10.84,2.91,2.91,2.91
123.55,12.35,9.45,12.35,9.45,-9.44,-8.95,-10.85,2.91,2.91,2.90
124.79,12.33,9.45,12.33,9.45,-9.44,-8.96,-10.85,2.89,2.89,2.89
126.03,12.31,9.44,12.32,9.44,-9.44,-8.97,-10.83,2.88,2.88,2.87
127.29,12.29,9.42,12.29,9.43,-9.43,-8.98,-10.80,2.86,2.86,2.87
128.57,12.27,9.43,12.27,9.42,-9.42,-9.00,-10.76,2.86,2.85,2.85
129.85,12.23,9.40,12.24,9.40,-9.40,-9.01,-10.70,2.83,2.84,2.83
131.15,12.20,9.38,12.21,9.39,-9.38,-9.02,-10.64,2.82,2.83,2.82
132.46,12.18,9.38,12.18,9.37,-9.37,-9.04,-10.55,2.82,2.81,2.81
133.79,12.15,9.35,12.15,9.35,-9.35,-9.06,-10.47,2.81,2.80,2.81
135.12,12.10,9.33,12.11,9.32,-9.33,-9.08,-10.36,2.77,2.78,2.78
136.48,12.08,9.31,12.08,9.31,-9.31,-9.09,-10.26,2.77,2.76,2.78
137.84,12.04,9.29,12.05,9.30,-9.30,-9.11,-10.15,2.74,2.75,2.76
139.22,12.03,9.31,12.03,9.30,-9.29,-9.13,-10.03,2.74,2.74,2.73
140.61,12.01,9.31,12.01,9.29,-9.29,-9.15,-9.90,2.72,2.71,2.71
142.02,11.98,9.28,11.99,9.29,-9.30,-9.17,-9.78,2.68,2.69,2.70
143.44,11.97,9.29,11.98,9.30,-9.31,-9.19,-9.65,2.66,2.67,2.68
144.87,11.98,9.33,11.98,9.32,-9.33,-9.21,-9.51,2.65,2.65,2.66
146.32,11.99,9.36,11.99,9.35,-9.36,-9.23,-9.38,2.63,2.63,2.63
147.78,12.00,9.38,12.00,9.39,-9.39,-9.25,-9.25,2.62,2.62,2.62
149.26,12.01,9.42,12.01,9.42,-9.42,-9.27,-9.12,2.59,2.60,2.60
150.75,12.02,9.47,12.02,9.46,-9.45,-9.29,-8.99,2.57,2.57,2.55
152.26,12.02,9.49,12.02,9.49,-9.48,-9.30,-8.86,2.54,2.54,2.53
153.78,12.01,9.51,12.01,9.51,-9.51,-9.32,-8.74,2.50,2.50,2.51
155.32,12.00,9.53,12.00,9.53,-9.54,-9.33,-8.62,2.47,2.47,2.47
156.88,11.99,9.54,11.99,9.55,-9.56,-9.35,-8.50,2.44,2.44,2.45
158.44,11.98,9.57,11.98,9.57,-9.57,-9.36,-8.38,2.41,2.41,2.42
160.03,11.96,9.59,11.96,9.58,-9.58,-9.37,-8.27,2.38,2.38,2.38
161.63,11.93,9.59,11.94,9.59,-9.58,-9.38,-8.17,2.35,2.36,2.35
163.24,11.90,9.59,11.90,9.58,-9.57,-9.38,-8.07,2.33,2.33,2.32
164.88,11.85,9.56,11.85,9.56,-9.56,-9.38,-7.98,2.30,2.30,2.30
166.53,11.79,9.53,11.80,9.54,-9.53,-9.38,-7.88,2.26,2.26,2.27
168.19,11.74,9.52,11.73,9.50,-9.50,-9.38,-7.80,2.24,2.23,2.23
169.87,11.66,9.45,11.67,9.47,-9.46,-9.37,-7.72,2.20,2.21,2.21
171.57,11.59,9.41,11.60,9.42,-9.42,-9.36,-7.65,2.18,2.18,2.18
173.29,11.53,9.38,11.52,9.36,-9.37,-9.35,-7.58,2.17,2.15,2.15
175.02,11.42,9.29,11.43,9.30,-9.31,-9.33,-7.52,2.11,2.12,2.14
176.77,11.34,9.24,11.35,9.24,-9.25,-9.31,-7.46,2.09,2.10,2.10
178.54,11.26,9.19,11.27,9.19,-9.18,-9.28,-7.41,2.08,2.08,2.08
180.32,11.19,9.13,11.19,9.13,-9.11,-9.25,-7.37,2.08,2.08,2.06
182.13,11.11,9.06,11.10,9.05,-9.03,-9.21,-7.33,2.08,2.06,2.06
183.95,10.98,8.95,10.99,8.96,-8.95,-9.17,-7.29,2.03,2.04,2.03
185.79,10.87,8.86,10.88,8.86,-8.87,-9.12,-7.26,2.01,2.01,2.02
187.65,10.76,8.76,10.77,8.76,-8.77,-9.07,-7.24,1.99,1.99,2.00
189.52,10.66,8.67,10.66,8.67,-8.68,-9.01,-7.22,1.98,1.98,1.99
191.42,10.56,8.59,10.56,8.58,-8.58,-8.95,-7.20,1.98,1.97,1.98
193.33,10.45,8.49,10.45,8.49,-8.49,-8.88,-7.19,1.97,1.97,1.97
195.27,10.34,8.39,10.34,8.39,-8.39,-8.81,-7.19,1.96,1.96,1.95
197.22,10.23,8.29,10.23,8.29,-8.29,-8.73,-7.18,1.94,1.94,1.94
199.19,10.11,8.20,10.12,8.20,-8.19,-8.64,-7.18,1.92,1.93,1.91
201.18,10.00,8.09,10.00,8.09,-8.09,-8.55,-7.19,1.91,1.91,1.91
203.19,9.88,7.98,9.88,7.99,-7.99,-8.46,-7.20,1.90,1.90,1.90
205.23,9.76,7.88,9.77,7.88,-7.88,-8.36,-7.21,1.88,1.88,1.88
207.28,9.65,7.77,9.65,7.78,-7.78,-8.26,-7.22,1.87,1.87,1.88
209.35,9.54,7.68,9.54,7.69,-7.69,-8.14,-7.24,1.86,1.86,1.86
211.44,9.44,7.60,9.44,7.59,-7.59,-8.03,-7.25,1.85,1.85,1.84
213.56,9.33,7.49,9.33,7.49,-7.50,-7.91,-7.27,1.83,1.83,1.84
215.69,9.23,7.39,9.24,7.40,-7.41,-7.79,-7.28,1.82,1.83,1.84
217.85,9.14,7.31,9.15,7.32,-7.32,-7.66,-7.30,1.82,1.83,1.84
220.03,9.07,7.26,9.07,7.24,-7.23,-7.54,-7.31,1.84,1.84,1.82
222.23,8.98,7.17,8.98,7.16,-7.14,-7.40,-7.32,1.84,1.84,1.81
224.45,8.87,7.05,8.87,7.06,-7.05,-7.27,-7.33,1.82,1.82,1.82
226.70,8.76,6.95,8.77,6.95,-6.96,-7.12,-7.33,1.80,1.81,1.81
228.96,8.66,6.86,8.67,6.86,-6.87,-6.98,-7.33,1.79,1.80,1.81
231.25,8.59,6.78,8.58,6.77,-6.79,-6.84,-7.32,1.81,1.79,1.81
233.57,8.50,6.70,8.50,6.69,-6.70,-6.69,-7.31,1.80,1.79,1.80
235.90,8.39,6.59,8.41,6.61,-6.62,-6.54,-7.28,1.78,1.79,1.80
238.26,8.33,6.55,8.33,6.54,-6.54,-6.39,-7.26,1.80,1.79,1.78
240.64,8.24,6.46,8.25,6.47,-6.46,-6.23,-7.22,1.79,1.79,1.79
243.05,8.18,6.40,8.17,6.39,-6.38,-6.08,-7.17,1.81,1.79,1.78
245.48,8.08,6.30,8.08,6.30,-6.30,-5.92,-7.12,1.79,1.79,1.79
247.93,7.97,6.19,7.99,6.21,-6.21,-5.76,-7.05,1.76,1.78,1.78
250.41,7.91,6.14,7.90,6.11,-6.12,-5.60,-6.97,1.79,1.77,1.78
252.92,7.80,6.01,7.82,6.03,-6.03,-5.44,-6.89,1.77,1.78,1.79
255.45,7.73,5.93,7.74,5.94,-5.93,-5.28,-6.79,1.80,1.80,1.81
258.00,7.66,5.85,7.65,5.84,-5.83,-5.12,-6.69,1.83,1.82,1.81
260.58,7.55,5.74,7.56,5.74,-5.73,-4.96,-6.57,1.83,1.83,1.82
263.19,7.46,5.62,7.46,5.62,-5.62,-4.80,-6.44,1.85,1.84,1.84
265.82,7.34,5.49,7.35,5.50,-5.50,-4.64,-6.31,1.84,1.85,1.85
268.48,7.25,5.39,7.25,5.38,-5.38,-4.48,-6.17,1.87,1.86,1.86
271.16,7.14,5.26,7.14,5.25,-5.26,-4.31,-6.01,1.88,1.87,1.88
273.87,7.01,5.12,7.02,5.12,-5.13,-4.15,-5.85,1.88,1.89,1.90
276.61,6.90,4.99,6.90,4.99,-5.00,-3.99,-5.69,1.90,1.90,1.91
279.38,6.78,4.86,6.79,4.87,-4.86,-3.83,-5.52,1.92,1.93,1.92
282.17,6.67,4.75,6.67,4.73,-4.72,-3.67,-5.34,1.95,1.94,1.93
284.99,6.54,4.59,6.53,4.58,-4.58,-3.51,-5.16,1.96,1.95,1.95
287.84,6.38,4.42,6.39,4.43,-4.43,-3.35,-4.97,1.95,1.96,1.96
290.72,6.24,4.27,6.25,4.27,-4.28,-3.19,-4.78,1.97,1.97,1.98
293.63,6.12,4.13,6.11,4.11,-4.12,-3.03,-4.59,2.00,1.99,1.99
296.57,5.97,3.95,5.97,3.96,-3.96,-2.87,-4.39,2.02,2.01,2.02
299.53,5.82,3.79,5.83,3.80,-3.79,-2.71,-4.20,2.03,2.04,2.03
302.53,5.68,3.64,5.68,3.63,-3.63,-2.56,-4.00,2.06,2.06,2.05
305.55,5.54,3.46,5.53,3.46,-3.46,-2.40,-3.80,2.08,2.07,2.08
308.61,5.38,3.28,5.39,3.28,-3.29,-2.25,-3.60,2.09,2.10,2.10
311.69,5.23,3.10,5.25,3.11,-3.12,-2.10,-3.39,2.11,2.13,2.13
314.81,5.11,2.95,5.11,2.94,-2.95,-1.94,-3.19,2.17,2.16,2.17
317.96,4.97,2.79,4.97,2.78,-2.77,-1.79,-2.99,2.20,2.20,2.19
321.14,4.81,2.60,4.81,2.60,-2.59,-1.64,-2.79,2.22,2.22,2.21
324.35,4.65,2.42,4.65,2.42,-2.42,-1.49,-2.59,2.24,2.24,2.23
327.59,4.48,2.22,4.50,2.24,-2.24,-1.35,-2.39,2.24,2.26,2.26
330.87,4.35,2.07,4.34,2.05,-2.06,-1.20,-2.19,2.29,2.28,2.29
334.18,4.18,1.88,4.19,1.88,-1.88,-1.06,-1.99,2.31,2.31,2.31
337.52,4.02,1.69,4.03,1.70,-1.69,-0.91,-1.79,2.33,2.34,2.33
340.90,3.88,1.52,3.87,1.51,-1.51,-0.77,-1.59,2.37,2.36,2.36
344.30,3.71,1.32,3.71,1.33,-1.33,-0.63,-1.39,2.39,2.39,2.39
347.75,3.55,1.14,3.56,1.15,-1.14,-0.49,-1.19,2.41,2.42,2.41
351.23,3.39,0.96,3.40,0.96,-0.96,-0.35,-0.99,2.44,2.44,2.44
354.74,3.25,0.79,3.24,0.77,-0.77,-0.21,-0.79,2.48,2.47,2.47
358.28,3.06,0.58,3.07,0.58,-0.59,-0.08,-0.60,2.48,2.49,2.49
361.87,2.91,0.40,2.91,0.40,-0.40,0.05,-0.40,2.51,2.51,2.51
365.49,2.74,0.21,2.75,0.22,-0.22,0.19,-0.21,2.53,2.53,2.53
369.14,2.59,0.04,2.59,0.04,-0.04,0.32,-0.01,2.55,2.56,2.55
372.83,2.45,-0.12,2.43,-0.14,0.14,0.45,0.18,2.59,2.57,2.57
376.56,2.26,-0.33,2.28,-0.31,0.31,0.58,0.38,2.57,2.59,2.59
380.33,2.12,-0.50,2.13,-0.49,0.48,0.70,0.57,2.60,2.60,2.62
384.13,1.98,-0.64,1.98,-0.65,0.64,0.83,0.77,2.62,2.62,2.63
387.97,1.84,-0.79,1.84,-0.80,0.80,0.95,0.96,2.64,2.64,2.64
391.85,1.69,-0.95,1.70,-0.95,0.96,1.07,1.15,2.65,2.66,2.65
395.77,1.55,-1.11,1.55,-1.11,1.12,1.19,1.34,2.68,2.67,2.66
399.73,1.39,-1.28,1.40,-1.28,1.28,1.31,1.53,2.67,2.68,2.67
403.72,1.24,-1.44,1.25,-1.44,1.44,1.42,1.72,2.68,2.69,2.68
407.76,1.10,-1.59,1.10,-1.60,1.60,1.54,1.91,2.70,2.70,2.69
411.84,0.95,-1.76,0.95,-1.76,1.76,1.65,2.09,2.71,2.70,2.71
415.96,0.79,-1.92,0.79,-1.92,1.91,1.76,2.28,2.70,2.70,2.71
420.12,0.63,-2.08,0.64,-2.07,2.06,1.87,2.46,2.70,2.70,2.71
424.32,0.48,-2.23,0.49,-2.22,2.21,1.98,2.63,2.70,2.71,2.71
428.56,0.36,-2.35,0.35,-2.36,2.36,2.08,2.81,2.72,2.71,2.71
432.85,0.21,-2.49,0.21,-2.50,2.50,2.19,2.98,2.72,2.71,2.71
437.18,0.05,-2.65,0.07,-2.64,2.64,2.29,3.15,2.70,2.71,2.71
441.55,-0.07,-2.77,-0.07,-2.78,2.78,2.39,3.31,2.71,2.71,2.71
445.96,-0.21,-2.91,-0.21,-2.91,2.91,2.49,3.47,2.70,2.70,2.71
450.42,-0.35,-3.04,-0.35,-3.04,3.04,2.58,3.62,2.69,2.69,2.69
454.93,-0.48,-3.17,-0.48,-3.17,3.17,2.68,3.76,2.69,2.69,2.69
459.48,-0.61,-3.30,-0.59,-3.29,3.29,2.77,3.90,2.68,2.69,2.69
464.07,-0.70,-3.39,-0.70,-3.40,3.40,2.86,4.03,2.71,2.70,2.69
468.71,-0.80,-3.50,-0.81,-3.51,3.51,2.95,4.15,2.72,2.70,2.70
473.40,-0.93,-3.62,-0.92,-3.61,3.62,3.03,4.26,2.69,2.70,2.69
478.13,-1.03,-3.73,-1.02,-3.72,3.72,3.11,4.36,2.69,2.69,2.70
482.91,-1.12,-3.81,-1.12,-3.82,3.81,3.20,4.46,2.69,2.69,2.69
487.74,-1.20,-3.90,-1.20,-3.90,3.89,3.27,4.54,2.70,2.69,2.70
492.62,-1.28,-3.99,-1.27,-3.98,3.97,3.35,4.61,2.69,2.70,2.71
497.55,-1.34,-4.05,-1.34,-4.05,4.05,3.43,4.67,2.71,2.71,2.71
502.52,-1.40,-4.12,-1.40,-4.11,4.12,3.50,4.72,2.72,2.72,2.72
