frequency,raw,error,smoothed,error_smoothed,equalization,parametric_eq,fixed_band_eq,equalized_raw,equalized_smoothed,target
20.00,9.02,3.45,9.01,3.45,-3.45,-3.20,-2.00,5.56,5.56,5.56
20.20,9.06,3.49,9.06,3.49,-3.49,-3.25,-2.06,5.56,5.57,5.56
20.40,9.11,3.53,9.10,3.53,-3.53,-3.31,-2.12,5.58,5.57,5.57
20.61,9.15,3.56,9.15,3.57,-3.57,-3.36,-2.18,5.58,5.58,5.58
20.81,9.20,3.61,9.19,3.61,-3.61,-3.41,-2.24,5.59,5.58,5.58
21.02,9.24,3.64,9.24,3.65,-3.65,-3.46,-2.31,5.59,5.59,5.59
21.23,9.28,3.68,9.28,3.69,-3.68,-3.52,-2.37,5.59,5.60,5.59
21.44,9.33,3.72,9.32,3.72,-3.72,-3.57,-2.44,5.61,5.60,5.60
21.66,9.37,3.75,9.37,3.76,-3.76,-3.62,-2.51,5.61,5.61,5.61
21.87,9.41,3.80,9.41,3.79,-3.79,-3.67,-2.58,5.61,5.62,5.61
22.09,9.45,3.83,9.45,3.82,-3.83,-3.72,-2.66,5.62,5.62,5.62
22.31,9.49,3.86,9.49,3.86,-3.86,-3.77,-2.73,5.62,5.62,5.63
22.54,9.53,3.90,9.53,3.90,-3.90,-3.82,-2.81,5.63,5.63,5.63
22.76,9.58,3.94,9.57,3.93,-3.93,-3.87,-2.89,5.65,5.64,5.64
22.99,9.62,3.97,9.62,3.97,-3.96,-3.92,-2.97,5.65,5.65,5.65
23.22,9.66,4.00,9.66,4.00,-4.00,-3.97,-3.05,5.66,5.66,5.66
23.45,9.70,4.03,9.70,4.03,-4.03,-4.01,-3.14,5.67,5.67,5.67
23.69,9.74,4.06,9.74,4.06,-4.06,-4.06,-3.23,5.68,5.68,5.68
23.92,9.78,4.09,9.77,4.09,-4.08,-4.10,-3.31,5.69,5.69,5.69
24.16,9.81,4.11,9.81,4.11,-4.11,-4.14,-3.40,5.70,5.70,5.70
24.40,9.85,4.14,9.85,4.14,-4.14,-4.19,-3.49,5.71,5.71,5.71
24.65,9.89,4.16,9.88,4.16,-4.16,-4.22,-3.59,5.72,5.72,5.73
24.89,9.92,4.18,9.92,4.18,-4.19,-4.26,-3.68,5.73,5.73,5.74
25.14,9.96,4.21,9.96,4.21,-4.21,-4.30,-3.77,5.74,5.74,5.75
25.39,10.00,4.24,9.99,4.24,-4.24,-4.33,-3.87,5.76,5.76,5.76
25.65,10.03,4.26,10.03,4.26,-4.26,-4.36,-3.96,5.77,5.77,5.76
25.91,10.07,4.28,10.06,4.28,-4.28,-4.39,-4.06,5.78,5.78,5.78
26.16,10.10,4.30,10.10,4.30,-4.30,-4.42,-4.15,5.79,5.79,5.79
26.43,10.13,4.32,10.13,4.32,-4.32,-4.45,-4.25,5.80,5.80,5.80
26.69,10.16,4.34,10.16,4.34,-4.34,-4.47,-4.34,5.82,5.82,5.81
26.96,10.19,4.35,10.19,4.36,-4.36,-4.49,-4.43,5.83,5.83,5.83
27.23,10.22,4.37,10.22,4.37,-4.37,-4.51,-4.52,5.84,5.84,5.84
27.50,10.25,4.39,10.25,4.39,-4.39,-4.53,-4.60,5.86,5.86,5.86
27.77,10.28,4.41,10.28,4.40,-4.40,-4.54,-4.69,5.87,5.87,5.87
28.05,10.31,4.42,10.30,4.42,-4.42,-4.55,-4.77,5.89,5.89,5.89
28.33,10.33,4.43,10.33,4.43,-4.43,-4.56,-4.84,5.90,5.90,5.90
28.62,10.36,4.44,10.36,4.44,-4.44,-4.57,-4.91,5.91,5.92,5.92
28.90,10.39,4.46,10.38,4.45,-4.45,-4.57,-4.98,5.93,5.93,5.93
29.19,10.41,4.46,10.41,4.46,-4.46,-4.57,-5.04,5.94,5.95,5.95
29.48,10.43,4.47,10.43,4.47,-4.47,-4.57,-5.09,5.96,5.96,5.95
29.78,10.45,4.47,10.45,4.47,-4.48,-4.57,-5.14,5.97,5.97,5.97
30.08,10.47,4.48,10.47,4.48,-4.48,-4.56,-5.18,5.98,5.98,5.98
30.38,10.49,4.48,10.49,4.49,-4.49,-4.56,-5.21,6.00,6.00,6.00
30.68,10.51,4.50,10.51,4.49,-4.49,-4.55,-5.24,6.01,6.01,6.01
30.99,10.53,4.50,10.52,4.49,-4.49,-4.53,-5.25,6.03,6.03,6.03
31.30,10.54,4.50,10.54,4.50,-4.49,-4.52,-5.26,6.04,6.04,6.04
31.61,10.55,4.49,10.55,4.50,-4.49,-4.50,-5.27,6.05,6.06,6.06
31.93,10.57,4.50,10.56,4.49,-4.49,-4.49,-5.26,6.07,6.07,6.07
32.24,10.57,4.48,10.57,4.49,-4.49,-4.47,-5.25,6.08,6.08,6.08
32.57,10.58,4.48,10.58,4.48,-4.49,-4.45,-5.23,6.09,6.09,6.09
32.89,10.59,4.47,10.59,4.48,-4.48,-4.42,-5.20,6.11,6.10,6.11
33.22,10.60,4.48,10.60,4.48,-4.48,-4.40,-5.17,6.12,6.12,6.12
33.55,10.61,4.47,10.61,4.47,-4.47,-4.37,-5.13,6.14,6.14,6.14
33.89,10.62,4.47,10.61,4.46,-4.46,-4.35,-5.08,6.16,6.15,6.15
34.23,10.62,4.45,10.62,4.46,-4.45,-4.32,-5.03,6.16,6.16,6.16
34.57,10.62,4.44,10.62,4.45,-4.44,-4.29,-4.97,6.17,6.18,6.17
34.92,10.62,4.44,10.62,4.43,-4.43,-4.26,-4.92,6.18,6.18,6.18
35.27,10.62,4.42,10.61,4.42,-4.42,-4.23,-4.85,6.20,6.19,6.20
35.62,10.61,4.40,10.61,4.40,-4.41,-4.20,-4.79,6.20,6.20,6.21
35.97,10.61,4.39,10.60,4.39,-4.39,-4.17,-4.72,6.21,6.21,6.22
36.33,10.60,4.37,10.60,4.38,-4.38,-4.13,-4.65,6.22,6.22,6.22
36.70,10.60,4.37,10.59,4.36,-4.36,-4.10,-4.58,6.24,6.23,6.23
37.06,10.59,4.35,10.58,4.34,-4.34,-4.07,-4.51,6.24,6.24,6.24
37.43,10.57,4.32,10.57,4.32,-4.32,-4.03,-4.43,6.24,6.25,6.25
37.81,10.56,4.30,10.55,4.30,-4.30,-4.00,-4.36,6.26,6.25,6.25
38.19,10.54,4.28,10.54,4.28,-4.28,-3.97,-4.29,6.26,6.26,6.26
38.57,10.52,4.25,10.52,4.25,-4.25,-3.93,-4.22,6.27,6.27,6.27
38.95,10.50,4.22,10.50,4.22,-4.22,-3.90,-4.15,6.27,6.27,6.28
39.34,10.48,4.19,10.47,4.19,-4.19,-3.87,-4.08,6.28,6.28,6.28
39.74,10.45,4.16,10.45,4.16,-4.16,-3.83,-4.01,6.29,6.29,6.29
40.14,10.42,4.13,10.42,4.13,-4.12,-3.80,-3.94,6.29,6.29,6.29
40.54,10.39,4.09,10.38,4.09,-4.09,-3.77,-3.88,6.30,6.29,6.29
40.94,10.35,4.05,10.35,4.05,-4.05,-3.73,-3.82,6.29,6.30,6.30
41.35,10.32,4.01,10.32,4.01,-4.01,-3.70,-3.75,6.30,6.30,6.31
41.76,10.29,3.97,10.28,3.97,-3.98,-3.67,-3.70,6.31,6.31,6.31
42.18,10.26,3.94,10.25,3.94,-3.94,-3.64,-3.64,6.32,6.32,6.32
42.60,10.22,3.89,10.22,3.90,-3.89,-3.61,-3.59,6.32,6.32,6.32
43.03,10.19,3.86,10.18,3.86,-3.85,-3.58,-3.54,6.33,6.33,6.33
43.46,10.15,3.81,10.15,3.81,-3.81,-3.55,-3.49,6.34,6.34,6.34
43.90,10.12,3.78,10.11,3.77,-3.77,-3.53,-3.44,6.35,6.35,6.34
44.33,10.08,3.72,10.07,3.72,-3.72,-3.50,-3.40,6.35,6.35,6.36
44.78,10.04,3.68,10.04,3.68,-3.68,-3.47,-3.36,6.36,6.36,6.36
45.23,10.00,3.63,10.00,3.63,-3.64,-3.45,-3.32,6.36,6.36,6.37
45.68,9.97,3.59,9.97,3.59,-3.59,-3.42,-3.28,6.37,6.37,6.38
46.13,9.94,3.55,9.94,3.55,-3.55,-3.40,-3.25,6.39,6.39,6.39
46.60,9.91,3.51,9.91,3.51,-3.51,-3.38,-3.22,6.40,6.40,6.40
47.06,9.88,3.47,9.87,3.47,-3.47,-3.35,-3.19,6.41,6.41,6.40
47.53,9.84,3.42,9.84,3.42,-3.42,-3.33,-3.16,6.41,6.42,6.42
48.01,9.81,3.39,9.80,3.38,-3.38,-3.31,-3.14,6.43,6.43,6.42
48.49,9.77,3.33,9.77,3.33,-3.33,-3.30,-3.12,6.44,6.44,6.43
48.97,9.73,3.29,9.73,3.29,-3.28,-3.28,-3.10,6.44,6.44,6.44
49.46,9.69,3.24,9.68,3.24,-3.24,-3.26,-3.08,6.45,6.45,6.45
49.96,9.64,3.18,9.64,3.19,-3.19,-3.24,-3.07,6.45,6.45,6.45
50.46,9.60,3.14,9.60,3.14,-3.14,-3.23,-3.06,6.46,6.46,6.46
50.96,9.56,3.09,9.56,3.09,-3.09,-3.22,-3.05,6.46,6.46,6.47
51.47,9.52,3.05,9.52,3.05,-3.05,-3.20,-3.04,6.47,6.47,6.47
51.99,9.48,3.01,9.48,3.00,-3.01,-3.19,-3.03,6.47,6.47,6.47
52.51,9.44,2.96,9.44,2.97,-2.97,-3.18,-3.03,6.47,6.47,6.47
53.03,9.41,2.93,9.41,2.93,-2.93,-3.17,-3.02,6.48,6.48,6.47
53.56,9.38,2.89,9.37,2.89,-2.89,-3.16,-3.02,6.49,6.48,6.48
54.10,9.34,2.85,9.34,2.86,-2.85,-3.16,-3.02,6.48,6.49,6.48
54.64,9.31,2.82,9.30,2.82,-2.82,-3.15,-3.02,6.49,6.48,6.48
55.18,9.27,2.79,9.27,2.79,-2.79,-3.14,-3.02,6.48,6.48,6.47
55.74,9.23,2.75,9.23,2.76,-2.76,-3.14,-3.02,6.47,6.47,6.47
56.29,9.20,2.72,9.20,2.73,-2.73,-3.14,-3.02,6.47,6.47,6.47
56.86,9.17,2.71,9.16,2.70,-2.70,-3.13,-3.03,6.47,6.46,6.46
57.42,9.14,2.68,9.13,2.68,-2.68,-3.13,-3.03,6.46,6.46,6.46
58.00,9.11,2.66,9.11,2.66,-2.66,-3.13,-3.03,6.44,6.45,6.45
58.58,9.09,2.64,9.09,2.65,-2.65,-3.13,-3.04,6.44,6.44,6.44
59.16,9.08,2.65,9.07,2.64,-2.65,-3.13,-3.04,6.43,6.42,6.43
59.76,9.06,2.64,9.06,2.64,-2.65,-3.14,-3.05,6.41,6.41,6.42
60.35,9.06,2.65,9.06,2.65,-2.66,-3.14,-3.05,6.40,6.40,6.40
60.96,9.06,2.67,9.06,2.67,-2.67,-3.15,-3.06,6.38,6.38,6.39
61.57,9.07,2.69,9.07,2.69,-2.69,-3.15,-3.06,6.37,6.37,6.37
62.18,9.08,2.72,9.08,2.72,-2.72,-3.16,-3.07,6.36,6.36,6.36
62.80,9.10,2.76,9.09,2.75,-2.75,-3.17,-3.07,6.35,6.34,6.34
63.43,9.11,2.78,9.11,2.78,-2.79,-3.17,-3.08,6.32,6.32,6.32
64.07,9.12,2.82,9.12,2.82,-2.82,-3.18,-3.08,6.29,6.30,6.30
64.71,9.15,2.87,9.14,2.86,-2.87,-3.20,-3.08,6.28,6.28,6.28
65.35,9.17,2.90,9.17,2.91,-2.91,-3.21,-3.09,6.26,6.26,6.26
66.01,9.20,2.95,9.20,2.95,-2.95,-3.22,-3.09,6.25,6.25,6.24
66.67,9.23,3.00,9.22,3.00,-2.99,-3.24,-3.10,6.23,6.23,6.22
67.33,9.25,3.04,9.25,3.04,-3.04,-3.25,-3.10,6.21,6.21,6.20
68.01,9.27,3.09,9.26,3.09,-3.08,-3.27,-3.11,6.18,6.18,6.17
68.69,9.28,3.12,9.28,3.12,-3.13,-3.28,-3.11,6.15,6.15,6.15
69.37,9.30,3.16,9.30,3.17,-3.17,-3.30,-3.12,6.13,6.13,6.13
70.07,9.32,3.21,9.32,3.21,-3.22,-3.32,-3.12,6.10,6.10,6.11
70.77,9.35,3.26,9.34,3.25,-3.26,-3.34,-3.13,6.09,6.08,6.09
71.48,9.37,3.30,9.37,3.30,-3.31,-3.36,-3.14,6.06,6.06,6.07
72.19,9.40,3.35,9.40,3.35,-3.35,-3.39,-3.15,6.05,6.05,6.04
72.91,9.43,3.40,9.42,3.40,-3.39,-3.41,-3.16,6.03,6.03,6.03
73.64,9.45,3.44,9.45,3.44,-3.43,-3.43,-3.17,6.01,6.02,6.00
74.38,9.47,3.48,9.46,3.48,-3.47,-3.46,-3.19,6.00,5.99,5.99
75.12,9.48,3.51,9.48,3.51,-3.51,-3.49,-3.20,5.97,5.97,5.96
75.87,9.49,3.54,9.49,3.54,-3.54,-3.52,-3.22,5.94,5.94,5.94
76.63,9.50,3.57,9.50,3.57,-3.58,-3.55,-3.24,5.92,5.92,5.93
77.40,9.52,3.61,9.52,3.61,-3.62,-3.58,-3.26,5.90,5.90,5.91
78.17,9.55,3.65,9.54,3.65,-3.66,-3.61,-3.28,5.89,5.88,5.89
78.95,9.58,3.70,9.57,3.70,-3.71,-3.64,-3.31,5.87,5.87,5.87
79.74,9.61,3.75,9.61,3.76,-3.76,-3.68,-3.34,5.85,5.85,5.85
80.54,9.65,3.81,9.65,3.81,-3.81,-3.72,-3.37,5.83,5.83,5.83
81.35,9.69,3.87,9.69,3.87,-3.87,-3.76,-3.40,5.81,5.81,5.81
82.16,9.73,3.94,9.73,3.93,-3.93,-3.80,-3.43,5.79,5.79,5.79
82.98,9.77,4.00,9.76,3.99,-3.99,-3.84,-3.47,5.77,5.77,5.77
83.81,9.80,4.05,9.80,4.05,-4.05,-3.88,-3.51,5.75,5.75,5.75
84.65,9.84,4.11,9.83,4.11,-4.11,-3.92,-3.55,5.73,5.73,5.72
85.50,9.87,4.17,9.87,4.17,-4.16,-3.97,-3.60,5.70,5.70,5.70
86.35,9.90,4.22,9.89,4.22,-4.22,-4.02,-3.65,5.68,5.67,5.68
87.22,9.92,4.26,9.92,4.26,-4.27,-4.06,-3.70,5.64,5.64,5.65
88.09,9.94,4.31,9.94,4.31,-4.32,-4.11,-3.76,5.61,5.62,5.63
88.97,9.98,4.36,9.97,4.37,-4.37,-4.15,-3.81,5.60,5.60,5.61
89.86,10.01,4.42,10.00,4.42,-4.42,-4.19,-3.87,5.59,5.59,5.59
90.76,10.03,4.47,10.03,4.46,-4.46,-4.23,-3.94,5.57,5.57,5.56
91.66,10.05,4.50,10.04,4.50,-4.49,-4.27,-4.00,5.56,5.55,5.54
92.58,10.04,4.52,10.04,4.52,-4.51,-4.30,-4.07,5.52,5.53,5.52
93.51,10.03,4.54,10.03,4.54,-4.53,-4.34,-4.14,5.50,5.50,5.49
94.44,10.02,4.54,10.01,4.54,-4.53,-4.37,-4.21,5.49,5.48,5.47
95.39,9.98,4.53,9.98,4.53,-4.53,-4.39,-4.29,5.45,5.45,5.44
96.34,9.94,4.51,9.94,4.52,-4.52,-4.42,-4.37,5.42,5.42,5.43
97.30,9.90,4.50,9.90,4.50,-4.51,-4.45,-4.45,5.39,5.39,5.40
98.28,9.87,4.50,9.86,4.49,-4.50,-4.48,-4.53,5.37,5.36,5.37
99.26,9.83,4.49,9.83,4.48,-4.49,-4.50,-4.62,5.34,5.34,5.34
100.25,9.80,4.48,9.80,4.48,-4.48,-4.53,-4.70,5.31,5.31,5.32
101.25,9.77,4.47,9.77,4.48,-4.48,-4.56,-4.79,5.28,5.29,5.29
102.27,9.75,4.48,9.74,4.49,-4.49,-4.59,-4.88,5.26,5.26,5.26
103.29,9.73,4.50,9.72,4.50,-4.50,-4.63,-4.97,5.23,5.23,5.22
104.32,9.71,4.51,9.71,4.51,-4.51,-4.66,-5.06,5.19,5.19,5.19
105.37,9.70,4.53,9.69,4.53,-4.54,-4.69,-5.15,5.16,5.16,5.16
106.42,9.69,4.56,9.69,4.56,-4.57,-4.73,-5.24,5.12,5.12,5.12
107.48,9.68,4.59,9.68,4.60,-4.60,-4.76,-5.33,5.08,5.08,5.09
108.56,9.69,4.64,9.68,4.64,-4.64,-4.80,-5.42,5.05,5.04,5.05
109.64,9.69,4.68,9.69,4.68,-4.68,-4.84,-5.50,5.01,5.01,5.01
110.74,9.70,4.73,9.69,4.73,-4.72,-4.87,-5.59,4.97,4.97,4.97
111.85,9.70,4.77,9.70,4.77,-4.77,-4.91,-5.67,4.93,4.93,4.93
112.97,9.70,4.82,9.70,4.81,-4.81,-4.95,-5.74,4.88,4.89,4.88
114.10,9.70,4.85,9.70,4.86,-4.86,-4.99,-5.82,4.84,4.84,4.84
115.24,9.70,4.90,9.70,4.90,-4.90,-5.03,-5.88,4.79,4.79,4.79
116.39,9.70,4.94,9.70,4.94,-4.94,-5.06,-5.94,4.75,4.75,4.76
117.55,9.70,4.99,9.70,4.99,-4.99,-5.10,-6.00,4.71,4.71,4.71
118.73,9.70,5.03,9.70,5.03,-5.03,-5.14,-6.05,4.67,4.67,4.67
119.92,9.70,5.07,9.70,5.07,-5.07,-5.18,-6.09,4.63,4.63,4.62
121.12,9.70,5.11,9.70,5.11,-5.11,-5.22,-6.13,4.59,4.59,4.59
122.33,9.70,5.15,9.70,5.15,-5.15,-5.25,-6.16,4.55,4.55,4.55
123.55,9.70,5.18,9.70,5.18,-5.18,-5.29,-6.17,4.51,4.51,4.51
124.79,9.70,5.22,9.70,5.22,-5.22,-5.33,-6.19,4.48,4.48,4.48
126.03,9.70,5.25,9.70,5.25,-5.25,-5.36,-6.19,4.44,4.44,4.44
127.29,9.70,5.29,9.70,5.29,-5.29,-5.40,-6.18,4.41,4.41,4.41
128.57,9.70,5.32,9.70,5.32,-5.32,-5.43,-6.17,4.38,4.38,4.38
129.85,9.70,5.35,9.70,5.36,-5.35,-5.47,-6.15,4.34,4.34,4.34
131.15,9.70,5.39,9.70,5.39,-5.39,-5.50,-6.12,4.31,4.31,4.31
132.46,9.70,5.42,9.70,5.42,-5.42,-5.53,-6.09,4.28,4.28,4.28
133.79,9.70,5.44,9.70,5.45,-5.45,-5.56,-6.05,4.25,4.25,4.25
135.12,9.70,5.47,9.70,5.47,-5.48,-5.59,-6.00,4.22,4.22,4.22
136.48,9.70,5.50,9.70,5.50,-5.50,-5.62,-5.95,4.19,4.19,4.19
137.84,9.70,5.53,9.70,5.54,-5.53,-5.65,-5.89,4.16,4.16,4.16
139.22,9.70,5.56,9.70,5.56,-5.56,-5.67,-5.83,4.14,4.14,4.13
140.61,9.70,5.59,9.70,5.59,-5.59,-5.70,-5.76,4.10,4.10,4.10
142.02,9.70,5.61,9.70,5.61,-5.62,-5.72,-5.69,4.07,4.07,4.08
143.44,9.70,5.64,9.70,5.64,-5.66,-5.75,-5.62,4.04,4.04,4.06
144.87,9.71,5.68,9.71,5.68,-5.69,-5.77,-5.55,4.02,4.02,4.03
146.32,9.72,5.72,9.71,5.72,-5.72,-5.79,-5.47,4.00,4.00,3.99
147.78,9.72,5.75,9.72,5.75,-5.74,-5.81,-5.40,3.97,3.97,3.97
149.26,9.72,5.78,9.72,5.78,-5.77,-5.82,-5.32,3.95,3.95,3.94
150.75,9.71,5.79,9.71,5.79,-5.79,-5.84,-5.25,3.92,3.92,3.92
152.26,9.70,5.81,9.69,5.81,-5.80,-5.85,-5.17,3.90,3.90,3.89
153.78,9.67,5.81,9.67,5.81,-5.80,-5.86,-5.10,3.86,3.87,3.86
155.32,9.65,5.81,9.64,5.81,-5.80,-5.87,-5.03,3.84,3.84,3.83
156.88,9.61,5.80,9.61,5.80,-5.80,-5.87,-4.96,3.80,3.81,3.81
158.44,9.59,5.80,9.58,5.79,-5.80,-5.88,-4.89,3.79,3.78,3.79
160.03,9.54,5.78,9.55,5.78,-5.79,-5.88,-4.82,3.74,3.75,3.76
161.63,9.52,5.78,9.52,5.78,-5.79,-5.88,-4.76,3.73,3.73,3.74
163.24,9.50,5.79,9.49,5.78,-5.78,-5.88,-4.70,3.71,3.71,3.71
164.88,9.47,5.78,9.47,5.79,-5.78,-5.88,-4.64,3.69,3.69,3.69
166.53,9.45,5.79,9.44,5.78,-5.78,-5.87,-4.59,3.67,3.67,3.66
168.19,9.42,5.79,9.41,5.78,-5.78,-5.87,-4.54,3.64,3.63,3.63
169.87,9.37,5.77,9.38,5.78,-5.78,-5.86,-4.49,3.59,3.60,3.60
171.57,9.35,5.77,9.34,5.77,-5.78,-5.84,-4.44,3.57,3.56,3.57
173.29,9.32,5.77,9.31,5.77,-5.78,-5.83,-4.40,3.54,3.53,3.55
175.02,9.29,5.77,9.29,5.77,-5.78,-5.81,-4.36,3.50,3.51,3.52
176.77,9.27,5.78,9.27,5.78,-5.78,-5.79,-4.33,3.48,3.48,3.48
178.54,9.25,5.79,9.25,5.79,-5.78,-5.77,-4.30,3.46,3.46,3.46
180.32,9.23,5.80,9.22,5.79,-5.78,-5.75,-4.27,3.44,3.44,3.42
182.13,9.19,5.79,9.18,5.79,-5.78,-5.72,-4.24,3.41,3.41,3.40
183.95,9.13,5.76,9.13,5.77,-5.77,-5.69,-4.22,3.36,3.37,3.36
185.79,9.09,5.76,9.08,5.75,-5.75,-5.66,-4.20,3.34,3.33,3.33
187.65,9.03,5.72,9.03,5.73,-5.73,-5.63,-4.19,3.30,3.30,3.31
189.52,8.98,5.70,8.98,5.70,-5.71,-5.59,-4.17,3.27,3.27,3.27
191.42,8.93,5.68,8.92,5.68,-5.68,-5.55,-4.16,3.24,3.24,3.24
193.33,8.86,5.65,8.86,5.65,-5.66,-5.51,-4.16,3.20,3.21,3.21
195.27,8.81,5.62,8.81,5.62,-5.63,-5.47,-4.15,3.18,3.18,3.19
197.22,8.75,5.59,8.75,5.59,-5.59,-5.42,-4.15,3.15,3.15,3.16
199.19,8.69,5.56,8.69,5.56,-5.56,-5.38,-4.15,3.13,3.13,3.13
201.18,8.62,5.53,8.61,5.52,-5.51,-5.33,-4.15,3.11,3.10,3.08
203.19,8.53,5.47,8.53,5.47,-5.46,-5.28,-4.16,3.07,3.07,3.05
205.23,8.43,5.40,8.43,5.40,-5.40,-5.22,-4.16,3.03,3.03,3.02
207.28,8.33,5.33,8.32,5.33,-5.33,-5.17,-4.17,2.99,2.99,3.00
209.35,8.22,5.25,8.22,5.26,-5.26,-5.11,-4.17,2.95,2.96,2.97
211.44,8.12,5.19,8.11,5.18,-5.19,-5.05,-4.18,2.92,2.92,2.93
213.56,8.01,5.11,8.00,5.11,-5.12,-4.98,-4.19,2.89,2.88,2.90
215.69,7.90,5.04,7.90,5.04,-5.04,-4.92,-4.20,2.85,2.85,2.86
217.85,7.78,4.95,7.79,4.96,-4.96,-4.85,-4.20,2.81,2.83,2.82
220.03,7.70,4.90,7.69,4.89,-4.88,-4.78,-4.21,2.81,2.80,2.79
222.23,7.59,4.82,7.58,4.82,-4.80,-4.71,-4.21,2.78,2.78,2.77
224.45,7.46,4.73,7.46,4.72,-4.72,-4.64,-4.21,2.74,2.74,2.73
226.70,7.34,4.63,7.33,4.63,-4.64,-4.56,-4.21,2.70,2.70,2.70
228.96,7.20,4.52,7.22,4.54,-4.55,-4.49,-4.21,2.65,2.67,2.68
231.25,7.12,4.47,7.10,4.45,-4.46,-4.41,-4.20,2.66,2.64,2.65
233.57,7.01,4.37,7.00,4.37,-4.37,-4.33,-4.19,2.64,2.63,2.63
235.90,6.88,4.27,6.89,4.28,-4.28,-4.25,-4.18,2.60,2.61,2.61
238.26,6.79,4.19,6.78,4.19,-4.18,-4.16,-4.16,2.60,2.60,2.59
240.64,6.67,4.09,6.67,4.10,-4.09,-4.07,-4.13,2.58,2.59,2.58
243.05,6.57,4.01,6.56,4.00,-3.99,-3.99,-4.10,2.57,2.57,2.56
245.48,6.46,3.91,6.44,3.90,-3.90,-3.90,-4.07,2.56,2.55,2.55
247.93,6.31,3.78,6.32,3.79,-3.80,-3.80,-4.02,2.51,2.52,2.53
250.41,6.21,3.69,6.20,3.68,-3.70,-3.71,-3.98,2.51,2.50,2.52
252.92,6.08,3.57,6.09,3.59,-3.60,-3.61,-3.92,2.47,2.49,2.50
255.45,6.00,3.51,5.99,3.51,-3.50,-3.51,-3.87,2.49,2.49,2.49
258.00,5.91,3.43,5.89,3.42,-3.40,-3.41,-3.80,2.50,2.49,2.47
260.58,5.78,3.31,5.78,3.32,-3.31,-3.31,-3.73,2.47,2.48,2.47
263.19,5.67,3.21,5.66,3.21,-3.20,-3.21,-3.65,2.46,2.45,2.45
265.82,5.53,3.09,5.54,3.10,-3.10,-3.10,-3.57,2.42,2.44,2.44
268.48,5.43,3.00,5.42,3.00,-3.00,-2.99,-3.49,2.43,2.42,2.43
271.16,5.32,2.90,5.30,2.88,-2.89,-2.88,-3.40,2.43,2.41,2.41
273.87,5.16,2.76,5.17,2.77,-2.77,-2.77,-3.30,2.38,2.40,2.40
276.61,5.04,2.65,5.04,2.65,-2.65,-2.66,-3.20,2.38,2.39,2.39
279.38,4.92,2.54,4.91,2.54,-2.53,-2.54,-3.09,2.39,2.38,2.37
282.17,4.79,2.42,4.78,2.42,-2.40,-2.42,-2.99,2.38,2.38,2.36
284.99,4.65,2.30,4.63,2.28,-2.28,-2.30,-2.88,2.37,2.35,2.35
287.84,4.46,2.12,4.47,2.14,-2.14,-2.18,-2.76,2.31,2.33,2.34
290.72,4.32,1.99,4.32,2.00,-2.01,-2.05,-2.65,2.31,2.31,2.32
293.63,4.18,1.87,4.17,1.86,-1.87,-1.93,-2.53,2.30,2.30,2.31
296.57,4.03,1.73,4.03,1.73,-1.73,-1.80,-2.41,2.29,2.30,2.30
299.53,3.89,1.60,3.88,1.60,-1.59,-1.66,-2.29,2.29,2.29,2.29
302.53,3.74,1.46,3.73,1.46,-1.45,-1.53,-2.16,2.28,2.28,2.27
305.55,3.57,1.32,3.57,1.31,-1.32,-1.39,-2.04,2.25,2.25,2.25
308.61,3.41,1.17,3.41,1.17,-1.17,-1.25,-1.91,2.23,2.23,2.24
311.69,3.24,1.01,3.25,1.02,-1.03,-1.11,-1.79,2.21,2.22,2.23
314.81,3.10,0.89,3.09,0.88,-0.88,-0.97,-1.66,2.22,2.21,2.20
317.96,2.93,0.73,2.92,0.73,-0.72,-0.82,-1.53,2.20,2.20,2.19
321.14,2.75,0.58,2.75,0.57,-0.56,-0.67,-1.41,2.18,2.18,2.17
324.35,2.57,0.41,2.56,0.41,-0.40,-0.52,-1.28,2.17,2.16,2.16
327.59,2.37,0.23,2.38,0.24,-0.23,-0.36,-1.15,2.13,2.14,2.14
330.87,2.20,0.07,2.18,0.06,-0.06,-0.21,-1.02,2.13,2.12,2.13
334.18,2.00,-0.11,2.00,-0.11,0.11,-0.05,-0.89,2.10,2.10,2.10
337.52,1.80,-0.30,1.81,-0.28,0.28,0.11,-0.77,2.08,2.09,2.09
340.90,1.64,-0.44,1.62,-0.45,0.45,0.27,-0.64,2.09,2.07,2.07
344.30,1.44,-0.62,1.44,-0.62,0.61,0.44,-0.51,2.05,2.05,2.06
347.75,1.27,-0.77,1.26,-0.78,0.77,0.60,-0.38,2.04,2.04,2.04
351.23,1.08,-0.94,1.08,-0.94,0.93,0.77,-0.26,2.01,2.01,2.02
354.74,0.92,-1.09,0.92,-1.08,1.08,0.93,-0.13,2.00,2.00,2.01
358.28,0.76,-1.23,0.76,-1.23,1.23,1.10,0.00,1.99,1.99,1.99
361.87,0.61,-1.36,0.60,-1.37,1.38,1.27,0.13,1.98,1.97,1.96
365.49,0.44,-1.52,0.44,-1.51,1.51,1.43,0.26,1.95,1.96,1.95
369.14,0.29,-1.65,0.29,-1.65,1.65,1.60,0.38,1.93,1.93,1.93
372.83,0.15,-1.77,0.14,-1.78,1.77,1.76,0.51,1.92,1.91,1.92
376.56,-0.01,-1.91,-0.00,-1.90,1.89,1.92,0.64,1.88,1.89,1.90
380.33,-0.13,-2.01,-0.13,-2.01,2.01,2.08,0.77,1.88,1.88,1.88
384.13,-0.24,-2.11,-0.26,-2.12,2.12,2.23,0.89,1.88,1.87,1.87
387.97,-0.37,-2.22,-0.37,-2.22,2.23,2.38,1.02,1.86,1.86,1.85
391.85,-0.49,-2.33,-0.49,-2.33,2.33,2.52,1.14,1.84,1.84,1.84
395.77,-0.60,-2.43,-0.61,-2.43,2.43,2.65,1.27,1.83,1.83,1.83
399.73,-0.71,-2.53,-0.72,-2.53,2.53,2.78,1.39,1.82,1.81,1.82
403.72,-0.82,-2.63,-0.82,-2.62,2.63,2.90,1.52,1.80,1.81,1.80
407.76,-0.92,-2.72,-0.92,-2.72,2.72,3.01,1.64,1.80,1.80,1.79
411.84,-1.02,-2.80,-1.03,-2.81,2.81,3.11,1.76,1.79,1.78,1.77
415.96,-1.13,-2.90,-1.13,-2.90,2.90,3.19,1.88,1.77,1.77,1.76
420.12,-1.23,-2.99,-1.23,-2.98,2.98,3.27,2.00,1.75,1.75,1.75
424.32,-1.32,-3.06,-1.32,-3.06,3.05,3.33,2.12,1.73,1.73,1.74
428.56,-1.39,-3.12,-1.40,-3.12,3.12,3.39,2.23,1.72,1.72,1.73
432.85,-1.46,-3.17,-1.47,-3.18,3.17,3.43,2.34,1.71,1.71,1.71
437.18,-1.52,-3.22,-1.52,-3.22,3.22,3.45,2.45,1.69,1.70,1.70
441.55,-1.57,-3.26,-1.57,-3.25,3.25,3.47,2.55,1.68,1.68,1.69
445.96,-1.60,-3.27,-1.61,-3.28,3.27,3.47,2.65,1.67,1.66,1.67
450.42,-1.63,-3.28,-1.63,-3.29,3.28,3.46,2.74,1.65,1.65,1.65
454.93,-1.65,-3.29,-1.65,-3.29,3.29,3.44,2.83,1.63,1.64,1.64
459.48,-1.66,-3.28,-1.67,-3.28,3.29,3.42,2.92,1.62,1.62,1.62
464.07,-1.67,-3.27,-1.67,-3.27,3.28,3.38,2.99,1.60,1.60,1.60
468.71,-1.68,-3.26,-1.68,-3.26,3.27,3.33,3.07,1.58,1.58,1.58
473.40,-1.68,-3.25,-1.69,-3.25,3.25,3.28,3.13,1.57,1.56,1.57
478.13,-1.69,-3.24,-1.69,-3.24,3.24,3.22,3.19,1.54,1.55,1.55
482.91,-1.68,-3.22,-1.68,-3.22,3.22,3.15,3.24,1.53,1.53,1.54
487.74,-1.67,-3.19,-1.68,-3.19,3.20,3.08,3.28,1.53,1.52,1.52
492.62,-1.66,-3.17,-1.66,-3.17,3.18,3.00,3.32,1.52,1.52,1.50
497.55,-1.65,-3.15,-1.66,-3.15,3.16,2.93,3.34,1.50,1.50,1.49
502.52,-1.64,-3.13,-1.64,-3.13,3.13,2.85,3.36,1.48,1.48,1.48
507.55,-1.63,-3.11,-1.63,-3.10,3.09,2.76,3.37,1.46,1.47,1.47
512.62,-1.59,-3.05,-1.60,-3.06,3.05,2.68,3.38,1.46,1.45,1.45
517.75,-1.56,-3.01,-1.56,-3.00,3.00,2.60,3.37,1.44,1.44,1.44
522.93,-1.52,-2.95,-1.52,-2.94,2.94,2.51,3.36,1.42,1.42,1.42
528.16,-1.46,-2.87,-1.47,-2.87,2.87,2.43,3.34,1.41,1.40,1.40
533.44,-1.41,-2.80,-1.41,-2.79,2.79,2.35,3.31,1.38,1.38,1.38
