frequency,raw,error,smoothed,error_smoothed,equalization,parametric_eq,fixed_band_eq,equalized_raw,equalized_smoothed,target
20.00,3.97,0.37,3.97,0.38,-0.38,0.38,-0.21,3.59,3.59,3.59
20.20,3.95,0.38,3.95,0.37,-0.38,0.36,-0.22,3.57,3.57,3.57
20.40,3.92,0.38,3.92,0.37,-0.37,0.33,-0.22,3.55,3.55,3.54
20.61,3.89,0.37,3.89,0.37,-0.37,0.31,-0.23,3.52,3.52,3.52
20.81,3.87,0.37,3.87,0.37,-0.37,0.28,-0.23,3.50,3.50,3.50
21.02,3.84,0.37,3.84,0.37,-0.36,0.26,-0.24,3.48,3.48,3.47
21.23,3.82,0.37,3.82,0.36,-0.36,0.23,-0.24,3.46,3.46,3.45
21.44,3.79,0.36,3.78,0.35,-0.35,0.21,-0.25,3.44,3.43,3.43
21.66,3.75,0.34,3.75,0.34,-0.34,0.18,-0.26,3.41,3.41,3.41
21.87,3.72,0.33,3.72,0.33,-0.34,0.16,-0.26,3.38,3.39,3.39
22.09,3.70,0.33,3.69,0.32,-0.33,0.13,-0.27,3.37,3.36,3.37
22.31,3.66,0.31,3.66,0.32,-0.32,0.10,-0.28,3.34,3.35,3.35
22.54,3.63,0.31,3.63,0.31,-0.31,0.08,-0.28,3.32,3.33,3.32
22.76,3.61,0.31,3.60,0.30,-0.30,0.05,-0.29,3.31,3.30,3.30
22.99,3.57,0.29,3.57,0.29,-0.29,0.02,-0.30,3.28,3.28,3.28
23.22,3.53,0.27,3.54,0.28,-0.27,-0.00,-0.30,3.26,3.26,3.26
23.45,3.51,0.26,3.50,0.26,-0.26,-0.03,-0.31,3.25,3.25,3.25
23.69,3.47,0.24,3.47,0.24,-0.24,-0.06,-0.32,3.23,3.23,3.23
23.92,3.44,0.22,3.44,0.22,-0.22,-0.09,-0.32,3.21,3.22,3.22
24.16,3.41,0.21,3.41,0.20,-0.21,-0.11,-0.33,3.20,3.20,3.20
24.40,3.37,0.18,3.37,0.19,-0.19,-0.14,-0.34,3.18,3.18,3.19
24.65,3.35,0.17,3.35,0.17,-0.18,-0.17,-0.35,3.17,3.17,3.18
24.89,3.32,0.16,3.32,0.16,-0.16,-0.20,-0.36,3.16,3.16,3.16
25.14,3.30,0.15,3.30,0.15,-0.15,-0.23,-0.37,3.15,3.15,3.14
25.39,3.28,0.15,3.28,0.15,-0.14,-0.26,-0.38,3.14,3.14,3.13
25.65,3.26,0.14,3.26,0.13,-0.13,-0.28,-0.38,3.13,3.12,3.12
25.91,3.24,0.13,3.24,0.13,-0.13,-0.31,-0.39,3.11,3.11,3.11
26.16,3.22,0.12,3.22,0.12,-0.13,-0.34,-0.40,3.09,3.09,3.10
26.43,3.21,0.13,3.21,0.12,-0.13,-0.37,-0.41,3.08,3.08,3.08
26.69,3.20,0.13,3.20,0.13,-0.13,-0.40,-0.42,3.07,3.07,3.07
26.96,3.20,0.14,3.20,0.14,-0.13,-0.43,-0.43,3.06,3.06,3.06
27.23,3.20,0.15,3.19,0.15,-0.14,-0.46,-0.44,3.06,3.05,3.05
27.50,3.19,0.15,3.20,0.15,-0.15,-0.49,-0.46,3.04,3.04,3.04
27.77,3.20,0.16,3.20,0.17,-0.17,-0.52,-0.47,3.03,3.03,3.04
28.05,3.21,0.18,3.21,0.18,-0.18,-0.55,-0.48,3.02,3.02,3.03
28.33,3.22,0.20,3.22,0.20,-0.20,-0.58,-0.49,3.02,3.02,3.02
28.62,3.24,0.22,3.24,0.22,-0.23,-0.61,-0.50,3.01,3.01,3.01
28.90,3.26,0.26,3.26,0.25,-0.25,-0.64,-0.51,3.01,3.01,3.00
29.19,3.27,0.27,3.28,0.28,-0.28,-0.67,-0.53,2.99,3.00,3.00
29.48,3.31,0.32,3.30,0.31,-0.31,-0.70,-0.54,3.00,2.99,2.99
29.78,3.33,0.34,3.33,0.34,-0.34,-0.73,-0.55,2.99,2.99,2.99
30.08,3.36,0.38,3.36,0.38,-0.38,-0.76,-0.57,2.98,2.98,2.98
30.38,3.38,0.40,3.38,0.41,-0.41,-0.79,-0.58,2.97,2.97,2.98
30.68,3.42,0.45,3.42,0.45,-0.45,-0.82,-0.60,2.97,2.97,2.97
30.99,3.45,0.49,3.45,0.49,-0.49,-0.85,-0.61,2.96,2.96,2.95
31.30,3.48,0.53,3.48,0.53,-0.53,-0.88,-0.62,2.95,2.96,2.95
31.61,3.51,0.57,3.51,0.57,-0.56,-0.92,-0.64,2.94,2.94,2.94
31.93,3.54,0.61,3.54,0.60,-0.60,-0.95,-0.66,2.93,2.93,2.93
32.24,3.56,0.63,3.56,0.64,-0.64,-0.98,-0.67,2.92,2.92,2.93
32.57,3.60,0.68,3.59,0.68,-0.68,-1.01,-0.69,2.92,2.91,2.92
32.89,3.62,0.71,3.63,0.72,-0.72,-1.04,-0.71,2.90,2.90,2.91
33.22,3.66,0.77,3.65,0.76,-0.76,-1.07,-0.72,2.90,2.90,2.89
33.55,3.68,0.80,3.68,0.80,-0.79,-1.10,-0.74,2.89,2.89,2.88
33.89,3.70,0.83,3.70,0.83,-0.82,-1.13,-0.76,2.87,2.88,2.87
34.23,3.72,0.86,3.72,0.86,-0.85,-1.16,-0.78,2.86,2.86,2.86
34.57,3.74,0.88,3.74,0.88,-0.88,-1.19,-0.80,2.86,2.85,2.86
34.92,3.75,0.90,3.75,0.91,-0.91,-1.22,-0.82,2.84,2.84,2.84
35.27,3.77,0.94,3.77,0.93,-0.93,-1.25,-0.84,2.84,2.83,2.83
35.62,3.78,0.95,3.78,0.96,-0.96,-1.28,-0.87,2.82,2.83,2.83
35.97,3.80,0.98,3.80,0.98,-0.98,-1.31,-0.89,2.82,2.82,2.82
36.33,3.82,1.00,3.82,1.00,-1.01,-1.34,-0.91,2.81,2.81,2.82
36.70,3.83,1.03,3.84,1.03,-1.03,-1.38,-0.94,2.80,2.80,2.80
37.06,3.86,1.07,3.85,1.06,-1.06,-1.41,-0.96,2.80,2.79,2.79
37.43,3.88,1.09,3.88,1.09,-1.09,-1.44,-0.99,2.79,2.79,2.79
37.81,3.90,1.12,3.90,1.13,-1.13,-1.47,-1.01,2.77,2.78,2.77
38.19,3.94,1.17,3.93,1.16,-1.16,-1.50,-1.04,2.78,2.77,2.77
38.57,3.96,1.20,3.96,1.20,-1.20,-1.53,-1.07,2.76,2.76,2.76
38.95,4.00,1.24,4.00,1.25,-1.25,-1.55,-1.10,2.75,2.75,2.76
39.34,4.04,1.30,4.04,1.29,-1.30,-1.58,-1.13,2.74,2.74,2.74
39.74,4.08,1.34,4.08,1.34,-1.35,-1.61,-1.16,2.73,2.73,2.74
40.14,4.13,1.40,4.13,1.40,-1.40,-1.64,-1.19,2.73,2.73,2.73
40.54,4.18,1.46,4.18,1.46,-1.46,-1.67,-1.23,2.72,2.72,2.72
40.94,4.24,1.53,4.24,1.53,-1.52,-1.70,-1.26,2.72,2.71,2.71
41.35,4.29,1.59,4.29,1.59,-1.59,-1.73,-1.29,2.70,2.70,2.70
41.76,4.35,1.66,4.35,1.66,-1.66,-1.76,-1.33,2.69,2.69,2.69
42.18,4.41,1.72,4.41,1.72,-1.73,-1.79,-1.37,2.68,2.68,2.69
42.60,4.47,1.80,4.47,1.80,-1.80,-1.81,-1.41,2.67,2.67,2.67
43.03,4.53,1.86,4.53,1.87,-1.87,-1.84,-1.45,2.66,2.66,2.67
43.46,4.60,1.95,4.60,1.94,-1.94,-1.87,-1.49,2.66,2.66,2.65
43.90,4.67,2.02,4.67,2.02,-2.02,-1.90,-1.53,2.65,2.65,2.65
44.33,4.73,2.09,4.73,2.09,-2.09,-1.92,-1.57,2.64,2.64,2.64
44.78,4.79,2.16,4.79,2.16,-2.16,-1.95,-1.62,2.63,2.63,2.63
45.23,4.85,2.23,4.85,2.23,-2.23,-1.98,-1.67,2.62,2.62,2.62
45.68,4.91,2.29,4.91,2.29,-2.29,-2.00,-1.71,2.62,2.62,2.62
46.13,4.97,2.36,4.97,2.36,-2.36,-2.03,-1.76,2.61,2.61,2.61
46.60,5.02,2.41,5.02,2.42,-2.41,-2.06,-1.81,2.60,2.61,2.60
47.06,5.07,2.47,5.07,2.47,-2.47,-2.08,-1.86,2.60,2.60,2.60
47.53,5.12,2.53,5.12,2.53,-2.52,-2.11,-1.91,2.60,2.59,2.59
48.01,5.16,2.57,5.16,2.57,-2.57,-2.13,-1.96,2.59,2.59,2.59
48.49,5.20,2.62,5.20,2.62,-2.62,-2.16,-2.02,2.58,2.58,2.58
48.97,5.23,2.66,5.23,2.66,-2.66,-2.18,-2.07,2.57,2.57,2.57
49.46,5.27,2.71,5.27,2.70,-2.70,-2.20,-2.13,2.57,2.56,2.56
49.96,5.29,2.73,5.30,2.74,-2.74,-2.23,-2.18,2.55,2.56,2.56
50.46,5.33,2.78,5.32,2.78,-2.77,-2.25,-2.24,2.56,2.55,2.55
50.96,5.35,2.81,5.35,2.81,-2.80,-2.28,-2.29,2.55,2.54,2.54
51.47,5.36,2.83,5.36,2.83,-2.83,-2.30,-2.35,2.53,2.53,2.53
51.99,5.38,2.86,5.38,2.85,-2.85,-2.32,-2.41,2.52,2.52,2.52
52.51,5.39,2.88,5.39,2.87,-2.88,-2.34,-2.46,2.51,2.51,2.51
53.03,5.40,2.89,5.40,2.89,-2.89,-2.37,-2.52,2.51,2.51,2.50
53.56,5.40,2.90,5.40,2.91,-2.91,-2.39,-2.57,2.49,2.49,2.49
54.10,5.41,2.92,5.40,2.92,-2.92,-2.41,-2.63,2.49,2.48,2.48
54.64,5.40,2.92,5.40,2.93,-2.93,-2.43,-2.68,2.47,2.47,2.47
55.18,5.40,2.94,5.40,2.94,-2.94,-2.45,-2.73,2.46,2.46,2.46
55.74,5.40,2.95,5.40,2.94,-2.94,-2.47,-2.78,2.45,2.45,2.45
56.29,5.39,2.95,5.39,2.95,-2.95,-2.49,-2.83,2.44,2.44,2.44
56.86,5.38,2.95,5.38,2.95,-2.95,-2.51,-2.88,2.43,2.43,2.43
57.42,5.37,2.95,5.37,2.95,-2.95,-2.53,-2.92,2.42,2.42,2.42
58.00,5.36,2.94,5.36,2.95,-2.95,-2.55,-2.97,2.41,2.41,2.41
58.58,5.34,2.94,5.34,2.94,-2.94,-2.57,-3.00,2.40,2.40,2.40
59.16,5.33,2.94,5.32,2.93,-2.93,-2.58,-3.04,2.40,2.39,2.39
59.76,5.30,2.93,5.30,2.92,-2.92,-2.60,-3.07,2.37,2.38,2.37
60.35,5.28,2.91,5.28,2.91,-2.91,-2.62,-3.10,2.36,2.36,2.37
60.96,5.25,2.89,5.25,2.90,-2.90,-2.64,-3.13,2.35,2.35,2.36
61.57,5.23,2.89,5.23,2.89,-2.89,-2.65,-3.15,2.34,2.34,2.34
62.18,5.21,2.88,5.21,2.88,-2.88,-2.67,-3.17,2.33,2.33,2.32
62.80,5.18,2.87,5.18,2.87,-2.86,-2.68,-3.18,2.32,2.32,2.31
63.43,5.15,2.85,5.15,2.85,-2.85,-2.70,-3.19,2.30,2.30,2.30
64.07,5.11,2.82,5.11,2.83,-2.83,-2.71,-3.20,2.28,2.28,2.29
64.71,5.08,2.81,5.08,2.81,-2.81,-2.73,-3.20,2.27,2.26,2.27
65.35,5.04,2.79,5.04,2.79,-2.80,-2.74,-3.20,2.24,2.25,2.25
66.01,5.01,2.78,5.01,2.78,-2.78,-2.76,-3.20,2.23,2.23,2.23
66.67,4.98,2.77,4.97,2.76,-2.76,-2.77,-3.19,2.22,2.21,2.21
67.33,4.94,2.75,4.94,2.75,-2.75,-2.79,-3.18,2.19,2.19,2.19
68.01,4.90,2.73,4.90,2.73,-2.73,-2.80,-3.17,2.17,2.17,2.17
68.69,4.87,2.72,4.87,2.71,-2.71,-2.81,-3.16,2.16,2.15,2.15
69.37,4.83,2.70,4.83,2.70,-2.70,-2.82,-3.14,2.13,2.13,2.13
70.07,4.79,2.68,4.79,2.68,-2.68,-2.84,-3.12,2.11,2.11,2.11
70.77,4.75,2.66,4.75,2.67,-2.67,-2.85,-3.10,2.08,2.08,2.09
71.48,4.72,2.66,4.71,2.65,-2.65,-2.86,-3.08,2.07,2.06,2.06
72.19,4.67,2.63,4.68,2.64,-2.64,-2.87,-3.06,2.03,2.04,2.04
72.91,4.64,2.62,4.64,2.62,-2.62,-2.88,-3.04,2.02,2.01,2.02
73.64,4.60,2.62,4.59,2.61,-2.61,-2.89,-3.01,1.99,1.98,1.98
74.38,4.55,2.59,4.56,2.60,-2.60,-2.90,-2.99,1.95,1.96,1.96
75.12,4.52,2.59,4.52,2.59,-2.59,-2.91,-2.97,1.93,1.93,1.93
75.87,4.48,2.58,4.47,2.58,-2.58,-2.92,-2.94,1.90,1.90,1.89
76.63,4.43,2.56,4.43,2.57,-2.57,-2.93,-2.92,1.86,1.86,1.87
77.40,4.39,2.56,4.39,2.56,-2.56,-2.94,-2.90,1.83,1.83,1.83
78.17,4.35,2.56,4.35,2.56,-2.56,-2.95,-2.88,1.79,1.79,1.79
78.95,4.31,2.56,4.31,2.55,-2.56,-2.96,-2.86,1.75,1.75,1.75
79.74,4.27,2.55,4.27,2.56,-2.56,-2.96,-2.85,1.71,1.71,1.71
80.54,4.23,2.55,4.23,2.56,-2.56,-2.97,-2.83,1.67,1.68,1.67
81.35,4.20,2.56,4.20,2.56,-2.56,-2.98,-2.82,1.64,1.64,1.63
82.16,4.16,2.57,4.16,2.56,-2.56,-2.98,-2.80,1.60,1.60,1.59
82.98,4.12,2.57,4.12,2.57,-2.57,-2.99,-2.79,1.55,1.55,1.55
83.81,4.08,2.57,4.08,2.57,-2.57,-3.00,-2.79,1.51,1.51,1.51
84.65,4.04,2.58,4.04,2.58,-2.58,-3.00,-2.78,1.46,1.46,1.46
85.50,4.01,2.59,4.01,2.59,-2.58,-3.01,-2.77,1.43,1.42,1.42
86.35,3.97,2.59,3.97,2.59,-2.59,-3.01,-2.77,1.38,1.38,1.38
87.22,3.93,2.59,3.93,2.59,-2.60,-3.02,-2.77,1.33,1.34,1.34
88.09,3.90,2.60,3.90,2.60,-2.60,-3.02,-2.77,1.30,1.29,1.30
88.97,3.86,2.61,3.86,2.61,-2.61,-3.03,-2.78,1.25,1.25,1.25
89.86,3.82,2.61,3.82,2.61,-2.61,-3.03,-2.78,1.21,1.21,1.21
90.76,3.79,2.62,3.79,2.62,-2.62,-3.04,-2.79,1.17,1.17,1.17
91.66,3.75,2.62,3.75,2.62,-2.63,-3.04,-2.80,1.12,1.13,1.12
92.58,3.72,2.63,3.72,2.63,-2.63,-3.04,-2.81,1.09,1.09,1.09
93.51,3.68,2.64,3.68,2.64,-2.64,-3.04,-2.83,1.04,1.04,1.04
94.44,3.66,2.65,3.65,2.65,-2.65,-3.05,-2.85,1.01,1.00,1.01
95.39,3.62,2.66,3.62,2.66,-2.66,-3.05,-2.86,0.96,0.96,0.96
96.34,3.59,2.67,3.59,2.67,-2.67,-3.05,-2.88,0.92,0.92,0.92
97.30,3.56,2.68,3.56,2.68,-2.68,-3.05,-2.91,0.88,0.88,0.87
98.28,3.53,2.69,3.53,2.70,-2.70,-3.05,-2.93,0.83,0.83,0.84
99.26,3.50,2.71,3.50,2.71,-2.71,-3.05,-2.95,0.79,0.79,0.79
100.25,3.47,2.73,3.47,2.73,-2.73,-3.05,-2.98,0.74,0.74,0.74
101.25,3.44,2.75,3.44,2.75,-2.75,-3.05,-3.01,0.69,0.69,0.69
102.27,3.41,2.76,3.41,2.76,-2.76,-3.05,-3.04,0.65,0.65,0.64
103.29,3.38,2.78,3.38,2.78,-2.78,-3.05,-3.07,0.60,0.60,0.60
104.32,3.35,2.80,3.35,2.80,-2.80,-3.05,-3.10,0.55,0.55,0.55
105.37,3.32,2.82,3.32,2.82,-2.82,-3.05,-3.13,0.50,0.50,0.50
106.42,3.29,2.84,3.29,2.84,-2.84,-3.04,-3.16,0.45,0.45,0.45
107.48,3.26,2.86,3.26,2.86,-2.86,-3.04,-3.19,0.40,0.40,0.40
108.56,3.23,2.87,3.23,2.88,-2.88,-3.04,-3.22,0.35,0.36,0.35
109.64,3.21,2.90,3.21,2.90,-2.90,-3.03,-3.25,0.31,0.31,0.31
110.74,3.18,2.92,3.18,2.92,-2.92,-3.03,-3.27,0.26,0.26,0.26
111.85,3.15,2.94,3.15,2.94,-2.94,-3.02,-3.30,0.21,0.21,0.21
112.97,3.12,2.96,3.12,2.96,-2.96,-3.02,-3.33,0.16,0.16,0.16
114.10,3.09,2.97,3.09,2.98,-2.98,-3.01,-3.35,0.11,0.11,0.12
115.24,3.07,3.00,3.07,3.00,-3.00,-3.01,-3.37,0.07,0.07,0.07
116.39,3.05,3.03,3.05,3.03,-3.02,-3.00,-3.39,0.03,0.02,0.02
117.55,3.02,3.04,3.02,3.04,-3.04,-2.99,-3.40,-0.02,-0.02,-0.03
118.73,2.99,3.06,2.99,3.06,-3.06,-2.99,-3.42,-0.07,-0.07,-0.07
119.92,2.96,3.07,2.96,3.07,-3.07,-2.98,-3.42,-0.11,-0.11,-0.11
121.12,2.94,3.09,2.94,3.09,-3.09,-2.97,-3.43,-0.15,-0.15,-0.15
122.33,2.91,3.10,2.91,3.10,-3.10,-2.96,-3.43,-0.19,-0.19,-0.19
123.55,2.88,3.11,2.88,3.12,-3.12,-2.95,-3.43,-0.24,-0.23,-0.23
124.79,2.86,3.13,2.86,3.13,-3.13,-2.94,-3.43,-0.27,-0.27,-0.27
126.03,2.83,3.14,2.83,3.14,-3.14,-2.93,-3.42,-0.31,-0.31,-0.31
127.29,2.81,3.16,2.81,3.15,-3.16,-2.92,-3.40,-0.35,-0.35,-0.35
128.57,2.78,3.16,2.78,3.17,-3.17,-2.91,-3.39,-0.39,-0.39,-0.38
129.85,2.76,3.18,2.76,3.18,-3.18,-2.90,-3.37,-0.42,-0.42,-0.42
131.15,2.74,3.19,2.74,3.19,-3.19,-2.89,-3.34,-0.45,-0.45,-0.46
132.46,2.71,3.20,2.71,3.20,-3.20,-2.87,-3.31,-0.49,-0.49,-0.49
133.79,2.69,3.21,2.69,3.21,-3.20,-2.86,-3.28,-0.52,-0.52,-0.52
135.12,2.66,3.21,2.66,3.21,-3.21,-2.85,-3.25,-0.55,-0.55,-0.55
136.48,2.64,3.22,2.64,3.21,-3.22,-2.83,-3.21,-0.58,-0.58,-0.58
137.84,2.61,3.21,2.61,3.22,-3.22,-2.82,-3.17,-0.61,-0.61,-0.60
139.22,2.59,3.22,2.59,3.22,-3.22,-2.80,-3.13,-0.63,-0.63,-0.63
140.61,2.57,3.23,2.57,3.22,-3.22,-2.79,-3.09,-0.65,-0.65,-0.66
142.02,2.55,3.23,2.55,3.22,-3.22,-2.77,-3.04,-0.67,-0.67,-0.68
143.44,2.52,3.21,2.52,3.22,-3.22,-2.76,-3.00,-0.70,-0.70,-0.69
144.87,2.50,3.22,2.50,3.22,-3.22,-2.74,-2.95,-0.72,-0.72,-0.72
146.32,2.48,3.22,2.48,3.21,-3.21,-2.72,-2.90,-0.73,-0.74,-0.74
147.78,2.45,3.20,2.45,3.21,-3.21,-2.71,-2.85,-0.76,-0.76,-0.75
149.26,2.43,3.21,2.43,3.20,-3.20,-2.69,-2.80,-0.77,-0.77,-0.78
150.75,2.40,3.19,2.40,3.19,-3.19,-2.67,-2.75,-0.79,-0.79,-0.79
152.26,2.38,3.19,2.38,3.19,-3.18,-2.65,-2.71,-0.80,-0.81,-0.81
153.78,2.35,3.17,2.35,3.17,-3.17,-2.63,-2.66,-0.82,-0.82,-0.82
155.32,2.33,3.16,2.33,3.16,-3.16,-2.61,-2.61,-0.83,-0.83,-0.83
156.88,2.30,3.15,2.30,3.14,-3.14,-2.59,-2.56,-0.84,-0.84,-0.85
158.44,2.26,3.12,2.27,3.12,-3.12,-2.57,-2.52,-0.86,-0.86,-0.86
160.03,2.24,3.11,2.23,3.10,-3.10,-2.55,-2.47,-0.86,-0.87,-0.87
161.63,2.20,3.08,2.20,3.08,-3.08,-2.53,-2.43,-0.88,-0.88,-0.88
163.24,2.17,3.06,2.17,3.06,-3.06,-2.51,-2.38,-0.89,-0.89,-0.89
164.88,2.14,3.04,2.14,3.04,-3.04,-2.49,-2.34,-0.90,-0.90,-0.90
166.53,2.11,3.02,2.11,3.02,-3.02,-2.47,-2.30,-0.91,-0.91,-0.91
168.19,2.08,3.00,2.08,3.00,-3.00,-2.45,-2.26,-0.92,-0.92,-0.92
169.87,2.04,2.97,2.04,2.97,-2.97,-2.43,-2.22,-0.93,-0.93,-0.93
171.57,2.01,2.95,2.00,2.94,-2.94,-2.40,-2.19,-0.94,-0.94,-0.94
173.29,1.96,2.91,1.97,2.92,-2.92,-2.38,-2.15,-0.96,-0.95,-0.95
175.02,1.93,2.89,1.92,2.89,-2.88,-2.36,-2.12,-0.95,-0.96,-0.96
176.77,1.88,2.85,1.88,2.85,-2.85,-2.34,-2.09,-0.97,-0.97,-0.97
178.54,1.83,2.81,1.83,2.81,-2.81,-2.31,-2.06,-0.98,-0.98,-0.98
180.32,1.78,2.77,1.78,2.77,-2.77,-2.29,-2.03,-0.99,-1.00,-1.00
182.13,1.72,2.73,1.72,2.73,-2.73,-2.27,-2.00,-1.01,-1.01,-1.01
183.95,1.65,2.67,1.66,2.68,-2.68,-2.24,-1.98,-1.03,-1.02,-1.02
185.79,1.60,2.64,1.59,2.63,-2.63,-2.22,-1.95,-1.03,-1.04,-1.04
187.65,1.53,2.58,1.53,2.58,-2.58,-2.19,-1.93,-1.05,-1.05,-1.05
189.52,1.46,2.52,1.47,2.53,-2.53,-2.17,-1.91,-1.07,-1.06,-1.06
191.42,1.40,2.48,1.40,2.47,-2.48,-2.15,-1.89,-1.08,-1.08,-1.08
193.33,1.34,2.43,1.34,2.43,-2.43,-2.12,-1.88,-1.09,-1.09,-1.09
195.27,1.27,2.37,1.27,2.38,-2.38,-2.10,-1.86,-1.11,-1.11,-1.10
197.22,1.21,2.33,1.21,2.33,-2.33,-2.07,-1.84,-1.12,-1.12,-1.12
199.19,1.15,2.28,1.15,2.28,-2.29,-2.05,-1.83,-1.14,-1.14,-1.13
201.18,1.09,2.24,1.09,2.24,-2.24,-2.02,-1.82,-1.15,-1.15,-1.16
203.19,1.03,2.20,1.03,2.20,-2.20,-2.00,-1.81,-1.17,-1.17,-1.17
205.23,0.97,2.16,0.97,2.15,-2.15,-1.97,-1.80,-1.18,-1.18,-1.19
207.28,0.91,2.11,0.91,2.11,-2.11,-1.95,-1.79,-1.20,-1.20,-1.20
209.35,0.85,2.06,0.85,2.06,-2.06,-1.92,-1.78,-1.21,-1.21,-1.22
211.44,0.79,2.02,0.79,2.02,-2.02,-1.90,-1.77,-1.23,-1.23,-1.23
213.56,0.73,1.97,0.73,1.97,-1.98,-1.87,-1.76,-1.25,-1.25,-1.24
215.69,0.67,1.93,0.67,1.93,-1.93,-1.85,-1.75,-1.26,-1.26,-1.26
217.85,0.61,1.88,0.61,1.89,-1.89,-1.82,-1.75,-1.28,-1.28,-1.27
220.03,0.56,1.85,0.56,1.85,-1.84,-1.79,-1.74,-1.29,-1.28,-1.29
222.23,0.51,1.81,0.51,1.80,-1.80,-1.77,-1.73,-1.29,-1.29,-1.30
224.45,0.46,1.76,0.46,1.76,-1.76,-1.74,-1.73,-1.30,-1.30,-1.30
226.70,0.40,1.71,0.40,1.72,-1.72,-1.72,-1.72,-1.32,-1.31,-1.31
228.96,0.36,1.68,0.36,1.67,-1.67,-1.69,-1.71,-1.31,-1.32,-1.32
231.25,0.31,1.63,0.31,1.63,-1.63,-1.67,-1.70,-1.32,-1.32,-1.32
233.57,0.27,1.59,0.27,1.59,-1.59,-1.64,-1.69,-1.32,-1.32,-1.32
235.90,0.22,1.55,0.22,1.55,-1.55,-1.61,-1.69,-1.33,-1.32,-1.33
238.26,0.19,1.51,0.18,1.51,-1.51,-1.59,-1.68,-1.32,-1.32,-1.32
240.64,0.14,1.46,0.14,1.47,-1.47,-1.56,-1.67,-1.33,-1.32,-1.32
243.05,0.11,1.43,0.11,1.43,-1.43,-1.54,-1.65,-1.32,-1.32,-1.32
245.48,0.07,1.39,0.07,1.39,-1.39,-1.51,-1.64,-1.32,-1.32,-1.32
247.93,0.04,1.35,0.04,1.36,-1.36,-1.48,-1.63,-1.32,-1.31,-1.32
250.41,0.02,1.33,0.01,1.33,-1.32,-1.46,-1.61,-1.31,-1.31,-1.31
252.92,-0.01,1.30,-0.01,1.30,-1.29,-1.43,-1.60,-1.31,-1.31,-1.32
255.45,-0.05,1.26,-0.04,1.27,-1.27,-1.41,-1.58,-1.32,-1.31,-1.31
258.00,-0.07,1.23,-0.07,1.24,-1.24,-1.38,-1.57,-1.31,-1.31,-1.30
260.58,-0.09,1.22,-0.10,1.21,-1.22,-1.35,-1.55,-1.31,-1.31,-1.31
263.19,-0.12,1.19,-0.11,1.19,-1.20,-1.33,-1.53,-1.32,-1.31,-1.31
265.82,-0.13,1.18,-0.13,1.18,-1.17,-1.30,-1.51,-1.31,-1.31,-1.31
268.48,-0.15,1.16,-0.15,1.16,-1.16,-1.28,-1.49,-1.31,-1.31,-1.31
271.16,-0.17,1.14,-0.17,1.14,-1.14,-1.25,-1.46,-1.31,-1.31,-1.31
273.87,-0.20,1.12,-0.19,1.12,-1.12,-1.22,-1.44,-1.32,-1.31,-1.32
276.61,-0.21,1.10,-0.21,1.10,-1.10,-1.20,-1.42,-1.31,-1.32,-1.31
279.38,-0.23,1.08,-0.23,1.08,-1.09,-1.17,-1.39,-1.32,-1.32,-1.32
282.17,-0.25,1.07,-0.25,1.07,-1.07,-1.14,-1.37,-1.32,-1.32,-1.32
284.99,-0.26,1.05,-0.26,1.05,-1.05,-1.12,-1.34,-1.31,-1.31,-1.31
287.84,-0.28,1.03,-0.28,1.04,-1.03,-1.09,-1.32,-1.31,-1.31,-1.31
290.72,-0.29,1.02,-0.29,1.02,-1.02,-1.06,-1.29,-1.31,-1.31,-1.31
293.63,-0.31,1.00,-0.31,1.00,-1.00,-1.04,-1.27,-1.31,-1.31,-1.31
296.57,-0.33,0.97,-0.33,0.98,-0.98,-1.01,-1.24,-1.31,-1.31,-1.30
299.53,-0.34,0.97,-0.34,0.96,-0.96,-0.98,-1.22,-1.30,-1.30,-1.31
302.53,-0.36,0.94,-0.36,0.94,-0.94,-0.95,-1.19,-1.30,-1.30,-1.30
305.55,-0.38,0.91,-0.38,0.92,-0.91,-0.93,-1.17,-1.29,-1.29,-1.29
308.61,-0.39,0.89,-0.39,0.89,-0.89,-0.90,-1.14,-1.28,-1.28,-1.28
311.69,-0.41,0.86,-0.41,0.86,-0.86,-0.87,-1.12,-1.27,-1.27,-1.28
314.81,-0.43,0.84,-0.43,0.84,-0.84,-0.85,-1.09,-1.27,-1.26,-1.27
317.96,-0.45,0.81,-0.45,0.81,-0.81,-0.82,-1.07,-1.26,-1.26,-1.26
321.14,-0.47,0.78,-0.47,0.78,-0.78,-0.79,-1.05,-1.25,-1.25,-1.25
324.35,-0.50,0.74,-0.50,0.75,-0.75,-0.77,-1.02,-1.25,-1.24,-1.24
327.59,-0.52,0.71,-0.52,0.71,-0.72,-0.74,-1.00,-1.24,-1.24,-1.24
330.87,-0.55,0.69,-0.55,0.68,-0.69,-0.71,-0.98,-1.24,-1.24,-1.24
334.18,-0.58,0.65,-0.58,0.65,-0.65,-0.69,-0.96,-1.24,-1.23,-1.23
337.52,-0.60,0.63,-0.60,0.62,-0.62,-0.66,-0.94,-1.22,-1.23,-1.23
340.90,-0.63,0.59,-0.63,0.59,-0.59,-0.64,-0.92,-1.22,-1.23,-1.22
344.30,-0.66,0.56,-0.66,0.57,-0.56,-0.61,-0.90,-1.23,-1.22,-1.22
347.75,-0.69,0.53,-0.69,0.54,-0.54,-0.58,-0.88,-1.23,-1.22,-1.23
351.23,-0.71,0.52,-0.72,0.51,-0.51,-0.56,-0.86,-1.22,-1.23,-1.23
354.74,-0.75,0.48,-0.75,0.48,-0.48,-0.54,-0.84,-1.23,-1.23,-1.23
358.28,-0.78,0.46,-0.78,0.46,-0.46,-0.51,-0.82,-1.24,-1.24,-1.24
361.87,-0.81,0.43,-0.81,0.43,-0.43,-0.49,-0.81,-1.24,-1.24,-1.24
365.49,-0.83,0.41,-0.83,0.41,-0.41,-0.47,-0.79,-1.24,-1.24,-1.24
369.14,-0.85,0.39,-0.85,0.39,-0.39,-0.45,-0.78,-1.24,-1.24,-1.24
372.83,-0.87,0.37,-0.87,0.37,-0.37,-0.43,-0.76,-1.24,-1.24,-1.24
376.56,-0.88,0.36,-0.88,0.36,-0.36,-0.41,-0.75,-1.24,-1.24,-1.24
380.33,-0.90,0.34,-0.89,0.34,-0.34,-0.39,-0.73,-1.24,-1.24,-1.24
384.13,-0.90,0.34,-0.90,0.33,-0.33,-0.37,-0.72,-1.23,-1.24,-1.24
387.97,-0.91,0.32,-0.91,0.32,-0.32,-0.36,-0.71,-1.23,-1.23,-1.23
391.85,-0.92,0.31,-0.92,0.31,-0.31,-0.34,-0.70,-1.23,-1.23,-1.23
395.77,-0.92,0.30,-0.92,0.30,-0.30,-0.33,-0.68,-1.22,-1.22,-1.22
399.73,-0.91,0.30,-0.92,0.30,-0.29,-0.32,-0.67,-1.20,-1.21,-1.21
403.72,-0.92,0.29,-0.92,0.29,-0.29,-0.30,-0.66,-1.21,-1.21,-1.21
407.76,-0.92,0.28,-0.92,0.28,-0.28,-0.29,-0.65,-1.20,-1.20,-1.20
411.84,-0.92,0.27,-0.92,0.28,-0.28,-0.29,-0.64,-1.20,-1.20,-1.19
415.96,-0.91,0.27,-0.91,0.28,-0.28,-0.28,-0.63,-1.19,-1.19,-1.19
420.12,-0.90,0.29,-0.90,0.28,-0.28,-0.27,-0.62,-1.18,-1.18,-1.19
424.32,-0.89,0.29,-0.89,0.28,-0.28,-0.27,-0.62,-1.17,-1.18,-1.18
428.56,-0.88,0.29,-0.88,0.29,-0.29,-0.26,-0.61,-1.17,-1.17,-1.17
432.85,-0.87,0.29,-0.86,0.29,-0.30,-0.26,-0.60,-1.17,-1.16,-1.16
437.18,-0.84,0.31,-0.84,0.30,-0.31,-0.26,-0.59,-1.15,-1.15,-1.15
441.55,-0.82,0.32,-0.82,0.32,-0.32,-0.26,-0.59,-1.14,-1.14,-1.14
445.96,-0.80,0.33,-0.80,0.33,-0.33,-0.26,-0.58,-1.13,-1.13,-1.13
450.42,-0.78,0.34,-0.78,0.34,-0.34,-0.26,-0.57,-1.12,-1.12,-1.12
454.93,-0.77,0.34,-0.76,0.35,-0.35,-0.26,-0.56,-1.12,-1.11,-1.11
459.48,-0.74,0.36,-0.75,0.35,-0.36,-0.27,-0.56,-1.10,-1.10,-1.10
464.07,-0.73,0.36,-0.73,0.36,-0.37,-0.27,-0.55,-1.10,-1.09,-1.09
468.71,-0.71,0.37,-0.71,0.38,-0.37,-0.27,-0.55,-1.08,-1.08,-1.08
473.40,-0.69,0.38,-0.69,0.38,-0.38,-0.28,-0.54,-1.07,-1.07,-1.07
478.13,-0.67,0.39,-0.67,0.39,-0.39,-0.28,-0.53,-1.06,-1.06,-1.06
482.91,-0.66,0.38,-0.66,0.39,-0.39,-0.29,-0.53,-1.05,-1.05,-1.04
487.74,-0.64,0.39,-0.64,0.39,-0.39,-0.30,-0.52,-1.03,-1.03,-1.03
492.62,-0.63,0.38,-0.63,0.39,-0.39,-0.30,-0.52,-1.02,-1.01,-1.01
497.55,-0.61,0.39,-0.62,0.39,-0.38,-0.31,-0.51,-0.99,-1.00,-1.01
