frequency,raw,error,smoothed,error_smoothed,equalization,parametric_eq,fixed_band_eq,equalized_raw,equalized_smoothed,target
20.00,2.56,0.08,2.56,0.08,-0.08,-1.48,-0.86,2.48,2.48,2.48
20.20,2.63,0.11,2.63,0.11,-0.11,-1.48,-0.89,2.52,2.52,2.52
20.40,2.70,0.14,2.70,0.15,-0.14,-1.49,-0.91,2.55,2.55,2.56
20.61,2.77,0.19,2.77,0.18,-0.19,-1.50,-0.94,2.58,2.58,2.57
20.81,2.84,0.22,2.84,0.22,-0.23,-1.51,-0.97,2.61,2.61,2.62
21.02,2.91,0.25,2.91,0.27,-0.28,-1.52,-1.00,2.63,2.63,2.65
21.23,2.99,0.33,2.99,0.32,-0.34,-1.52,-1.02,2.65,2.65,2.66
21.44,3.07,0.39,3.07,0.39,-0.40,-1.53,-1.06,2.67,2.68,2.68
21.66,3.16,0.46,3.16,0.47,-0.46,-1.54,-1.09,2.70,2.70,2.69
21.87,3.24,0.55,3.24,0.54,-0.53,-1.55,-1.12,2.71,2.71,2.69
22.09,3.32,0.62,3.32,0.62,-0.61,-1.56,-1.15,2.71,2.71,2.70
22.31,3.39,0.69,3.39,0.69,-0.68,-1.57,-1.18,2.71,2.71,2.70
22.54,3.46,0.76,3.46,0.76,-0.77,-1.58,-1.22,2.69,2.69,2.70
22.76,3.53,0.84,3.53,0.84,-0.85,-1.59,-1.25,2.68,2.68,2.69
22.99,3.60,0.92,3.60,0.92,-0.93,-1.60,-1.29,2.67,2.67,2.68
23.22,3.68,1.00,3.68,1.00,-1.01,-1.61,-1.32,2.67,2.67,2.68
23.45,3.76,1.09,3.76,1.09,-1.09,-1.62,-1.36,2.67,2.68,2.67
23.69,3.85,1.18,3.85,1.18,-1.16,-1.63,-1.40,2.69,2.69,2.67
23.92,3.93,1.26,3.92,1.25,-1.23,-1.64,-1.44,2.70,2.69,2.67
24.16,3.99,1.31,3.99,1.31,-1.30,-1.65,-1.48,2.69,2.69,2.68
24.40,4.04,1.36,4.04,1.36,-1.36,-1.66,-1.52,2.68,2.68,2.68
24.65,4.08,1.41,4.08,1.41,-1.42,-1.68,-1.56,2.66,2.66,2.67
24.89,4.13,1.46,4.13,1.46,-1.48,-1.69,-1.60,2.65,2.65,2.67
25.14,4.18,1.51,4.18,1.52,-1.53,-1.70,-1.64,2.65,2.65,2.67
25.39,4.24,1.57,4.24,1.58,-1.59,-1.72,-1.68,2.65,2.65,2.67
25.65,4.30,1.64,4.30,1.64,-1.65,-1.73,-1.73,2.65,2.65,2.65
25.91,4.36,1.71,4.36,1.71,-1.70,-1.74,-1.77,2.65,2.65,2.64
26.16,4.41,1.77,4.41,1.77,-1.76,-1.76,-1.81,2.65,2.65,2.64
26.43,4.46,1.82,4.46,1.82,-1.82,-1.77,-1.85,2.64,2.65,2.64
26.69,4.51,1.87,4.51,1.87,-1.86,-1.79,-1.89,2.65,2.65,2.64
26.96,4.56,1.93,4.55,1.91,-1.91,-1.80,-1.93,2.65,2.64,2.63
27.23,4.58,1.95,4.58,1.95,-1.94,-1.82,-1.97,2.64,2.64,2.63
27.50,4.60,1.97,4.60,1.98,-1.97,-1.83,-2.01,2.62,2.63,2.63
27.77,4.62,2.00,4.62,2.00,-2.00,-1.85,-2.05,2.62,2.61,2.62
28.05,4.64,2.02,4.64,2.02,-2.03,-1.87,-2.09,2.61,2.61,2.62
28.33,4.66,2.05,4.66,2.05,-2.06,-1.89,-2.12,2.60,2.60,2.61
28.62,4.69,2.08,4.69,2.08,-2.09,-1.90,-2.16,2.60,2.60,2.61
28.90,4.72,2.11,4.72,2.11,-2.12,-1.92,-2.19,2.60,2.60,2.60
29.19,4.75,2.15,4.75,2.15,-2.14,-1.94,-2.22,2.60,2.61,2.60
29.48,4.78,2.17,4.79,2.18,-2.17,-1.96,-2.25,2.61,2.62,2.61
29.78,4.82,2.22,4.81,2.21,-2.19,-1.98,-2.27,2.63,2.62,2.60
30.08,4.84,2.23,4.83,2.23,-2.21,-2.00,-2.29,2.63,2.62,2.61
30.38,4.83,2.24,4.83,2.24,-2.23,-2.03,-2.31,2.59,2.60,2.59
30.68,4.83,2.24,4.83,2.24,-2.26,-2.05,-2.33,2.57,2.57,2.59
30.99,4.82,2.24,4.83,2.25,-2.28,-2.07,-2.35,2.54,2.55,2.58
31.30,4.86,2.28,4.86,2.28,-2.30,-2.09,-2.36,2.56,2.55,2.57
31.61,4.89,2.32,4.89,2.33,-2.32,-2.12,-2.37,2.57,2.57,2.57
31.93,4.93,2.38,4.92,2.37,-2.34,-2.14,-2.38,2.58,2.58,2.55
32.24,4.94,2.40,4.93,2.39,-2.37,-2.17,-2.38,2.57,2.57,2.54
32.57,4.93,2.39,4.93,2.40,-2.39,-2.19,-2.38,2.54,2.55,2.54
32.89,4.92,2.39,4.92,2.40,-2.40,-2.22,-2.38,2.52,2.52,2.53
33.22,4.92,2.41,4.92,2.41,-2.42,-2.24,-2.38,2.50,2.50,2.51
33.55,4.92,2.42,4.92,2.42,-2.43,-2.27,-2.38,2.49,2.49,2.50
33.89,4.92,2.44,4.92,2.43,-2.44,-2.30,-2.37,2.48,2.48,2.48
34.23,4.92,2.44,4.92,2.45,-2.45,-2.32,-2.36,2.47,2.47,2.48
34.57,4.92,2.46,4.92,2.46,-2.46,-2.35,-2.35,2.46,2.46,2.46
34.92,4.92,2.47,4.92,2.47,-2.47,-2.37,-2.34,2.45,2.45,2.45
35.27,4.92,2.48,4.92,2.48,-2.48,-2.40,-2.33,2.44,2.44,2.44
35.62,4.92,2.50,4.92,2.49,-2.49,-2.43,-2.31,2.42,2.42,2.42
35.97,4.92,2.51,4.92,2.51,-2.51,-2.45,-2.30,2.41,2.41,2.41
36.33,4.92,2.51,4.92,2.52,-2.51,-2.48,-2.28,2.40,2.40,2.41
36.70,4.92,2.53,4.92,2.52,-2.52,-2.50,-2.27,2.40,2.40,2.39
37.06,4.92,2.54,4.92,2.53,-2.53,-2.52,-2.25,2.39,2.39,2.38
37.43,4.92,2.53,4.92,2.54,-2.54,-2.54,-2.24,2.38,2.38,2.39
37.81,4.92,2.54,4.92,2.54,-2.54,-2.56,-2.22,2.38,2.38,2.38
38.19,4.92,2.56,4.92,2.55,-2.55,-2.58,-2.21,2.37,2.37,2.36
38.57,4.92,2.55,4.92,2.56,-2.56,-2.60,-2.19,2.36,2.36,2.37
38.95,4.92,2.56,4.92,2.56,-2.57,-2.62,-2.18,2.35,2.35,2.36
39.34,4.92,2.57,4.92,2.57,-2.57,-2.63,-2.17,2.35,2.35,2.35
39.74,4.92,2.58,4.92,2.58,-2.58,-2.64,-2.16,2.34,2.34,2.34
40.14,4.92,2.58,4.92,2.58,-2.57,-2.65,-2.15,2.35,2.35,2.34
40.54,4.92,2.59,4.92,2.59,-2.57,-2.66,-2.14,2.35,2.35,2.33
40.94,4.92,2.59,4.91,2.58,-2.56,-2.67,-2.13,2.36,2.34,2.33
41.35,4.88,2.56,4.88,2.56,-2.56,-2.67,-2.12,2.32,2.32,2.32
41.76,4.84,2.54,4.84,2.54,-2.55,-2.68,-2.12,2.29,2.29,2.30
42.18,4.81,2.51,4.82,2.53,-2.55,-2.68,-2.11,2.26,2.27,2.30
42.60,4.82,2.54,4.81,2.53,-2.55,-2.68,-2.11,2.27,2.27,2.28
43.03,4.82,2.54,4.82,2.54,-2.55,-2.68,-2.11,2.27,2.26,2.28
43.46,4.82,2.57,4.82,2.57,-2.56,-2.67,-2.11,2.25,2.26,2.25
43.90,4.82,2.59,4.82,2.59,-2.58,-2.67,-2.11,2.24,2.24,2.23
44.33,4.82,2.61,4.82,2.61,-2.60,-2.67,-2.12,2.21,2.21,2.21
44.78,4.82,2.63,4.82,2.63,-2.63,-2.66,-2.12,2.19,2.19,2.19
45.23,4.82,2.65,4.82,2.65,-2.65,-2.65,-2.13,2.17,2.17,2.17
45.68,4.82,2.66,4.82,2.66,-2.66,-2.65,-2.14,2.16,2.16,2.16
46.13,4.82,2.68,4.82,2.68,-2.67,-2.64,-2.15,2.15,2.15,2.14
46.60,4.82,2.68,4.82,2.69,-2.67,-2.63,-2.16,2.15,2.16,2.14
47.06,4.82,2.69,4.81,2.68,-2.66,-2.62,-2.18,2.16,2.15,2.13
47.53,4.78,2.66,4.78,2.66,-2.64,-2.61,-2.19,2.14,2.14,2.12
48.01,4.74,2.62,4.73,2.62,-2.62,-2.60,-2.21,2.12,2.12,2.12
48.49,4.69,2.59,4.68,2.58,-2.60,-2.59,-2.23,2.09,2.08,2.10
48.97,4.63,2.55,4.65,2.56,-2.60,-2.58,-2.25,2.03,2.05,2.08
49.46,4.63,2.55,4.63,2.55,-2.59,-2.57,-2.27,2.03,2.03,2.08
49.96,4.63,2.57,4.62,2.55,-2.59,-2.56,-2.29,2.04,2.03,2.06
50.46,4.63,2.56,4.63,2.56,-2.58,-2.54,-2.31,2.05,2.05,2.07
50.96,4.63,2.57,4.67,2.61,-2.56,-2.53,-2.33,2.07,2.11,2.06
51.47,4.68,2.63,4.69,2.63,-2.54,-2.51,-2.36,2.13,2.14,2.05
51.99,4.73,2.68,4.63,2.59,-2.53,-2.50,-2.38,2.20,2.11,2.04
52.51,4.54,2.50,4.54,2.50,-2.51,-2.48,-2.41,2.03,2.04,2.05
53.03,4.36,2.31,4.45,2.41,-2.48,-2.46,-2.43,1.88,1.97,2.05
53.56,4.41,2.37,4.40,2.36,-2.44,-2.44,-2.46,1.97,1.95,2.04
54.10,4.44,2.41,4.41,2.38,-2.40,-2.41,-2.49,2.04,2.01,2.03
54.64,4.42,2.39,4.42,2.40,-2.35,-2.39,-2.51,2.07,2.08,2.03
55.18,4.39,2.37,4.39,2.37,-2.31,-2.36,-2.54,2.08,2.08,2.02
55.74,4.33,2.33,4.32,2.31,-2.29,-2.34,-2.57,2.04,2.03,2.00
56.29,4.25,2.25,4.24,2.25,-2.27,-2.31,-2.59,1.98,1.97,2.00
56.86,4.15,2.17,4.17,2.18,-2.24,-2.28,-2.61,1.91,1.92,1.98
57.42,4.12,2.15,4.13,2.16,-2.21,-2.24,-2.64,1.91,1.93,1.97
58.00,4.12,2.16,4.15,2.20,-2.17,-2.21,-2.66,1.95,1.99,1.96
58.58,4.18,2.24,4.14,2.20,-2.14,-2.18,-2.68,2.04,2.01,1.94
59.16,4.16,2.23,4.08,2.15,-2.12,-2.15,-2.70,2.04,1.96,1.93
59.76,3.93,2.02,4.00,2.09,-2.11,-2.12,-2.71,1.82,1.89,1.91
60.35,3.88,2.00,3.93,2.05,-2.11,-2.10,-2.73,1.77,1.82,1.88
60.96,3.95,2.09,3.91,2.06,-2.10,-2.09,-2.74,1.85,1.81,1.86
61.57,3.94,2.13,3.93,2.11,-2.09,-2.08,-2.76,1.85,1.84,1.81
62.18,3.91,2.13,3.91,2.13,-2.09,-2.08,-2.76,1.82,1.82,1.78
62.80,3.86,2.12,3.86,2.12,-2.10,-2.09,-2.77,1.76,1.76,1.74
63.43,3.81,2.11,3.81,2.11,-2.11,-2.11,-2.78,1.70,1.70,1.70
64.07,3.76,2.09,3.77,2.11,-2.12,-2.14,-2.78,1.64,1.65,1.67
64.71,3.76,2.13,3.76,2.12,-2.14,-2.17,-2.78,1.62,1.62,1.63
65.35,3.76,2.16,3.76,2.16,-2.15,-2.22,-2.78,1.61,1.61,1.60
66.01,3.76,2.20,3.76,2.20,-2.17,-2.26,-2.78,1.59,1.59,1.56
66.67,3.76,2.24,3.73,2.20,-2.21,-2.31,-2.78,1.55,1.52,1.52
67.33,3.72,2.23,3.71,2.22,-2.26,-2.36,-2.77,1.46,1.45,1.49
68.01,3.65,2.20,3.72,2.27,-2.31,-2.42,-2.77,1.34,1.41,1.45
68.69,3.79,2.38,3.77,2.35,-2.37,-2.47,-2.76,1.42,1.40,1.41
69.37,3.86,2.49,3.82,2.45,-2.43,-2.52,-2.75,1.43,1.40,1.37
70.07,3.86,2.53,3.87,2.54,-2.49,-2.57,-2.74,1.37,1.38,1.33
70.77,3.86,2.56,3.87,2.57,-2.55,-2.61,-2.74,1.31,1.32,1.30
71.48,3.86,2.60,3.86,2.61,-2.61,-2.66,-2.73,1.25,1.25,1.25
72.19,3.86,2.65,3.86,2.65,-2.66,-2.70,-2.72,1.20,1.20,1.21
72.91,3.86,2.70,3.86,2.70,-2.71,-2.74,-2.71,1.15,1.15,1.16
73.64,3.86,2.75,3.86,2.75,-2.75,-2.78,-2.70,1.11,1.11,1.11
74.38,3.86,2.79,3.86,2.79,-2.79,-2.81,-2.69,1.07,1.07,1.07
75.12,3.86,2.84,3.86,2.83,-2.83,-2.85,-2.68,1.03,1.03,1.02
75.87,3.86,2.87,3.86,2.87,-2.87,-2.88,-2.67,0.99,0.99,0.99
76.63,3.86,2.91,3.86,2.91,-2.91,-2.91,-2.67,0.95,0.95,0.95
77.40,3.86,2.95,3.86,2.95,-2.95,-2.94,-2.66,0.91,0.91,0.91
78.17,3.86,2.99,3.86,2.98,-2.98,-2.96,-2.66,0.88,0.88,0.87
78.95,3.86,3.01,3.86,3.01,-3.01,-2.99,-2.66,0.85,0.85,0.84
79.74,3.86,3.04,3.86,3.04,-3.04,-3.01,-2.66,0.82,0.82,0.82
80.54,3.86,3.07,3.86,3.07,-3.07,-3.04,-2.66,0.78,0.78,0.79
81.35,3.86,3.10,3.86,3.10,-3.10,-3.06,-2.66,0.76,0.76,0.76
82.16,3.86,3.13,3.86,3.13,-3.13,-3.08,-2.66,0.73,0.73,0.73
82.98,3.86,3.15,3.86,3.16,-3.16,-3.10,-2.67,0.70,0.70,0.70
83.81,3.86,3.20,3.86,3.19,-3.19,-3.12,-2.68,0.67,0.67,0.66
84.65,3.86,3.23,3.86,3.22,-3.23,-3.14,-2.69,0.63,0.63,0.63
85.50,3.86,3.25,3.86,3.25,-3.28,-3.15,-2.70,0.58,0.58,0.61
86.35,3.86,3.28,3.85,3.28,-3.32,-3.17,-2.71,0.54,0.53,0.57
87.22,3.86,3.32,3.87,3.32,-3.35,-3.19,-2.73,0.51,0.51,0.54
88.09,3.87,3.36,3.91,3.40,-3.37,-3.20,-2.75,0.50,0.54,0.51
88.97,3.96,3.48,3.93,3.45,-3.37,-3.22,-2.77,0.58,0.56,0.48
89.86,3.96,3.51,3.91,3.47,-3.38,-3.23,-2.79,0.58,0.54,0.45
90.76,3.82,3.41,3.83,3.42,-3.38,-3.25,-2.81,0.44,0.45,0.41
91.66,3.71,3.32,3.72,3.34,-3.39,-3.26,-2.84,0.32,0.33,0.39
92.58,3.62,3.27,3.64,3.29,-3.40,-3.27,-2.87,0.22,0.24,0.35
93.51,3.62,3.30,3.62,3.30,-3.40,-3.28,-2.90,0.22,0.22,0.32
94.44,3.66,3.36,3.66,3.36,-3.39,-3.30,-2.93,0.27,0.27,0.30
95.39,3.70,3.43,3.72,3.45,-3.38,-3.31,-2.97,0.32,0.33,0.27
96.34,3.76,3.53,3.72,3.49,-3.37,-3.32,-3.00,0.38,0.35,0.23
97.30,3.70,3.49,3.68,3.47,-3.37,-3.33,-3.04,0.33,0.31,0.21
98.28,3.55,3.37,3.57,3.39,-3.37,-3.34,-3.08,0.18,0.21,0.18
99.26,3.47,3.31,3.46,3.30,-3.36,-3.35,-3.12,0.11,0.10,0.16
100.25,3.35,3.22,3.39,3.25,-3.35,-3.36,-3.16,0.00,0.04,0.13
101.25,3.37,3.27,3.37,3.27,-3.34,-3.37,-3.21,0.03,0.04,0.10
102.27,3.40,3.32,3.37,3.30,-3.33,-3.38,-3.25,0.07,0.04,0.08
103.29,3.39,3.36,3.38,3.35,-3.33,-3.39,-3.30,0.06,0.05,0.03
104.32,3.37,3.36,3.38,3.38,-3.34,-3.40,-3.34,0.03,0.04,0.01
105.37,3.36,3.39,3.38,3.41,-3.36,-3.41,-3.39,0.00,0.02,-0.03
106.42,3.39,3.45,3.36,3.42,-3.37,-3.41,-3.43,0.02,-0.01,-0.06
107.48,3.33,3.42,3.30,3.40,-3.37,-3.42,-3.48,-0.04,-0.07,-0.10
108.56,3.20,3.33,3.23,3.37,-3.37,-3.43,-3.52,-0.17,-0.14,-0.13
109.64,3.15,3.32,3.16,3.33,-3.36,-3.44,-3.57,-0.21,-0.20,-0.17
110.74,3.13,3.33,3.12,3.32,-3.36,-3.44,-3.61,-0.24,-0.24,-0.20
111.85,3.11,3.34,3.11,3.34,-3.37,-3.45,-3.65,-0.26,-0.26,-0.23
112.97,3.11,3.38,3.10,3.37,-3.39,-3.46,-3.69,-0.28,-0.29,-0.28
114.10,3.10,3.39,3.10,3.40,-3.41,-3.46,-3.73,-0.32,-0.31,-0.29
115.24,3.11,3.44,3.12,3.45,-3.44,-3.47,-3.76,-0.33,-0.32,-0.33
116.39,3.13,3.49,3.14,3.50,-3.46,-3.47,-3.80,-0.33,-0.32,-0.36
117.55,3.17,3.55,3.13,3.52,-3.48,-3.48,-3.83,-0.31,-0.34,-0.38
118.73,3.12,3.53,3.11,3.51,-3.48,-3.48,-3.85,-0.36,-0.37,-0.41
119.92,3.03,3.45,3.07,3.50,-3.48,-3.49,-3.87,-0.45,-0.41,-0.42
121.12,3.03,3.47,3.03,3.47,-3.48,-3.49,-3.90,-0.45,-0.45,-0.44
122.33,3.02,3.48,2.98,3.43,-3.47,-3.50,-3.91,-0.45,-0.49,-0.46
123.55,2.95,3.41,2.95,3.42,-3.46,-3.50,-3.92,-0.51,-0.51,-0.46
124.79,2.88,3.37,2.94,3.43,-3.45,-3.51,-3.93,-0.57,-0.51,-0.49
126.03,2.97,3.47,2.95,3.45,-3.44,-3.51,-3.93,-0.47,-0.50,-0.50
127.29,3.00,3.51,2.95,3.47,-3.44,-3.51,-3.93,-0.44,-0.49,-0.52
128.57,2.94,3.48,2.95,3.48,-3.45,-3.52,-3.93,-0.51,-0.50,-0.54
129.85,2.88,3.43,2.91,3.46,-3.46,-3.52,-3.92,-0.58,-0.55,-0.55
131.15,2.89,3.45,2.88,3.45,-3.47,-3.52,-3.91,-0.58,-0.59,-0.56
132.46,2.89,3.47,2.89,3.46,-3.49,-3.53,-3.89,-0.60,-0.60,-0.58
133.79,2.90,3.48,2.90,3.48,-3.50,-3.53,-3.87,-0.61,-0.61,-0.58
135.12,2.90,3.51,2.90,3.49,-3.51,-3.53,-3.85,-0.61,-0.61,-0.61
136.48,2.90,3.51,2.91,3.52,-3.51,-3.53,-3.83,-0.61,-0.60,-0.61
137.84,2.91,3.54,2.93,3.57,-3.50,-3.53,-3.80,-0.59,-0.57,-0.63
139.22,2.94,3.60,2.90,3.56,-3.50,-3.54,-3.77,-0.56,-0.59,-0.66
140.61,2.90,3.58,2.84,3.51,-3.49,-3.54,-3.74,-0.59,-0.64,-0.68
142.02,2.70,3.37,2.77,3.46,-3.47,-3.54,-3.71,-0.78,-0.70,-0.67
143.44,2.71,3.40,2.71,3.41,-3.47,-3.54,-3.67,-0.76,-0.76,-0.69
144.87,2.72,3.44,2.70,3.41,-3.48,-3.54,-3.64,-0.76,-0.78,-0.72
146.32,2.72,3.46,2.72,3.46,-3.49,-3.54,-3.60,-0.77,-0.77,-0.75
147.78,2.72,3.49,2.72,3.49,-3.51,-3.54,-3.57,-0.79,-0.79,-0.77
149.26,2.72,3.53,2.72,3.53,-3.53,-3.54,-3.54,-0.81,-0.81,-0.81
150.75,2.72,3.58,2.75,3.60,-3.56,-3.54,-3.50,-0.84,-0.81,-0.86
152.26,2.75,3.65,2.74,3.65,-3.59,-3.54,-3.47,-0.84,-0.84,-0.91
153.78,2.75,3.71,2.68,3.65,-3.61,-3.54,-3.44,-0.86,-0.92,-0.96
155.32,2.58,3.60,2.61,3.62,-3.62,-3.54,-3.40,-1.04,-1.01,-1.02
156.88,2.47,3.54,2.52,3.60,-3.63,-3.53,-3.37,-1.16,-1.10,-1.07
158.44,2.48,3.63,2.44,3.59,-3.63,-3.53,-3.35,-1.15,-1.19,-1.15
160.03,2.43,3.64,2.40,3.61,-3.64,-3.53,-3.32,-1.21,-1.23,-1.21
161.63,2.34,3.60,2.39,3.65,-3.65,-3.53,-3.29,-1.31,-1.26,-1.26
163.24,2.36,3.68,2.35,3.66,-3.67,-3.52,-3.27,-1.31,-1.32,-1.32
164.88,2.38,3.73,2.32,3.68,-3.70,-3.52,-3.25,-1.32,-1.37,-1.35
166.53,2.27,3.66,2.33,3.71,-3.72,-3.52,-3.23,-1.45,-1.39,-1.39
168.19,2.32,3.74,2.33,3.74,-3.74,-3.51,-3.21,-1.42,-1.41,-1.42
169.87,2.36,3.80,2.34,3.78,-3.75,-3.51,-3.20,-1.39,-1.41,-1.44
171.57,2.35,3.81,2.34,3.80,-3.75,-3.50,-3.19,-1.40,-1.41,-1.46
173.29,2.32,3.79,2.30,3.77,-3.74,-3.50,-3.18,-1.42,-1.45,-1.47
175.02,2.21,3.69,2.24,3.72,-3.74,-3.49,-3.17,-1.53,-1.50,-1.48
176.77,2.19,3.67,2.20,3.68,-3.72,-3.49,-3.17,-1.53,-1.52,-1.48
178.54,2.19,3.68,2.18,3.66,-3.70,-3.48,-3.17,-1.51,-1.52,-1.49
180.32,2.19,3.66,2.20,3.67,-3.67,-3.47,-3.17,-1.48,-1.47,-1.47
182.13,2.20,3.67,2.20,3.67,-3.64,-3.47,-3.17,-1.45,-1.44,-1.47
183.95,2.21,3.68,2.18,3.65,-3.62,-3.46,-3.17,-1.41,-1.44,-1.47
185.79,2.14,3.62,2.15,3.63,-3.61,-3.45,-3.18,-1.47,-1.46,-1.48
187.65,2.10,3.59,2.11,3.59,-3.60,-3.44,-3.19,-1.50,-1.50,-1.49
189.52,2.07,3.56,2.07,3.57,-3.61,-3.43,-3.20,-1.54,-1.53,-1.49
191.42,2.07,3.58,2.07,3.58,-3.62,-3.42,-3.22,-1.55,-1.55,-1.51
193.33,2.08,3.60,2.08,3.59,-3.63,-3.41,-3.23,-1.55,-1.55,-1.52
195.27,2.10,3.63,2.09,3.63,-3.64,-3.40,-3.25,-1.54,-1.55,-1.53
197.22,2.11,3.66,2.12,3.68,-3.65,-3.39,-3.27,-1.54,-1.53,-1.55
199.19,2.14,3.71,2.14,3.71,-3.65,-3.38,-3.29,-1.51,-1.51,-1.57
201.18,2.16,3.74,2.13,3.72,-3.66,-3.37,-3.31,-1.50,-1.52,-1.58
203.19,2.09,3.68,2.09,3.69,-3.66,-3.35,-3.34,-1.57,-1.57,-1.59
205.23,2.01,3.63,2.02,3.63,-3.65,-3.34,-3.36,-1.64,-1.64,-1.62
207.28,1.94,3.56,1.95,3.58,-3.65,-3.33,-3.39,-1.71,-1.70,-1.62
209.35,1.92,3.57,1.93,3.58,-3.64,-3.31,-3.42,-1.73,-1.72,-1.65
211.44,1.93,3.60,1.93,3.60,-3.63,-3.30,-3.44,-1.70,-1.70,-1.67
213.56,1.96,3.64,1.96,3.64,-3.62,-3.28,-3.47,-1.66,-1.66,-1.68
215.69,1.97,3.66,1.97,3.66,-3.60,-3.26,-3.49,-1.63,-1.64,-1.69
217.85,1.96,3.66,1.94,3.64,-3.58,-3.25,-3.52,-1.62,-1.65,-1.70
220.03,1.87,3.59,1.88,3.59,-3.56,-3.23,-3.54,-1.69,-1.68,-1.72
222.23,1.79,3.51,1.80,3.52,-3.52,-3.21,-3.56,-1.73,-1.72,-1.72
224.45,1.74,3.45,1.73,3.45,-3.47,-3.19,-3.59,-1.74,-1.75,-1.71
226.70,1.67,3.38,1.68,3.39,-3.41,-3.17,-3.60,-1.74,-1.73,-1.71
228.96,1.64,3.35,1.64,3.34,-3.35,-3.15,-3.62,-1.71,-1.71,-1.71
231.25,1.62,3.31,1.61,3.30,-3.30,-3.13,-3.63,-1.68,-1.69,-1.69
233.57,1.57,3.25,1.57,3.25,-3.25,-3.11,-3.64,-1.68,-1.68,-1.68
235.90,1.54,3.20,1.54,3.20,-3.22,-3.09,-3.65,-1.68,-1.68,-1.67
238.26,1.50,3.14,1.51,3.15,-3.18,-3.06,-3.65,-1.68,-1.67,-1.64
240.64,1.51,3.13,1.51,3.12,-3.14,-3.04,-3.65,-1.63,-1.63,-1.62
243.05,1.52,3.10,1.54,3.13,-3.10,-3.01,-3.65,-1.58,-1.56,-1.58
245.48,1.56,3.12,1.55,3.11,-3.06,-2.99,-3.64,-1.50,-1.51,-1.56
247.93,1.59,3.12,1.52,3.05,-3.03,-2.96,-3.62,-1.44,-1.51,-1.53
250.41,1.42,2.94,1.47,2.98,-3.00,-2.93,-3.60,-1.58,-1.53,-1.52
252.92,1.39,2.87,1.42,2.91,-2.96,-2.90,-3.58,-1.57,-1.54,-1.48
255.45,1.42,2.88,1.41,2.87,-2.92,-2.88,-3.55,-1.50,-1.51,-1.46
258.00,1.44,2.88,1.44,2.88,-2.87,-2.85,-3.52,-1.43,-1.43,-1.44
260.58,1.46,2.89,1.44,2.86,-2.81,-2.82,-3.48,-1.36,-1.37,-1.43
263.19,1.41,2.81,1.41,2.81,-2.77,-2.78,-3.44,-1.36,-1.36,-1.40
265.82,1.34,2.72,1.35,2.73,-2.73,-2.75,-3.39,-1.39,-1.38,-1.39
268.48,1.28,2.64,1.28,2.64,-2.68,-2.72,-3.34,-1.40,-1.40,-1.36
271.16,1.23,2.56,1.24,2.58,-2.63,-2.68,-3.29,-1.40,-1.39,-1.33
273.87,1.22,2.54,1.24,2.56,-2.56,-2.65,-3.23,-1.34,-1.31,-1.32
276.61,1.25,2.54,1.23,2.52,-2.49,-2.61,-3.17,-1.24,-1.25,-1.29
279.38,1.25,2.51,1.19,2.46,-2.41,-2.58,-3.11,-1.17,-1.23,-1.26
282.17,1.09,2.34,1.14,2.38,-2.35,-2.54,-3.04,-1.26,-1.21,-1.25
284.99,1.03,2.24,1.06,2.27,-2.29,-2.50,-2.97,-1.26,-1.23,-1.21
287.84,1.05,2.23,0.99,2.17,-2.22,-2.46,-2.90,-1.17,-1.23,-1.18
290.72,0.94,2.09,0.98,2.13,-2.16,-2.42,-2.83,-1.22,-1.17,-1.15
293.63,0.96,2.08,0.97,2.09,-2.09,-2.38,-2.76,-1.13,-1.12,-1.12
296.57,0.99,2.07,0.95,2.04,-2.02,-2.34,-2.68,-1.03,-1.07,-1.08
299.53,0.94,2.00,0.94,2.00,-1.97,-2.29,-2.61,-1.03,-1.03,-1.06
302.53,0.90,1.94,0.90,1.93,-1.93,-2.25,-2.53,-1.03,-1.03,-1.04
305.55,0.85,1.85,0.86,1.87,-1.90,-2.21,-2.46,-1.05,-1.03,-1.00
308.61,0.85,1.83,0.85,1.83,-1.87,-2.16,-2.38,-1.02,-1.02,-0.98
311.69,0.85,1.81,0.85,1.80,-1.83,-2.11,-2.31,-0.98,-0.99,-0.96
314.81,0.86,1.79,0.85,1.79,-1.79,-2.07,-2.23,-0.94,-0.94,-0.93
317.96,0.86,1.78,0.88,1.80,-1.75,-2.02,-2.16,-0.89,-0.87,-0.92
321.14,0.87,1.77,0.88,1.78,-1.71,-1.97,-2.08,-0.85,-0.84,-0.90
324.35,0.90,1.79,0.83,1.72,-1.68,-1.92,-2.01,-0.78,-0.85,-0.89
327.59,0.73,1.60,0.76,1.63,-1.64,-1.87,-1.93,-0.91,-0.88,-0.87
330.87,0.65,1.52,0.69,1.55,-1.60,-1.82,-1.86,-0.95,-0.92,-0.87
334.18,0.65,1.51,0.64,1.50,-1.56,-1.77,-1.79,-0.91,-0.92,-0.86
337.52,0.66,1.51,0.65,1.50,-1.52,-1.72,-1.72,-0.86,-0.87,-0.85
340.90,0.66,1.49,0.66,1.49,-1.47,-1.66,-1.65,-0.81,-0.81,-0.83
344.30,0.66,1.48,0.65,1.47,-1.43,-1.61,-1.58,-0.77,-0.78,-0.82
347.75,0.61,1.42,0.61,1.43,-1.40,-1.56,-1.51,-0.79,-0.78,-0.81
351.23,0.57,1.37,0.56,1.37,-1.37,-1.50,-1.45,-0.80,-0.80,-0.81
354.74,0.50,1.31,0.52,1.32,-1.33,-1.45,-1.38,-0.83,-0.82,-0.81
358.28,0.47,1.27,0.46,1.26,-1.29,-1.39,-1.32,-0.82,-0.83,-0.80
361.87,0.44,1.24,0.42,1.22,-1.24,-1.34,-1.25,-0.80,-0.82,-0.80
365.49,0.36,1.15,0.41,1.21,-1.19,-1.28,-1.19,-0.83,-0.77,-0.79
369.14,0.40,1.19,0.38,1.18,-1.14,-1.23,-1.13,-0.74,-0.76,-0.79
372.83,0.39,1.18,0.32,1.11,-1.11,-1.17,-1.07,-0.72,-0.79,-0.79
376.56,0.23,1.02,0.27,1.06,-1.08,-1.12,-1.01,-0.85,-0.81,-0.79
380.33,0.18,0.95,0.22,1.01,-1.05,-1.06,-0.95,-0.87,-0.83,-0.78
384.13,0.22,1.01,0.20,0.99,-1.02,-1.01,-0.90,-0.80,-0.82,-0.79
387.97,0.24,1.03,0.22,1.00,-0.98,-0.96,-0.84,-0.74,-0.77,-0.79
391.85,0.20,0.99,0.21,0.99,-0.94,-0.90,-0.78,-0.74,-0.74,-0.79
395.77,0.16,0.94,0.16,0.94,-0.90,-0.85,-0.73,-0.74,-0.74,-0.78
399.73,0.09,0.87,0.08,0.86,-0.86,-0.80,-0.68,-0.77,-0.78,-0.78
403.72,0.01,0.80,0.01,0.79,-0.81,-0.75,-0.63,-0.80,-0.80,-0.79
407.76,-0.09,0.70,-0.04,0.75,-0.76,-0.69,-0.58,-0.85,-0.80,-0.79
411.84,-0.06,0.72,-0.10,0.69,-0.70,-0.65,-0.53,-0.77,-0.80,-0.78
415.96,-0.12,0.67,-0.15,0.64,-0.65,-0.60,-0.48,-0.77,-0.81,-0.79
420.12,-0.24,0.55,-0.20,0.60,-0.61,-0.55,-0.43,-0.85,-0.80,-0.79
424.32,-0.24,0.54,-0.23,0.56,-0.57,-0.50,-0.38,-0.81,-0.80,-0.79
428.56,-0.23,0.56,-0.24,0.54,-0.54,-0.46,-0.34,-0.77,-0.78,-0.79
432.85,-0.22,0.55,-0.25,0.51,-0.51,-0.42,-0.30,-0.73,-0.76,-0.77
437.18,-0.27,0.48,-0.27,0.48,-0.48,-0.37,-0.25,-0.75,-0.74,-0.75
441.55,-0.32,0.39,-0.26,0.45,-0.44,-0.33,-0.21,-0.76,-0.70,-0.71
445.96,-0.23,0.45,-0.27,0.41,-0.40,-0.30,-0.18,-0.63,-0.67,-0.68
450.42,-0.23,0.42,-0.25,0.39,-0.35,-0.26,-0.14,-0.59,-0.60,-0.65
454.93,-0.30,0.29,-0.25,0.34,-0.32,-0.23,-0.10,-0.62,-0.57,-0.59
459.48,-0.23,0.32,-0.30,0.25,-0.29,-0.19,-0.07,-0.52,-0.59,-0.55
464.07,-0.34,0.15,-0.30,0.19,-0.26,-0.16,-0.04,-0.60,-0.56,-0.49
468.71,-0.30,0.14,-0.25,0.19,-0.23,-0.14,-0.01,-0.53,-0.48,-0.44
473.40,-0.16,0.23,-0.21,0.18,-0.19,-0.11,0.02,-0.35,-0.40,-0.39
478.13,-0.12,0.22,-0.14,0.21,-0.15,-0.09,0.05,-0.27,-0.29,-0.34
482.91,-0.13,0.17,-0.11,0.19,-0.12,-0.06,0.07,-0.25,-0.22,-0.30
487.74,-0.12,0.13,-0.12,0.13,-0.09,-0.04,0.10,-0.21,-0.22,-0.25
492.62,-0.14,0.07,-0.17,0.04,-0.07,-0.03,0.12,-0.21,-0.24,-0.21
497.55,-0.21,-0.03,-0.23,-0.04,-0.03,-0.01,0.13,-0.24,-0.26,-0.18
502.52,-0.30,-0.15,-0.23,-0.07,0.02,0.00,0.15,-0.28,-0.21,-0.15
