frequency,raw,error,smoothed,error_smoothed,equalization,parametric_eq,fixed_band_eq,equalized_raw,equalized_smoothed,target
20.00,16.38,10.01,16.38,10.01,-10.01,-10.09,-4.09,6.37,6.37,6.37
20.20,16.35,10.00,16.34,9.99,-9.99,-10.08,-4.20,6.36,6.35,6.35
20.40,16.31,9.97,16.31,9.97,-9.97,-10.07,-4.31,6.34,6.34,6.34
20.61,16.28,9.94,16.28,9.95,-9.95,-10.06,-4.42,6.33,6.33,6.34
20.81,16.25,9.93,16.24,9.92,-9.92,-10.05,-4.54,6.32,6.32,6.32
21.02,16.22,9.91,16.21,9.90,-9.90,-10.03,-4.66,6.32,6.32,6.31
21.23,16.18,9.88,16.18,9.87,-9.87,-10.01,-4.79,6.30,6.31,6.30
21.44,16.15,9.84,16.14,9.84,-9.84,-9.99,-4.92,6.30,6.30,6.31
21.66,16.11,9.81,16.11,9.81,-9.82,-9.96,-5.05,6.29,6.29,6.30
21.87,16.08,9.79,16.07,9.78,-9.79,-9.94,-5.19,6.29,6.29,6.29
22.09,16.04,9.76,16.04,9.76,-9.76,-9.91,-5.33,6.28,6.28,6.28
22.31,16.01,9.73,16.00,9.73,-9.73,-9.88,-5.47,6.28,6.28,6.28
22.54,15.97,9.70,15.97,9.70,-9.70,-9.85,-5.62,6.27,6.27,6.27
22.76,15.94,9.66,15.93,9.66,-9.67,-9.81,-5.77,6.27,6.27,6.28
22.99,15.90,9.63,15.90,9.63,-9.63,-9.78,-5.92,6.26,6.26,6.26
23.22,15.86,9.60,15.86,9.60,-9.60,-9.74,-6.08,6.26,6.26,6.25
23.45,15.83,9.57,15.82,9.57,-9.57,-9.70,-6.24,6.26,6.26,6.25
23.69,15.79,9.53,15.79,9.54,-9.53,-9.66,-6.41,6.26,6.26,6.25
23.92,15.75,9.49,15.75,9.50,-9.49,-9.62,-6.58,6.25,6.26,6.25
24.16,15.72,9.46,15.71,9.46,-9.46,-9.58,-6.75,6.26,6.25,6.25
24.40,15.68,9.41,15.68,9.42,-9.43,-9.54,-6.93,6.25,6.25,6.26
24.65,15.64,9.38,15.64,9.38,-9.39,-9.49,-7.11,6.25,6.25,6.26
24.89,15.61,9.36,15.60,9.35,-9.35,-9.45,-7.29,6.25,6.25,6.25
25.14,15.57,9.33,15.57,9.32,-9.32,-9.40,-7.47,6.25,6.25,6.24
25.39,15.53,9.29,15.53,9.29,-9.28,-9.36,-7.66,6.24,6.24,6.24
25.65,15.49,9.26,15.48,9.25,-9.25,-9.31,-7.85,6.24,6.24,6.23
25.91,15.44,9.21,15.44,9.21,-9.21,-9.26,-8.04,6.23,6.23,6.23
26.16,15.40,9.16,15.40,9.17,-9.17,-9.22,-8.23,6.22,6.22,6.24
26.43,15.36,9.13,15.36,9.13,-9.14,-9.17,-8.42,6.22,6.22,6.22
26.69,15.32,9.09,15.32,9.09,-9.10,-9.12,-8.61,6.22,6.22,6.22
26.96,15.28,9.05,15.28,9.06,-9.05,-9.07,-8.80,6.22,6.22,6.22
27.23,15.24,9.03,15.23,9.02,-9.01,-9.02,-8.99,6.22,6.22,6.21
27.50,15.19,8.98,15.19,8.98,-8.97,-8.98,-9.17,6.21,6.22,6.21
27.77,15.15,8.93,15.15,8.93,-8.93,-8.93,-9.35,6.21,6.22,6.22
28.05,15.11,8.89,15.10,8.89,-8.89,-8.88,-9.52,6.22,6.21,6.22
28.33,15.07,8.85,15.06,8.85,-8.85,-8.83,-9.68,6.22,6.22,6.22
28.62,15.02,8.80,15.02,8.80,-8.80,-8.78,-9.84,6.22,6.22,6.22
28.90,14.98,8.75,14.97,8.75,-8.75,-8.74,-9.99,6.22,6.22,6.22
29.19,14.93,8.70,14.93,8.71,-8.71,-8.69,-10.12,6.22,6.22,6.22
29.48,14.89,8.66,14.88,8.66,-8.66,-8.64,-10.24,6.23,6.22,6.22
29.78,14.84,8.62,14.84,8.61,-8.61,-8.59,-10.35,6.23,6.23,6.22
30.08,14.80,8.56,14.79,8.57,-8.56,-8.55,-10.45,6.23,6.23,6.24
30.38,14.75,8.52,14.74,8.51,-8.52,-8.50,-10.52,6.23,6.23,6.23
30.68,14.69,8.46,14.69,8.46,-8.47,-8.46,-10.58,6.22,6.22,6.22
30.99,14.64,8.41,14.64,8.42,-8.42,-8.41,-10.62,6.22,6.22,6.22
31.30,14.60,8.38,14.59,8.37,-8.38,-8.36,-10.65,6.22,6.22,6.22
31.61,14.55,8.33,14.55,8.33,-8.33,-8.32,-10.65,6.22,6.22,6.22
31.93,14.50,8.29,14.50,8.29,-8.28,-8.28,-10.64,6.21,6.21,6.21
32.24,14.45,8.24,14.45,8.24,-8.24,-8.23,-10.61,6.20,6.20,6.20
32.57,14.40,8.20,14.40,8.20,-8.20,-8.19,-10.57,6.20,6.20,6.19
32.89,14.35,8.16,14.34,8.15,-8.16,-8.15,-10.51,6.19,6.19,6.19
33.22,14.30,8.11,14.30,8.11,-8.11,-8.11,-10.43,6.18,6.19,6.19
33.55,14.25,8.06,14.25,8.07,-8.07,-8.06,-10.35,6.18,6.18,6.19
33.89,14.21,8.03,14.20,8.03,-8.02,-8.02,-10.25,6.18,6.18,6.17
34.23,14.15,7.99,14.15,7.99,-7.98,-7.98,-10.14,6.17,6.17,6.16
34.57,14.10,7.94,14.09,7.94,-7.94,-7.94,-10.02,6.16,6.16,6.16
34.92,14.04,7.89,14.04,7.89,-7.89,-7.90,-9.90,6.14,6.14,6.14
35.27,13.99,7.84,13.99,7.85,-7.85,-7.87,-9.77,6.13,6.13,6.15
35.62,13.94,7.82,13.94,7.81,-7.81,-7.83,-9.64,6.13,6.13,6.12
35.97,13.89,7.77,13.89,7.77,-7.77,-7.79,-9.50,6.12,6.12,6.11
36.33,13.84,7.73,13.83,7.73,-7.73,-7.75,-9.36,6.11,6.11,6.10
36.70,13.78,7.69,13.78,7.69,-7.69,-7.72,-9.22,6.09,6.09,6.09
37.06,13.73,7.65,13.72,7.65,-7.65,-7.68,-9.08,6.08,6.07,6.07
37.43,13.67,7.61,13.67,7.61,-7.61,-7.65,-8.94,6.05,6.05,6.06
37.81,13.62,7.57,13.62,7.57,-7.58,-7.61,-8.80,6.04,6.04,6.05
38.19,13.57,7.54,13.57,7.54,-7.54,-7.58,-8.67,6.02,6.02,6.02
38.57,13.52,7.51,13.52,7.51,-7.51,-7.54,-8.53,6.01,6.01,6.01
38.95,13.47,7.48,13.46,7.48,-7.48,-7.51,-8.41,5.99,5.99,5.98
39.34,13.41,7.45,13.41,7.45,-7.44,-7.48,-8.28,5.96,5.96,5.96
39.74,13.36,7.41,13.35,7.41,-7.41,-7.45,-8.16,5.94,5.94,5.94
40.14,13.30,7.38,13.30,7.38,-7.38,-7.42,-8.04,5.92,5.92,5.92
40.54,13.25,7.34,13.25,7.35,-7.35,-7.39,-7.93,5.90,5.90,5.90
40.94,13.20,7.32,13.20,7.32,-7.31,-7.36,-7.82,5.88,5.88,5.88
41.35,13.15,7.28,13.15,7.28,-7.28,-7.33,-7.71,5.87,5.87,5.86
41.76,13.10,7.25,13.09,7.25,-7.25,-7.30,-7.61,5.85,5.85,5.85
42.18,13.04,7.21,13.04,7.21,-7.21,-7.27,-7.52,5.82,5.83,5.83
42.60,12.98,7.17,12.98,7.17,-7.18,-7.24,-7.43,5.80,5.80,5.80
43.03,12.93,7.15,12.92,7.14,-7.14,-7.21,-7.35,5.78,5.78,5.78
43.46,12.87,7.10,12.87,7.11,-7.11,-7.18,-7.27,5.76,5.76,5.76
43.90,12.82,7.08,12.81,7.08,-7.07,-7.16,-7.19,5.74,5.74,5.73
44.33,12.76,7.04,12.75,7.04,-7.04,-7.13,-7.13,5.72,5.71,5.72
44.78,12.70,7.01,12.70,7.01,-7.01,-7.10,-7.06,5.69,5.69,5.69
45.23,12.64,6.97,12.64,6.97,-6.98,-7.08,-7.00,5.66,5.66,5.67
45.68,12.59,6.95,12.58,6.95,-6.95,-7.05,-6.95,5.63,5.63,5.63
46.13,12.53,6.93,12.53,6.93,-6.93,-7.03,-6.90,5.60,5.60,5.59
46.60,12.48,6.91,12.47,6.91,-6.90,-7.00,-6.86,5.57,5.57,5.57
47.06,12.42,6.88,12.42,6.88,-6.88,-6.98,-6.82,5.53,5.53,5.54
47.53,12.37,6.86,12.36,6.86,-6.86,-6.95,-6.79,5.50,5.50,5.51
48.01,12.31,6.85,12.31,6.85,-6.85,-6.93,-6.76,5.46,5.46,5.46
48.49,12.26,6.83,12.25,6.83,-6.83,-6.91,-6.73,5.43,5.43,5.43
48.97,12.20,6.81,12.20,6.81,-6.81,-6.88,-6.71,5.39,5.39,5.39
49.46,12.14,6.78,12.14,6.79,-6.79,-6.86,-6.69,5.35,5.35,5.36
49.96,12.09,6.78,12.08,6.77,-6.77,-6.84,-6.68,5.32,5.32,5.30
50.46,12.03,6.74,12.03,6.75,-6.74,-6.82,-6.67,5.28,5.28,5.28
50.96,11.97,6.72,11.97,6.72,-6.72,-6.79,-6.66,5.24,5.25,5.25
51.47,11.92,6.70,11.92,6.70,-6.70,-6.77,-6.66,5.22,5.22,5.22
51.99,11.87,6.68,11.86,6.68,-6.68,-6.75,-6.65,5.19,5.18,5.18
52.51,11.81,6.66,11.81,6.66,-6.66,-6.73,-6.65,5.15,5.15,5.15
53.03,11.76,6.63,11.76,6.64,-6.64,-6.71,-6.66,5.11,5.11,5.13
53.56,11.71,6.62,11.71,6.62,-6.63,-6.68,-6.66,5.08,5.08,5.08
54.10,11.66,6.61,11.66,6.61,-6.61,-6.66,-6.66,5.05,5.05,5.05
54.64,11.61,6.59,11.60,6.60,-6.59,-6.64,-6.67,5.01,5.01,5.01
55.18,11.55,6.58,11.55,6.58,-6.57,-6.62,-6.67,4.97,4.98,4.97
55.74,11.50,6.57,11.50,6.56,-6.55,-6.60,-6.68,4.94,4.94,4.93
56.29,11.45,6.53,11.44,6.54,-6.53,-6.58,-6.68,4.92,4.91,4.91
56.86,11.39,6.50,11.39,6.51,-6.50,-6.56,-6.69,4.88,4.88,4.88
57.42,11.33,6.48,11.33,6.48,-6.48,-6.54,-6.69,4.85,4.85,4.85
58.00,11.27,6.45,11.27,6.45,-6.45,-6.52,-6.69,4.82,4.82,4.82
58.58,11.22,6.41,11.22,6.42,-6.42,-6.50,-6.68,4.80,4.80,4.81
59.16,11.17,6.39,11.16,6.39,-6.39,-6.48,-6.68,4.77,4.77,4.78
59.76,11.11,6.36,11.11,6.36,-6.37,-6.46,-6.67,4.74,4.74,4.75
60.35,11.05,6.34,11.05,6.34,-6.35,-6.44,-6.65,4.70,4.70,4.70
60.96,10.99,6.32,10.99,6.33,-6.33,-6.42,-6.64,4.65,4.65,4.66
61.57,10.94,6.33,10.93,6.32,-6.32,-6.39,-6.62,4.62,4.61,4.61
62.18,10.88,6.31,10.88,6.31,-6.31,-6.37,-6.59,4.57,4.57,4.57
62.80,10.83,6.30,10.82,6.30,-6.30,-6.35,-6.56,4.53,4.53,4.52
63.43,10.77,6.29,10.77,6.29,-6.28,-6.33,-6.53,4.49,4.49,4.48
64.07,10.71,6.27,10.71,6.27,-6.27,-6.31,-6.49,4.44,4.45,4.44
64.71,10.66,6.25,10.65,6.25,-6.25,-6.29,-6.45,4.41,4.40,4.40
65.35,10.60,6.23,10.60,6.23,-6.23,-6.27,-6.41,4.37,4.37,4.37
66.01,10.54,6.21,10.54,6.21,-6.21,-6.25,-6.36,4.33,4.33,4.33
66.67,10.48,6.18,10.48,6.18,-6.19,-6.23,-6.30,4.29,4.29,4.30
67.33,10.42,6.17,10.42,6.17,-6.17,-6.21,-6.25,4.25,4.25,4.25
68.01,10.37,6.16,10.36,6.15,-6.15,-6.19,-6.19,4.22,4.22,4.21
68.69,10.31,6.14,10.31,6.14,-6.13,-6.17,-6.13,4.18,4.18,4.17
69.37,10.26,6.12,10.25,6.11,-6.11,-6.15,-6.07,4.14,4.14,4.14
70.07,10.19,6.08,10.19,6.09,-6.10,-6.12,-6.00,4.09,4.09,4.10
70.77,10.13,6.07,10.13,6.07,-6.08,-6.10,-5.94,4.04,4.05,4.06
71.48,10.08,6.06,10.08,6.06,-6.07,-6.08,-5.87,4.01,4.01,4.01
72.19,10.03,6.06,10.03,6.05,-6.05,-6.06,-5.81,3.97,3.97,3.97
72.91,9.98,6.04,9.97,6.05,-6.04,-6.04,-5.74,3.94,3.94,3.93
73.64,9.92,6.03,9.92,6.03,-6.02,-6.02,-5.67,3.90,3.90,3.88
74.38,9.86,6.01,9.86,6.01,-6.00,-5.99,-5.61,3.85,3.86,3.85
75.12,9.80,5.98,9.80,5.98,-5.98,-5.97,-5.54,3.81,3.82,3.82
75.87,9.75,5.96,9.74,5.95,-5.96,-5.95,-5.48,3.79,3.78,3.79
76.63,9.69,5.93,9.69,5.93,-5.93,-5.93,-5.42,3.75,3.75,3.76
77.40,9.63,5.90,9.63,5.90,-5.90,-5.91,-5.36,3.72,3.73,3.73
78.17,9.58,5.88,9.57,5.88,-5.88,-5.88,-5.30,3.70,3.70,3.69
78.95,9.52,5.85,9.52,5.85,-5.85,-5.86,-5.25,3.67,3.67,3.67
79.74,9.47,5.82,9.46,5.82,-5.82,-5.84,-5.20,3.64,3.64,3.65
80.54,9.41,5.79,9.41,5.79,-5.79,-5.82,-5.15,3.61,3.61,3.61
81.35,9.35,5.76,9.35,5.77,-5.77,-5.79,-5.10,3.58,3.58,3.59
82.16,9.30,5.74,9.30,5.74,-5.74,-5.77,-5.06,3.56,3.55,3.56
82.98,9.25,5.72,9.24,5.72,-5.71,-5.75,-5.02,3.53,3.52,3.52
83.81,9.18,5.69,9.18,5.69,-5.69,-5.72,-4.98,3.49,3.49,3.48
84.65,9.12,5.66,9.12,5.67,-5.67,-5.70,-4.95,3.45,3.45,3.45
85.50,9.06,5.64,9.06,5.64,-5.64,-5.68,-4.92,3.42,3.41,3.42
86.35,9.00,5.61,9.00,5.61,-5.62,-5.66,-4.89,3.38,3.38,3.39
87.22,8.95,5.59,8.94,5.59,-5.59,-5.63,-4.87,3.35,3.35,3.35
88.09,8.89,5.57,8.89,5.57,-5.57,-5.61,-4.85,3.32,3.32,3.31
88.97,8.83,5.55,8.82,5.55,-5.54,-5.59,-4.83,3.28,3.28,3.28
89.86,8.76,5.52,8.76,5.52,-5.52,-5.56,-4.82,3.24,3.24,3.24
90.76,8.70,5.49,8.70,5.49,-5.49,-5.54,-4.81,3.20,3.20,3.20
91.66,8.64,5.47,8.64,5.47,-5.47,-5.52,-4.81,3.17,3.17,3.17
92.58,8.59,5.45,8.58,5.45,-5.45,-5.49,-4.81,3.14,3.14,3.14
93.51,8.53,5.43,8.53,5.42,-5.43,-5.47,-4.81,3.10,3.10,3.10
94.44,8.47,5.40,8.47,5.40,-5.41,-5.44,-4.81,3.06,3.06,3.07
95.39,8.41,5.39,8.41,5.39,-5.39,-5.42,-4.82,3.02,3.02,3.02
96.34,8.35,5.37,8.35,5.37,-5.37,-5.40,-4.83,2.97,2.98,2.97
97.30,8.30,5.36,8.30,5.36,-5.36,-5.37,-4.84,2.94,2.94,2.94
98.28,8.25,5.35,8.24,5.35,-5.34,-5.35,-4.86,2.91,2.90,2.90
99.26,8.19,5.33,8.19,5.33,-5.33,-5.33,-4.88,2.86,2.86,2.85
100.25,8.14,5.32,8.13,5.31,-5.31,-5.30,-4.90,2.82,2.82,2.82
101.25,8.08,5.28,8.08,5.29,-5.30,-5.28,-4.93,2.78,2.78,2.80
102.27,8.03,5.27,8.03,5.27,-5.28,-5.26,-4.95,2.74,2.75,2.76
103.29,8.00,5.27,7.99,5.26,-5.26,-5.24,-4.98,2.73,2.73,2.72
104.32,7.96,5.25,7.95,5.25,-5.25,-5.21,-5.01,2.71,2.70,2.70
105.37,7.90,5.23,7.90,5.23,-5.23,-5.19,-5.04,2.67,2.68,2.67
106.42,7.85,5.21,7.85,5.21,-5.20,-5.17,-5.07,2.64,2.65,2.64
107.48,7.80,5.19,7.79,5.19,-5.18,-5.14,-5.10,2.62,2.61,2.60
108.56,7.74,5.16,7.73,5.16,-5.15,-5.12,-5.13,2.58,2.57,2.57
109.64,7.66,5.12,7.66,5.13,-5.13,-5.10,-5.16,2.53,2.54,2.54
110.74,7.60,5.09,7.60,5.09,-5.10,-5.08,-5.19,2.49,2.50,2.51
111.85,7.55,5.07,7.54,5.07,-5.08,-5.06,-5.22,2.47,2.46,2.47
112.97,7.49,5.05,7.49,5.05,-5.06,-5.04,-5.25,2.43,2.43,2.43
114.10,7.44,5.03,7.43,5.03,-5.04,-5.01,-5.28,2.40,2.40,2.41
115.24,7.37,5.00,7.38,5.02,-5.02,-4.99,-5.30,2.35,2.36,2.36
116.39,7.34,5.02,7.33,5.01,-5.00,-4.97,-5.32,2.34,2.33,2.32
117.55,7.29,5.00,7.28,4.99,-4.98,-4.95,-5.34,2.30,2.29,2.29
118.73,7.22,4.97,7.22,4.97,-4.97,-4.93,-5.36,2.25,2.26,2.25
119.92,7.17,4.95,7.17,4.95,-4.95,-4.91,-5.37,2.22,2.22,2.22
121.12,7.12,4.92,7.12,4.93,-4.93,-4.89,-5.38,2.18,2.19,2.20
122.33,7.09,4.92,7.08,4.91,-4.91,-4.88,-5.38,2.17,2.16,2.16
123.55,7.04,4.91,7.03,4.89,-4.90,-4.86,-5.38,2.14,2.13,2.13
124.79,6.97,4.86,6.97,4.87,-4.88,-4.84,-5.38,2.09,2.10,2.11
126.03,6.92,4.85,6.93,4.86,-4.86,-4.82,-5.37,2.06,2.07,2.07
127.29,6.89,4.85,6.88,4.85,-4.84,-4.80,-5.36,2.04,2.04,2.03
128.57,6.85,4.84,6.83,4.83,-4.83,-4.79,-5.34,2.02,2.01,2.00
129.85,6.78,4.81,6.78,4.81,-4.81,-4.77,-5.32,1.96,1.97,1.96
131.15,6.71,4.78,6.72,4.79,-4.80,-4.76,-5.29,1.91,1.92,1.93
132.46,6.67,4.78,6.66,4.78,-4.78,-4.74,-5.27,1.88,1.88,1.89
133.79,6.62,4.77,6.62,4.77,-4.77,-4.73,-5.23,1.85,1.85,1.85
135.12,6.57,4.75,6.57,4.75,-4.75,-4.71,-5.20,1.82,1.82,1.81
136.48,6.53,4.73,6.52,4.73,-4.72,-4.70,-5.16,1.81,1.80,1.80
137.84,6.46,4.69,6.47,4.71,-4.69,-4.68,-5.12,1.76,1.77,1.76
139.22,6.41,4.69,6.40,4.67,-4.67,-4.67,-5.08,1.74,1.73,1.72
140.61,6.34,4.64,6.33,4.64,-4.64,-4.66,-5.03,1.70,1.69,1.69
142.02,6.25,4.58,6.26,4.60,-4.60,-4.65,-4.99,1.64,1.66,1.66
143.44,6.21,4.58,6.20,4.56,-4.57,-4.64,-4.94,1.64,1.63,1.63
144.87,6.15,4.53,6.15,4.54,-4.54,-4.63,-4.89,1.61,1.61,1.62
146.32,6.11,4.52,6.10,4.51,-4.52,-4.62,-4.85,1.59,1.59,1.59
147.78,6.06,4.49,6.06,4.49,-4.50,-4.61,-4.80,1.56,1.56,1.57
149.26,6.02,4.48,6.02,4.48,-4.48,-4.61,-4.76,1.53,1.53,1.54
150.75,5.99,4.47,5.99,4.47,-4.48,-4.60,-4.71,1.51,1.51,1.51
152.26,5.97,4.47,5.97,4.48,-4.48,-4.59,-4.67,1.49,1.49,1.50
153.78,5.96,4.49,5.95,4.48,-4.48,-4.59,-4.62,1.48,1.48,1.47
155.32,5.95,4.50,5.94,4.49,-4.49,-4.58,-4.58,1.46,1.45,1.45
156.88,5.92,4.49,5.92,4.50,-4.49,-4.58,-4.54,1.42,1.42,1.42
158.44,5.90,4.51,5.89,4.50,-4.50,-4.58,-4.51,1.39,1.39,1.39
160.03,5.87,4.50,5.87,4.51,-4.51,-4.57,-4.47,1.35,1.36,1.37
161.63,5.86,4.52,5.85,4.52,-4.52,-4.57,-4.44,1.33,1.33,1.33
163.24,5.84,4.54,5.83,4.53,-4.53,-4.57,-4.41,1.31,1.30,1.29
164.88,5.80,4.53,5.81,4.54,-4.53,-4.57,-4.39,1.27,1.27,1.26
166.53,5.78,4.54,5.77,4.54,-4.53,-4.57,-4.36,1.24,1.24,1.23
168.19,5.75,4.54,5.74,4.54,-4.54,-4.57,-4.34,1.21,1.21,1.21
169.87,5.71,4.54,5.71,4.54,-4.54,-4.58,-4.33,1.17,1.17,1.17
171.57,5.68,4.53,5.68,4.54,-4.54,-4.58,-4.31,1.14,1.14,1.14
173.29,5.65,4.54,5.64,4.54,-4.54,-4.58,-4.30,1.11,1.10,1.11
175.02,5.62,4.55,5.62,4.55,-4.55,-4.59,-4.29,1.07,1.07,1.07
176.77,5.60,4.56,5.59,4.56,-4.56,-4.60,-4.29,1.04,1.03,1.04
178.54,5.58,4.56,5.58,4.57,-4.58,-4.60,-4.29,1.00,0.99,1.01
180.32,5.57,4.60,5.57,4.60,-4.61,-4.61,-4.29,0.96,0.96,0.97
182.13,5.57,4.63,5.57,4.63,-4.64,-4.62,-4.29,0.93,0.93,0.94
183.95,5.59,4.68,5.58,4.68,-4.68,-4.62,-4.30,0.91,0.90,0.90
185.79,5.59,4.72,5.59,4.72,-4.72,-4.63,-4.31,0.87,0.87,0.86
187.65,5.60,4.76,5.59,4.76,-4.76,-4.64,-4.33,0.84,0.83,0.83
189.52,5.60,4.80,5.60,4.80,-4.80,-4.65,-4.34,0.79,0.80,0.79
191.42,5.61,4.84,5.61,4.84,-4.84,-4.66,-4.36,0.76,0.76,0.76
193.33,5.62,4.88,5.61,4.88,-4.88,-4.67,-4.39,0.74,0.73,0.74
195.27,5.62,4.92,5.61,4.92,-4.91,-4.68,-4.41,0.71,0.71,0.70
197.22,5.61,4.95,5.61,4.94,-4.93,-4.69,-4.44,0.67,0.68,0.66
199.19,5.60,4.95,5.60,4.96,-4.95,-4.71,-4.47,0.65,0.65,0.64
201.18,5.58,4.97,5.58,4.97,-4.96,-4.72,-4.50,0.61,0.62,0.61
203.19,5.56,4.96,5.55,4.96,-4.97,-4.73,-4.54,0.59,0.59,0.59
205.23,5.53,4.96,5.53,4.96,-4.97,-4.74,-4.57,0.56,0.56,0.57
207.28,5.50,4.94,5.50,4.96,-4.96,-4.75,-4.61,0.53,0.54,0.55
209.35,5.48,4.96,5.47,4.95,-4.95,-4.76,-4.64,0.52,0.52,0.52
211.44,5.45,4.95,5.44,4.95,-4.94,-4.77,-4.68,0.51,0.51,0.49
213.56,5.41,4.93,5.41,4.93,-4.92,-4.78,-4.72,0.48,0.48,0.48
215.69,5.37,4.91,5.36,4.90,-4.90,-4.79,-4.76,0.46,0.46,0.46
217.85,5.31,4.87,5.32,4.88,-4.88,-4.79,-4.79,0.43,0.44,0.44
220.03,5.28,4.86,5.27,4.86,-4.86,-4.80,-4.83,0.42,0.42,0.41
222.23,5.24,4.84,5.23,4.83,-4.84,-4.81,-4.86,0.40,0.39,0.39
224.45,5.18,4.80,5.18,4.81,-4.81,-4.81,-4.89,0.36,0.37,0.37
226.70,5.14,4.78,5.14,4.78,-4.79,-4.81,-4.92,0.34,0.34,0.36
228.96,5.11,4.76,5.11,4.76,-4.78,-4.81,-4.95,0.33,0.33,0.35
231.25,5.09,4.76,5.09,4.75,-4.76,-4.81,-4.97,0.33,0.33,0.33
233.57,5.07,4.75,5.06,4.75,-4.73,-4.81,-4.99,0.33,0.33,0.32
235.90,5.04,4.73,5.03,4.73,-4.71,-4.81,-5.01,0.33,0.32,0.30
238.26,5.00,4.70,5.00,4.70,-4.68,-4.80,-5.02,0.31,0.32,0.29
240.64,4.96,4.65,4.96,4.66,-4.66,-4.80,-5.02,0.30,0.30,0.30
243.05,4.92,4.62,4.91,4.62,-4.63,-4.79,-5.02,0.29,0.28,0.30
245.48,4.87,4.59,4.87,4.58,-4.60,-4.77,-5.02,0.27,0.27,0.28
247.93,4.82,4.55,4.83,4.55,-4.56,-4.76,-5.01,0.25,0.26,0.27
250.41,4.80,4.51,4.79,4.52,-4.53,-4.74,-4.99,0.27,0.26,0.28
252.92,4.78,4.49,4.78,4.49,-4.50,-4.73,-4.97,0.28,0.28,0.29
255.45,4.76,4.48,4.76,4.47,-4.46,-4.71,-4.94,0.29,0.29,0.28
258.00,4.74,4.45,4.73,4.45,-4.43,-4.68,-4.91,0.31,0.30,0.28
260.58,4.69,4.41,4.69,4.41,-4.40,-4.66,-4.87,0.29,0.29,0.28
263.19,4.65,4.37,4.64,4.37,-4.36,-4.63,-4.82,0.28,0.28,0.28
265.82,4.59,4.31,4.59,4.32,-4.33,-4.60,-4.77,0.26,0.27,0.27
268.48,4.56,4.28,4.55,4.28,-4.29,-4.56,-4.72,0.26,0.26,0.28
271.16,4.52,4.24,4.52,4.24,-4.26,-4.53,-4.66,0.25,0.25,0.27
273.87,4.49,4.21,4.49,4.22,-4.23,-4.49,-4.60,0.26,0.26,0.28
276.61,4.47,4.19,4.47,4.20,-4.19,-4.45,-4.53,0.27,0.27,0.27
279.38,4.45,4.19,4.44,4.18,-4.16,-4.41,-4.46,0.29,0.29,0.26
282.17,4.42,4.14,4.41,4.14,-4.12,-4.37,-4.39,0.29,0.29,0.27
284.99,4.38,4.10,4.37,4.10,-4.08,-4.32,-4.32,0.29,0.29,0.28
287.84,4.32,4.03,4.32,4.04,-4.04,-4.28,-4.24,0.28,0.28,0.28
290.72,4.27,4.00,4.27,3.99,-4.00,-4.23,-4.16,0.27,0.27,0.27
293.63,4.23,3.95,4.22,3.94,-3.95,-4.18,-4.08,0.27,0.27,0.28
296.57,4.18,3.89,4.18,3.89,-3.91,-4.12,-4.00,0.27,0.27,0.29
299.53,4.14,3.85,4.14,3.85,-3.87,-4.07,-3.93,0.27,0.28,0.29
302.53,4.12,3.82,4.12,3.82,-3.83,-4.02,-3.85,0.29,0.29,0.29
305.55,4.10,3.80,4.09,3.79,-3.79,-3.96,-3.77,0.31,0.30,0.30
308.61,4.08,3.77,4.07,3.76,-3.75,-3.91,-3.69,0.32,0.32,0.31
311.69,4.04,3.72,4.04,3.73,-3.71,-3.85,-3.61,0.32,0.33,0.31
314.81,4.01,3.69,4.00,3.68,-3.67,-3.79,-3.53,0.33,0.33,0.32
317.96,3.97,3.64,3.97,3.64,-3.64,-3.74,-3.46,0.33,0.33,0.33
321.14,3.93,3.59,3.92,3.59,-3.60,-3.68,-3.38,0.33,0.32,0.34
324.35,3.89,3.55,3.88,3.54,-3.56,-3.62,-3.31,0.32,0.32,0.33
327.59,3.85,3.49,3.86,3.51,-3.52,-3.56,-3.24,0.32,0.33,0.36
330.87,3.84,3.48,3.84,3.48,-3.48,-3.50,-3.17,0.35,0.35,0.36
334.18,3.83,3.47,3.82,3.45,-3.44,-3.45,-3.10,0.38,0.37,0.35
337.52,3.79,3.41,3.79,3.42,-3.40,-3.39,-3.04,0.39,0.39,0.37
340.90,3.76,3.38,3.75,3.38,-3.36,-3.33,-2.97,0.40,0.40,0.38
344.30,3.71,3.32,3.71,3.32,-3.31,-3.27,-2.91,0.39,0.40,0.39
347.75,3.67,3.27,3.66,3.26,-3.27,-3.22,-2.85,0.40,0.39,0.40
351.23,3.61,3.20,3.61,3.20,-3.22,-3.16,-2.80,0.39,0.39,0.40
354.74,3.57,3.14,3.57,3.16,-3.17,-3.11,-2.74,0.39,0.40,0.42
358.28,3.54,3.12,3.53,3.11,-3.13,-3.05,-2.69,0.41,0.41,0.42
361.87,3.51,3.09,3.51,3.08,-3.08,-3.00,-2.64,0.43,0.43,0.42
365.49,3.48,3.04,3.48,3.04,-3.04,-2.94,-2.59,0.44,0.44,0.44
369.14,3.45,3.00,3.44,3.00,-2.99,-2.89,-2.54,0.46,0.45,0.45
372.83,3.41,2.95,3.41,2.96,-2.94,-2.84,-2.50,0.46,0.46,0.45
376.56,3.37,2.91,3.36,2.91,-2.90,-2.79,-2.46,0.47,0.47,0.45
380.33,3.32,2.86,3.31,2.85,-2.85,-2.74,-2.41,0.47,0.46,0.46
384.13,3.27,2.80,3.27,2.80,-2.80,-2.69,-2.38,0.46,0.46,0.47
387.97,3.22,2.74,3.22,2.74,-2.76,-2.65,-2.34,0.46,0.47,0.48
391.85,3.19,2.69,3.18,2.70,-2.71,-2.60,-2.30,0.48,0.47,0.50
395.77,3.16,2.66,3.16,2.66,-2.67,-2.56,-2.27,0.49,0.49,0.50
399.73,3.14,2.63,3.14,2.63,-2.62,-2.51,-2.24,0.51,0.51,0.50
403.72,3.12,2.59,3.11,2.59,-2.58,-2.47,-2.21,0.53,0.53,0.52
407.76,3.09,2.55,3.08,2.55,-2.54,-2.43,-2.18,0.55,0.54,0.53
411.84,3.05,2.50,3.05,2.51,-2.50,-2.39,-2.15,0.55,0.55,0.54
415.96,3.01,2.46,3.01,2.46,-2.46,-2.35,-2.12,0.55,0.55,0.55
420.12,2.97,2.42,2.96,2.41,-2.42,-2.31,-2.10,0.55,0.55,0.55
424.32,2.93,2.37,2.93,2.36,-2.38,-2.28,-2.07,0.55,0.55,0.56
428.56,2.90,2.32,2.90,2.32,-2.34,-2.24,-2.05,0.56,0.56,0.58
432.85,2.88,2.28,2.87,2.29,-2.30,-2.21,-2.02,0.58,0.58,0.60
437.18,2.85,2.26,2.85,2.26,-2.26,-2.17,-2.00,0.59,0.59,0.59
441.55,2.84,2.24,2.83,2.23,-2.22,-2.14,-1.98,0.62,0.61,0.60
445.96,2.80,2.19,2.80,2.19,-2.17,-2.11,-1.95,0.62,0.62,0.60
450.42,2.76,2.14,2.76,2.14,-2.13,-2.08,-1.93,0.63,0.63,0.61
454.93,2.71,2.08,2.71,2.08,-2.08,-2.05,-1.91,0.63,0.63,0.62
459.48,2.66,2.02,2.66,2.02,-2.03,-2.02,-1.88,0.63,0.63,0.63
464.07,2.61,1.95,2.61,1.96,-1.97,-1.99,-1.86,0.63,0.63,0.65
468.71,2.57,1.92,2.57,1.91,-1.92,-1.96,-1.84,0.64,0.64,0.65
473.40,2.53,1.87,2.53,1.86,-1.88,-1.93,-1.81,0.65,0.65,0.66
478.13,2.50,1.83,2.50,1.83,-1.83,-1.90,-1.78,0.66,0.66,0.67
482.91,2.47,1.79,2.47,1.79,-1.80,-1.86,-1.76,0.67,0.68,0.68
487.74,2.46,1.77,2.45,1.76,-1.76,-1.83,-1.73,0.70,0.69,0.69
492.62,2.44,1.74,2.43,1.74,-1.73,-1.80,-1.70,0.71,0.71,0.70
497.55,2.41,1.70,2.41,1.70,-1.69,-1.77,-1.67,0.72,0.72,0.71
502.52,2.39,1.67,2.38,1.66,-1.66,-1.73,-1.64,0.73,0.73,0.72
507.55,2.36,1.62,2.36,1.62,-1.62,-1.70,-1.61,0.74,0.74,0.74
512.62,2.33,1.58,2.33,1.58,-1.58,-1.66,-1.58,0.74,0.74,0.75
517.75,2.30,1.53,2.29,1.53,-1.54,-1.62,-1.54,0.75,0.75,0.77
522.93,2.27,1.49,2.27,1.50,-1.50,-1.58,-1.51,0.76,0.77,0.78
