frequency,raw,error,smoothed,error_smoothed,equalization,parametric_eq,fixed_band_eq,equalized_raw,equalized_smoothed,target
20.00,6.18,4.02,6.18,4.02,-4.02,-4.00,-2.06,2.16,2.16,2.16
20.20,6.19,4.06,6.19,4.05,-4.05,-4.03,-2.12,2.14,2.14,2.13
20.40,6.20,4.09,6.20,4.09,-4.09,-4.06,-2.18,2.11,2.11,2.11
20.61,6.21,4.12,6.21,4.12,-4.12,-4.08,-2.24,2.09,2.09,2.09
20.81,6.22,4.15,6.22,4.15,-4.15,-4.11,-2.31,2.07,2.07,2.07
21.02,6.23,4.18,6.23,4.18,-4.18,-4.13,-2.38,2.05,2.05,2.05
21.23,6.24,4.21,6.24,4.21,-4.21,-4.16,-2.45,2.03,2.03,2.03
21.44,6.25,4.24,6.25,4.24,-4.24,-4.18,-2.52,2.01,2.01,2.01
21.66,6.26,4.27,6.26,4.27,-4.26,-4.21,-2.59,1.99,2.00,1.99
21.87,6.27,4.29,6.27,4.29,-4.29,-4.23,-2.67,1.98,1.98,1.98
22.09,6.28,4.32,6.28,4.32,-4.31,-4.25,-2.74,1.96,1.96,1.96
22.31,6.29,4.34,6.29,4.34,-4.34,-4.27,-2.82,1.95,1.95,1.95
22.54,6.30,4.36,6.30,4.36,-4.36,-4.29,-2.90,1.94,1.94,1.94
22.76,6.31,4.38,6.31,4.38,-4.38,-4.31,-2.99,1.93,1.93,1.93
22.99,6.32,4.40,6.32,4.40,-4.40,-4.33,-3.07,1.92,1.92,1.92
23.22,6.33,4.42,6.33,4.42,-4.41,-4.35,-3.16,1.92,1.91,1.91
23.45,6.33,4.43,6.33,4.43,-4.43,-4.37,-3.25,1.90,1.90,1.90
23.69,6.34,4.45,6.34,4.45,-4.45,-4.38,-3.34,1.89,1.89,1.89
23.92,6.35,4.46,6.35,4.46,-4.46,-4.40,-3.43,1.89,1.89,1.89
24.16,6.36,4.48,6.36,4.48,-4.48,-4.41,-3.53,1.88,1.88,1.88
24.40,6.37,4.49,6.37,4.49,-4.49,-4.43,-3.63,1.88,1.88,1.88
24.65,6.38,4.51,6.38,4.51,-4.50,-4.44,-3.72,1.88,1.88,1.87
24.89,6.39,4.52,6.39,4.52,-4.52,-4.46,-3.82,1.87,1.87,1.87
25.14,6.39,4.53,6.39,4.53,-4.53,-4.47,-3.92,1.86,1.86,1.86
25.39,6.40,4.54,6.40,4.54,-4.54,-4.48,-4.03,1.86,1.86,1.86
25.65,6.41,4.56,6.41,4.55,-4.55,-4.49,-4.13,1.85,1.85,1.85
25.91,6.42,4.57,6.42,4.57,-4.57,-4.50,-4.23,1.85,1.85,1.85
26.16,6.42,4.58,6.42,4.58,-4.58,-4.51,-4.33,1.84,1.85,1.84
26.43,6.43,4.59,6.43,4.59,-4.59,-4.52,-4.43,1.84,1.84,1.84
26.69,6.43,4.60,6.43,4.60,-4.60,-4.53,-4.53,1.83,1.83,1.83
26.96,6.44,4.61,6.44,4.60,-4.61,-4.54,-4.63,1.83,1.83,1.83
27.23,6.44,4.61,6.44,4.61,-4.62,-4.55,-4.73,1.82,1.83,1.83
27.50,6.45,4.63,6.45,4.62,-4.63,-4.56,-4.83,1.82,1.82,1.82
27.77,6.46,4.64,6.46,4.64,-4.64,-4.56,-4.92,1.82,1.82,1.82
28.05,6.46,4.65,6.46,4.65,-4.65,-4.57,-5.01,1.81,1.82,1.81
28.33,6.47,4.66,6.47,4.66,-4.65,-4.58,-5.09,1.81,1.81,1.81
28.62,6.47,4.66,6.47,4.66,-4.66,-4.58,-5.17,1.81,1.81,1.81
28.90,6.48,4.68,6.48,4.67,-4.67,-4.59,-5.25,1.81,1.81,1.80
29.19,6.48,4.68,6.48,4.68,-4.68,-4.59,-5.32,1.80,1.80,1.80
29.48,6.48,4.68,6.48,4.68,-4.68,-4.60,-5.39,1.80,1.80,1.80
29.78,6.49,4.69,6.49,4.68,-4.68,-4.60,-5.45,1.80,1.80,1.80
30.08,6.49,4.69,6.49,4.69,-4.69,-4.61,-5.50,1.80,1.80,1.80
30.38,6.49,4.69,6.49,4.69,-4.69,-4.61,-5.55,1.80,1.80,1.80
30.68,6.49,4.70,6.49,4.69,-4.69,-4.61,-5.58,1.79,1.79,1.79
30.99,6.49,4.70,6.49,4.70,-4.70,-4.62,-5.62,1.79,1.79,1.79
31.30,6.49,4.70,6.49,4.70,-4.70,-4.62,-5.64,1.79,1.79,1.79
31.61,6.49,4.70,6.49,4.70,-4.70,-4.62,-5.66,1.79,1.79,1.79
31.93,6.49,4.71,6.49,4.71,-4.70,-4.62,-5.66,1.79,1.79,1.78
32.24,6.49,4.71,6.49,4.71,-4.70,-4.63,-5.67,1.79,1.78,1.78
32.57,6.48,4.71,6.48,4.71,-4.70,-4.63,-5.66,1.78,1.78,1.77
32.89,6.47,4.70,6.47,4.70,-4.70,-4.63,-5.65,1.77,1.77,1.77
33.22,6.47,4.70,6.47,4.70,-4.70,-4.63,-5.63,1.77,1.77,1.77
33.55,6.47,4.70,6.47,4.70,-4.70,-4.64,-5.61,1.76,1.76,1.77
33.89,6.47,4.71,6.47,4.70,-4.71,-4.64,-5.58,1.76,1.76,1.76
34.23,6.47,4.71,6.47,4.71,-4.71,-4.64,-5.54,1.76,1.76,1.76
34.57,6.47,4.72,6.47,4.72,-4.71,-4.64,-5.50,1.76,1.76,1.75
34.92,6.47,4.72,6.47,4.72,-4.72,-4.64,-5.46,1.75,1.75,1.75
35.27,6.47,4.72,6.47,4.72,-4.72,-4.64,-5.41,1.75,1.75,1.75
35.62,6.47,4.72,6.47,4.72,-4.72,-4.64,-5.37,1.75,1.75,1.75
35.97,6.47,4.73,6.47,4.72,-4.72,-4.65,-5.32,1.75,1.75,1.74
36.33,6.47,4.73,6.47,4.73,-4.73,-4.65,-5.26,1.74,1.74,1.74
36.70,6.47,4.73,6.47,4.73,-4.73,-4.65,-5.21,1.74,1.74,1.74
37.06,6.47,4.73,6.47,4.73,-4.73,-4.65,-5.16,1.74,1.74,1.74
37.43,6.47,4.73,6.47,4.73,-4.73,-4.65,-5.11,1.74,1.74,1.74
37.81,6.47,4.74,6.47,4.73,-4.74,-4.65,-5.05,1.73,1.73,1.73
38.19,6.47,4.74,6.47,4.74,-4.74,-4.65,-5.00,1.73,1.73,1.73
38.57,6.47,4.75,6.47,4.75,-4.74,-4.66,-4.95,1.72,1.72,1.72
38.95,6.47,4.75,6.47,4.75,-4.75,-4.66,-4.90,1.72,1.72,1.72
39.34,6.47,4.76,6.47,4.75,-4.75,-4.66,-4.85,1.71,1.71,1.71
39.74,6.47,4.76,6.47,4.76,-4.76,-4.66,-4.81,1.71,1.71,1.71
40.14,6.47,4.76,6.47,4.76,-4.76,-4.66,-4.77,1.71,1.71,1.71
40.54,6.47,4.77,6.47,4.76,-4.76,-4.66,-4.72,1.71,1.71,1.70
40.94,6.47,4.77,6.47,4.77,-4.76,-4.66,-4.69,1.70,1.70,1.70
41.35,6.47,4.77,6.47,4.77,-4.76,-4.66,-4.65,1.70,1.70,1.70
41.76,6.47,4.77,6.47,4.76,-4.76,-4.67,-4.62,1.70,1.70,1.70
42.18,6.47,4.76,6.47,4.76,-4.76,-4.67,-4.59,1.71,1.71,1.71
42.60,6.47,4.76,6.47,4.76,-4.76,-4.67,-4.57,1.71,1.71,1.71
43.03,6.47,4.76,6.47,4.76,-4.76,-4.67,-4.54,1.71,1.71,1.71
43.46,6.47,4.76,6.47,4.76,-4.75,-4.67,-4.53,1.71,1.71,1.71
43.90,6.47,4.76,6.47,4.75,-4.75,-4.67,-4.51,1.72,1.72,1.71
44.33,6.47,4.75,6.47,4.75,-4.75,-4.67,-4.50,1.72,1.72,1.72
44.78,6.47,4.75,6.47,4.75,-4.75,-4.67,-4.49,1.72,1.72,1.72
45.23,6.47,4.75,6.47,4.75,-4.75,-4.67,-4.49,1.72,1.72,1.72
45.68,6.47,4.75,6.47,4.75,-4.75,-4.68,-4.48,1.72,1.72,1.72
46.13,6.47,4.75,6.47,4.75,-4.75,-4.68,-4.49,1.72,1.72,1.72
46.60,6.47,4.76,6.47,4.75,-4.75,-4.68,-4.49,1.72,1.72,1.71
47.06,6.47,4.76,6.47,4.76,-4.76,-4.68,-4.50,1.71,1.71,1.71
47.53,6.47,4.76,6.47,4.76,-4.76,-4.68,-4.51,1.71,1.71,1.71
48.01,6.47,4.76,6.47,4.76,-4.76,-4.68,-4.53,1.71,1.71,1.71
48.49,6.47,4.77,6.47,4.76,-4.76,-4.68,-4.54,1.71,1.71,1.70
48.97,6.47,4.77,6.47,4.77,-4.76,-4.68,-4.56,1.70,1.70,1.70
49.46,6.47,4.77,6.47,4.77,-4.76,-4.68,-4.59,1.70,1.70,1.70
49.96,6.47,4.77,6.47,4.76,-4.76,-4.68,-4.61,1.71,1.71,1.70
50.46,6.47,4.76,6.47,4.76,-4.76,-4.68,-4.64,1.71,1.71,1.71
50.96,6.47,4.76,6.47,4.76,-4.76,-4.68,-4.67,1.71,1.71,1.71
51.47,6.47,4.76,6.47,4.76,-4.76,-4.68,-4.70,1.71,1.71,1.71
51.99,6.47,4.76,6.47,4.75,-4.75,-4.68,-4.73,1.71,1.71,1.71
52.51,6.47,4.75,6.47,4.75,-4.75,-4.68,-4.77,1.72,1.72,1.72
53.03,6.47,4.75,6.47,4.75,-4.75,-4.67,-4.80,1.72,1.72,1.72
53.56,6.47,4.75,6.47,4.75,-4.75,-4.67,-4.83,1.72,1.72,1.72
54.10,6.47,4.75,6.47,4.75,-4.74,-4.67,-4.87,1.72,1.72,1.72
54.64,6.47,4.75,6.47,4.74,-4.74,-4.67,-4.90,1.73,1.73,1.72
55.18,6.47,4.74,6.47,4.74,-4.74,-4.67,-4.94,1.73,1.73,1.73
55.74,6.47,4.74,6.47,4.74,-4.74,-4.66,-4.97,1.73,1.73,1.73
56.29,6.47,4.74,6.47,4.74,-4.74,-4.66,-5.00,1.73,1.73,1.73
56.86,6.48,4.74,6.48,4.74,-4.74,-4.66,-5.03,1.74,1.73,1.74
57.42,6.48,4.74,6.48,4.74,-4.74,-4.66,-5.05,1.74,1.74,1.74
58.00,6.49,4.75,6.49,4.74,-4.74,-4.65,-5.08,1.75,1.74,1.74
58.58,6.49,4.75,6.49,4.74,-4.74,-4.65,-5.10,1.75,1.75,1.74
59.16,6.49,4.74,6.49,4.74,-4.74,-4.64,-5.11,1.75,1.75,1.75
59.76,6.49,4.74,6.49,4.73,-4.73,-4.64,-5.12,1.76,1.75,1.75
60.35,6.48,4.73,6.48,4.72,-4.72,-4.63,-5.13,1.76,1.76,1.75
60.96,6.47,4.71,6.47,4.71,-4.71,-4.63,-5.14,1.76,1.76,1.76
61.57,6.46,4.70,6.46,4.70,-4.70,-4.62,-5.13,1.76,1.76,1.76
62.18,6.45,4.69,6.45,4.68,-4.69,-4.62,-5.13,1.76,1.76,1.76
62.80,6.43,4.67,6.43,4.67,-4.67,-4.61,-5.12,1.76,1.76,1.76
63.43,6.42,4.66,6.42,4.66,-4.65,-4.60,-5.10,1.77,1.76,1.76
64.07,6.40,4.64,6.40,4.64,-4.63,-4.60,-5.08,1.76,1.76,1.76
64.71,6.38,4.62,6.38,4.62,-4.62,-4.59,-5.05,1.76,1.76,1.76
65.35,6.36,4.60,6.36,4.59,-4.59,-4.58,-5.02,1.76,1.76,1.76
66.01,6.33,4.57,6.33,4.57,-4.57,-4.57,-4.99,1.76,1.76,1.76
66.67,6.31,4.55,6.31,4.55,-4.55,-4.56,-4.95,1.76,1.76,1.76
67.33,6.29,4.53,6.29,4.53,-4.53,-4.55,-4.91,1.76,1.76,1.76
68.01,6.27,4.51,6.27,4.50,-4.50,-4.54,-4.86,1.77,1.76,1.76
68.69,6.24,4.48,6.24,4.48,-4.48,-4.53,-4.81,1.76,1.76,1.76
69.37,6.22,4.46,6.22,4.46,-4.46,-4.52,-4.76,1.76,1.76,1.76
70.07,6.20,4.44,6.20,4.44,-4.44,-4.51,-4.70,1.76,1.76,1.76
70.77,6.18,4.42,6.18,4.42,-4.41,-4.50,-4.65,1.76,1.77,1.76
71.48,6.16,4.40,6.16,4.40,-4.39,-4.49,-4.59,1.76,1.77,1.76
72.19,6.15,4.38,6.14,4.38,-4.38,-4.47,-4.53,1.77,1.77,1.77
72.91,6.13,4.36,6.13,4.36,-4.36,-4.46,-4.47,1.77,1.77,1.77
73.64,6.12,4.35,6.12,4.35,-4.35,-4.45,-4.41,1.77,1.77,1.77
74.38,6.12,4.34,6.12,4.34,-4.34,-4.43,-4.35,1.77,1.77,1.78
75.12,6.12,4.34,6.12,4.34,-4.34,-4.42,-4.29,1.78,1.77,1.78
75.87,6.12,4.34,6.12,4.34,-4.34,-4.41,-4.24,1.78,1.78,1.78
76.63,6.13,4.34,6.13,4.34,-4.35,-4.39,-4.18,1.78,1.79,1.79
77.40,6.15,4.36,6.15,4.35,-4.35,-4.37,-4.12,1.80,1.80,1.79
78.17,6.16,4.36,6.16,4.36,-4.36,-4.36,-4.07,1.80,1.80,1.80
78.95,6.17,4.37,6.17,4.37,-4.36,-4.34,-4.01,1.81,1.81,1.80
79.74,6.17,4.37,6.17,4.36,-4.36,-4.32,-3.96,1.81,1.81,1.80
80.54,6.16,4.35,6.16,4.36,-4.35,-4.31,-3.91,1.80,1.81,1.81
81.35,6.16,4.35,6.16,4.35,-4.35,-4.29,-3.87,1.81,1.81,1.81
82.16,6.15,4.34,6.15,4.33,-4.33,-4.27,-3.82,1.82,1.82,1.81
82.98,6.13,4.32,6.13,4.32,-4.31,-4.25,-3.78,1.82,1.82,1.81
83.81,6.11,4.30,6.11,4.30,-4.29,-4.23,-3.74,1.82,1.82,1.81
84.65,6.08,4.27,6.08,4.27,-4.27,-4.21,-3.70,1.81,1.81,1.81
85.50,6.06,4.24,6.06,4.24,-4.25,-4.19,-3.67,1.81,1.81,1.82
86.35,6.03,4.21,6.03,4.21,-4.22,-4.17,-3.63,1.81,1.81,1.82
87.22,6.01,4.19,6.01,4.19,-4.19,-4.15,-3.61,1.82,1.82,1.82
88.09,5.99,4.17,5.99,4.16,-4.16,-4.13,-3.58,1.83,1.82,1.82
88.97,5.96,4.14,5.96,4.14,-4.13,-4.10,-3.56,1.83,1.83,1.82
89.86,5.93,4.11,5.93,4.11,-4.10,-4.08,-3.53,1.83,1.83,1.82
90.76,5.89,4.07,5.89,4.07,-4.06,-4.06,-3.52,1.83,1.83,1.82
91.66,5.85,4.03,5.85,4.03,-4.03,-4.03,-3.50,1.82,1.82,1.82
92.58,5.81,3.99,5.81,3.99,-3.99,-4.01,-3.49,1.82,1.82,1.82
93.51,5.77,3.95,5.77,3.95,-3.95,-3.99,-3.48,1.82,1.82,1.82
94.44,5.73,3.91,5.73,3.91,-3.91,-3.96,-3.47,1.82,1.82,1.82
95.39,5.69,3.87,5.69,3.87,-3.87,-3.94,-3.46,1.82,1.82,1.82
96.34,5.66,3.84,5.66,3.83,-3.84,-3.91,-3.46,1.82,1.82,1.82
97.30,5.63,3.80,5.63,3.80,-3.81,-3.88,-3.46,1.82,1.82,1.83
98.28,5.61,3.78,5.61,3.78,-3.78,-3.86,-3.46,1.83,1.83,1.83
99.26,5.59,3.76,5.59,3.76,-3.76,-3.83,-3.47,1.83,1.83,1.83
100.25,5.57,3.74,5.57,3.74,-3.74,-3.81,-3.47,1.83,1.83,1.83
101.25,5.55,3.72,5.55,3.72,-3.71,-3.78,-3.48,1.84,1.84,1.83
102.27,5.53,3.70,5.53,3.70,-3.69,-3.75,-3.48,1.84,1.84,1.83
103.29,5.51,3.68,5.51,3.67,-3.67,-3.72,-3.49,1.84,1.84,1.83
104.32,5.49,3.65,5.49,3.65,-3.65,-3.69,-3.50,1.84,1.84,1.84
105.37,5.46,3.62,5.46,3.62,-3.62,-3.67,-3.52,1.84,1.84,1.84
106.42,5.44,3.60,5.44,3.59,-3.59,-3.64,-3.53,1.85,1.84,1.84
107.48,5.41,3.56,5.41,3.56,-3.56,-3.61,-3.54,1.85,1.85,1.85
108.56,5.39,3.54,5.39,3.54,-3.53,-3.58,-3.55,1.86,1.86,1.85
109.64,5.36,3.51,5.35,3.50,-3.49,-3.55,-3.56,1.87,1.86,1.85
110.74,5.32,3.47,5.32,3.47,-3.46,-3.52,-3.57,1.86,1.86,1.85
111.85,5.28,3.42,5.28,3.42,-3.43,-3.49,-3.58,1.85,1.85,1.86
112.97,5.25,3.39,5.25,3.39,-3.40,-3.46,-3.59,1.85,1.85,1.86
114.10,5.22,3.36,5.22,3.36,-3.37,-3.43,-3.60,1.85,1.85,1.86
115.24,5.20,3.34,5.20,3.34,-3.35,-3.40,-3.61,1.85,1.86,1.86
116.39,5.19,3.33,5.19,3.32,-3.33,-3.37,-3.61,1.86,1.86,1.86
117.55,5.18,3.31,5.18,3.31,-3.31,-3.33,-3.61,1.87,1.87,1.87
118.73,5.17,3.30,5.17,3.30,-3.30,-3.30,-3.61,1.87,1.87,1.87
119.92,5.16,3.29,5.16,3.28,-3.28,-3.27,-3.60,1.88,1.88,1.87
121.12,5.15,3.27,5.15,3.27,-3.27,-3.24,-3.60,1.88,1.88,1.88
122.33,5.14,3.26,5.14,3.26,-3.25,-3.21,-3.59,1.89,1.89,1.88
123.55,5.13,3.24,5.12,3.23,-3.23,-3.18,-3.57,1.90,1.90,1.89
124.79,5.10,3.21,5.10,3.21,-3.20,-3.14,-3.56,1.90,1.90,1.89
126.03,5.06,3.17,5.07,3.17,-3.17,-3.11,-3.53,1.89,1.89,1.89
127.29,5.04,3.14,5.04,3.14,-3.14,-3.08,-3.51,1.90,1.89,1.90
128.57,5.01,3.11,5.01,3.10,-3.11,-3.05,-3.48,1.90,1.89,1.90
129.85,4.98,3.07,4.98,3.08,-3.08,-3.01,-3.45,1.90,1.90,1.91
131.15,4.96,3.05,4.96,3.05,-3.05,-2.98,-3.42,1.91,1.91,1.91
132.46,4.94,3.03,4.93,3.02,-3.01,-2.95,-3.38,1.93,1.92,1.91
133.79,4.90,2.99,4.90,2.99,-2.98,-2.91,-3.34,1.92,1.92,1.91
135.12,4.85,2.94,4.86,2.95,-2.94,-2.88,-3.30,1.90,1.92,1.91
136.48,4.83,2.92,4.82,2.91,-2.91,-2.85,-3.25,1.92,1.91,1.91
137.84,4.79,2.87,4.79,2.87,-2.88,-2.82,-3.20,1.91,1.91,1.92
139.22,4.76,2.84,4.76,2.84,-2.84,-2.78,-3.15,1.92,1.92,1.92
140.61,4.73,2.81,4.73,2.81,-2.81,-2.75,-3.10,1.92,1.92,1.92
142.02,4.69,2.77,4.70,2.77,-2.78,-2.72,-3.05,1.91,1.92,1.92
143.44,4.68,2.76,4.67,2.75,-2.75,-2.68,-2.99,1.93,1.92,1.92
144.87,4.64,2.71,4.65,2.72,-2.72,-2.65,-2.94,1.92,1.93,1.93
146.32,4.63,2.70,4.62,2.69,-2.69,-2.62,-2.88,1.94,1.94,1.93
147.78,4.60,2.67,4.60,2.66,-2.66,-2.58,-2.83,1.94,1.94,1.93
149.26,4.57,2.63,4.57,2.63,-2.63,-2.55,-2.77,1.94,1.94,1.94
150.75,4.54,2.60,4.54,2.60,-2.60,-2.51,-2.71,1.94,1.94,1.94
152.26,4.51,2.57,4.51,2.56,-2.56,-2.48,-2.66,1.95,1.95,1.94
153.78,4.48,2.53,4.48,2.53,-2.53,-2.45,-2.60,1.95,1.95,1.95
155.32,4.45,2.50,4.45,2.50,-2.50,-2.41,-2.55,1.95,1.95,1.95
156.88,4.41,2.46,4.42,2.46,-2.47,-2.38,-2.49,1.94,1.95,1.95
158.44,4.40,2.44,4.39,2.43,-2.43,-2.35,-2.44,1.97,1.96,1.96
160.03,4.36,2.40,4.36,2.40,-2.40,-2.31,-2.38,1.96,1.96,1.96
161.63,4.34,2.38,4.34,2.38,-2.37,-2.28,-2.33,1.97,1.96,1.96
163.24,4.31,2.35,4.31,2.35,-2.35,-2.25,-2.28,1.96,1.96,1.96
164.88,4.28,2.32,4.28,2.32,-2.32,-2.22,-2.23,1.96,1.97,1.96
166.53,4.26,2.29,4.26,2.29,-2.29,-2.18,-2.18,1.97,1.97,1.97
168.19,4.24,2.27,4.23,2.26,-2.26,-2.15,-2.14,1.98,1.97,1.97
169.87,4.21,2.24,4.21,2.24,-2.24,-2.12,-2.09,1.97,1.98,1.97
171.57,4.19,2.21,4.19,2.21,-2.21,-2.08,-2.05,1.98,1.98,1.98
173.29,4.17,2.19,4.16,2.18,-2.19,-2.05,-2.01,1.98,1.98,1.98
175.02,4.14,2.16,4.14,2.16,-2.16,-2.02,-1.97,1.98,1.98,1.98
176.77,4.12,2.14,4.12,2.14,-2.13,-1.99,-1.93,1.99,1.99,1.98
178.54,4.10,2.11,4.10,2.11,-2.11,-1.95,-1.89,1.99,1.99,1.99
180.32,4.08,2.09,4.07,2.08,-2.08,-1.92,-1.85,2.00,1.99,1.99
182.13,4.05,2.06,4.04,2.05,-2.05,-1.89,-1.82,2.00,1.99,1.99
183.95,4.00,2.01,4.01,2.02,-2.03,-1.86,-1.78,1.97,1.98,1.99
185.79,3.98,2.00,3.98,1.99,-2.00,-1.82,-1.75,1.98,1.98,1.98
187.65,3.96,1.98,3.95,1.97,-1.97,-1.79,-1.72,1.99,1.98,1.98
189.52,3.93,1.95,3.93,1.95,-1.95,-1.76,-1.69,1.98,1.99,1.98
191.42,3.91,1.93,3.91,1.92,-1.92,-1.73,-1.66,1.99,1.99,1.98
193.33,3.88,1.89,3.88,1.89,-1.89,-1.70,-1.63,1.99,1.99,1.99
195.27,3.86,1.87,3.86,1.87,-1.87,-1.66,-1.61,1.99,1.99,1.99
197.22,3.83,1.84,3.83,1.84,-1.84,-1.63,-1.58,1.99,1.99,1.99
199.19,3.81,1.82,3.81,1.81,-1.82,-1.60,-1.56,1.99,1.99,1.99
201.18,3.78,1.78,3.78,1.79,-1.79,-1.57,-1.54,1.99,1.99,2.00
203.19,3.76,1.76,3.76,1.76,-1.76,-1.54,-1.51,2.00,2.00,2.00
205.23,3.74,1.74,3.74,1.73,-1.73,-1.51,-1.49,2.01,2.01,2.00
207.28,3.71,1.70,3.71,1.70,-1.70,-1.48,-1.47,2.01,2.02,2.01
209.35,3.68,1.67,3.68,1.67,-1.66,-1.44,-1.45,2.02,2.02,2.01
211.44,3.65,1.64,3.64,1.63,-1.62,-1.41,-1.43,2.03,2.02,2.01
213.56,3.60,1.58,3.60,1.58,-1.58,-1.38,-1.42,2.02,2.02,2.02
215.69,3.56,1.54,3.56,1.54,-1.54,-1.35,-1.40,2.02,2.02,2.02
217.85,3.51,1.49,3.51,1.49,-1.50,-1.32,-1.38,2.01,2.01,2.02
220.03,3.48,1.46,3.47,1.45,-1.46,-1.29,-1.36,2.02,2.01,2.02
222.23,3.44,1.41,3.44,1.41,-1.42,-1.26,-1.34,2.02,2.02,2.03
224.45,3.41,1.38,3.41,1.38,-1.39,-1.23,-1.32,2.02,2.02,2.03
226.70,3.39,1.36,3.39,1.35,-1.35,-1.20,-1.31,2.04,2.03,2.03
228.96,3.36,1.33,3.36,1.33,-1.32,-1.17,-1.29,2.04,2.05,2.03
231.25,3.34,1.30,3.33,1.29,-1.28,-1.14,-1.27,2.06,2.05,2.04
233.57,3.30,1.26,3.30,1.25,-1.24,-1.11,-1.25,2.06,2.05,2.04
235.90,3.25,1.20,3.25,1.21,-1.20,-1.08,-1.23,2.05,2.05,2.05
238.26,3.21,1.16,3.21,1.15,-1.16,-1.05,-1.20,2.05,2.05,2.05
240.64,3.17,1.11,3.17,1.11,-1.12,-1.02,-1.18,2.05,2.05,2.06
243.05,3.13,1.06,3.13,1.06,-1.07,-0.99,-1.16,2.06,2.06,2.07
245.48,3.10,1.03,3.10,1.02,-1.03,-0.96,-1.13,2.07,2.07,2.07
247.93,3.07,0.99,3.07,0.99,-0.99,-0.93,-1.11,2.08,2.08,2.08
250.41,3.05,0.96,3.05,0.96,-0.95,-0.90,-1.08,2.10,2.09,2.09
252.92,3.02,0.92,3.02,0.92,-0.91,-0.87,-1.05,2.11,2.11,2.10
255.45,2.99,0.89,2.99,0.88,-0.87,-0.84,-1.03,2.12,2.12,2.10
258.00,2.95,0.84,2.95,0.84,-0.83,-0.81,-0.99,2.12,2.12,2.11
260.58,2.90,0.79,2.90,0.79,-0.78,-0.78,-0.96,2.11,2.12,2.11
263.19,2.86,0.74,2.85,0.73,-0.74,-0.75,-0.93,2.12,2.11,2.12
265.82,2.80,0.68,2.81,0.69,-0.70,-0.72,-0.90,2.09,2.11,2.12
268.48,2.78,0.65,2.78,0.65,-0.67,-0.69,-0.86,2.11,2.11,2.13
271.16,2.76,0.63,2.75,0.62,-0.63,-0.67,-0.83,2.13,2.12,2.13
273.87,2.73,0.60,2.73,0.60,-0.59,-0.64,-0.79,2.14,2.14,2.13
276.61,2.71,0.57,2.70,0.57,-0.55,-0.61,-0.75,2.16,2.15,2.14
279.38,2.67,0.53,2.67,0.53,-0.51,-0.58,-0.71,2.16,2.16,2.14
282.17,2.63,0.49,2.63,0.48,-0.47,-0.55,-0.67,2.16,2.16,2.14
284.99,2.59,0.44,2.58,0.43,-0.43,-0.52,-0.63,2.16,2.15,2.15
287.84,2.52,0.37,2.52,0.37,-0.38,-0.49,-0.59,2.14,2.14,2.15
290.72,2.47,0.32,2.47,0.32,-0.34,-0.46,-0.55,2.13,2.13,2.15
293.63,2.43,0.28,2.43,0.28,-0.30,-0.43,-0.51,2.13,2.13,2.15
296.57,2.41,0.26,2.41,0.26,-0.26,-0.40,-0.47,2.14,2.14,2.15
299.53,2.39,0.24,2.39,0.23,-0.23,-0.37,-0.42,2.16,2.16,2.15
302.53,2.37,0.21,2.37,0.21,-0.19,-0.34,-0.38,2.17,2.17,2.16
305.55,2.34,0.18,2.34,0.18,-0.16,-0.31,-0.33,2.18,2.18,2.16
308.61,2.31,0.14,2.30,0.13,-0.12,-0.28,-0.29,2.18,2.18,2.17
311.69,2.26,0.09,2.27,0.09,-0.09,-0.25,-0.24,2.17,2.18,2.17
314.81,2.23,0.05,2.23,0.05,-0.05,-0.22,-0.20,2.18,2.18,2.18
317.96,2.19,0.01,2.19,0.00,-0.01,-0.19,-0.15,2.18,2.17,2.18
321.14,2.15,-0.04,2.15,-0.04,0.03,-0.16,-0.11,2.17,2.18,2.19
324.35,2.12,-0.07,2.12,-0.07,0.06,-0.13,-0.06,2.18,2.18,2.19
327.59,2.09,-0.10,2.10,-0.10,0.10,-0.09,-0.01,2.18,2.19,2.19
330.87,2.08,-0.12,2.08,-0.12,0.13,-0.06,0.04,2.21,2.20,2.20
334.18,2.06,-0.14,2.05,-0.15,0.16,-0.03,0.08,2.22,2.22,2.20
337.52,2.02,-0.19,2.02,-0.19,0.20,0.00,0.13,2.22,2.22,2.21
340.90,1.99,-0.23,1.99,-0.23,0.24,0.03,0.18,2.23,2.22,2.22
344.30,1.95,-0.27,1.95,-0.27,0.27,0.06,0.23,2.22,2.22,2.22
347.75,1.91,-0.31,1.91,-0.31,0.31,0.10,0.28,2.22,2.22,2.22
351.23,1.87,-0.35,1.87,-0.36,0.35,0.13,0.33,2.22,2.22,2.22
354.74,1.83,-0.40,1.83,-0.40,0.39,0.16,0.37,2.22,2.22,2.23
358.28,1.80,-0.43,1.80,-0.43,0.42,0.19,0.42,2.22,2.22,2.23
361.87,1.77,-0.46,1.77,-0.46,0.45,0.23,0.47,2.22,2.22,2.23
365.49,1.75,-0.48,1.75,-0.48,0.48,0.26,0.52,2.23,2.23,2.23
369.14,1.73,-0.50,1.73,-0.50,0.51,0.30,0.58,2.24,2.24,2.23
372.83,1.71,-0.52,1.70,-0.53,0.54,0.33,0.63,2.25,2.25,2.23
376.56,1.67,-0.57,1.67,-0.56,0.57,0.36,0.68,2.24,2.25,2.24
380.33,1.64,-0.60,1.64,-0.60,0.61,0.40,0.73,2.25,2.24,2.24
384.13,1.60,-0.64,1.60,-0.64,0.64,0.44,0.78,2.24,2.24,2.24
387.97,1.56,-0.68,1.56,-0.68,0.68,0.47,0.83,2.24,2.24,2.24
391.85,1.53,-0.72,1.53,-0.72,0.71,0.51,0.89,2.24,2.24,2.25
395.77,1.50,-0.75,1.50,-0.76,0.75,0.54,0.94,2.25,2.25,2.25
399.73,1.47,-0.79,1.47,-0.79,0.78,0.58,0.99,2.25,2.25,2.26
403.72,1.45,-0.81,1.45,-0.82,0.81,0.62,1.04,2.26,2.26,2.26
407.76,1.43,-0.84,1.43,-0.84,0.85,0.66,1.09,2.27,2.27,2.27
411.84,1.40,-0.87,1.40,-0.87,0.88,0.69,1.15,2.28,2.28,2.27
415.96,1.38,-0.90,1.37,-0.90,0.91,0.73,1.20,2.29,2.29,2.28
420.12,1.34,-0.94,1.34,-0.94,0.95,0.77,1.25,2.29,2.29,2.28
424.32,1.31,-0.97,1.31,-0.98,0.98,0.81,1.30,2.29,2.29,2.28
428.56,1.27,-1.02,1.27,-1.02,1.01,0.85,1.35,2.28,2.28,2.29
432.85,1.23,-1.06,1.23,-1.06,1.05,0.89,1.40,2.27,2.28,2.29
437.18,1.20,-1.09,1.20,-1.09,1.08,0.93,1.45,2.27,2.28,2.29
441.55,1.18,-1.11,1.18,-1.11,1.10,0.98,1.49,2.28,2.28,2.29
445.96,1.16,-1.13,1.16,-1.13,1.13,1.02,1.54,2.29,2.29,2.29
450.42,1.14,-1.15,1.14,-1.15,1.16,1.06,1.58,2.30,2.30,2.29
454.93,1.12,-1.17,1.11,-1.18,1.20,1.10,1.63,2.31,2.31,2.29
459.48,1.07,-1.22,1.07,-1.22,1.23,1.15,1.67,2.30,2.31,2.29
464.07,1.03,-1.26,1.03,-1.26,1.27,1.19,1.71,2.30,2.30,2.29
468.71,0.98,-1.31,0.98,-1.31,1.32,1.24,1.74,2.30,2.29,2.29
473.40,0.93,-1.36,0.93,-1.37,1.36,1.28,1.78,2.29,2.29,2.29
478.13,0.88,-1.42,0.88,-1.42,1.41,1.33,1.81,2.29,2.29,2.30
482.91,0.84,-1.46,0.84,-1.46,1.45,1.38,1.84,2.29,2.29,2.30
487.74,0.80,-1.50,0.80,-1.50,1.49,1.42,1.86,2.29,2.29,2.30
492.62,0.77,-1.53,0.77,-1.53,1.53,1.47,1.89,2.30,2.30,2.30
497.55,0.75,-1.56,0.75,-1.56,1.56,1.52,1.91,2.31,2.31,2.31
502.52,0.73,-1.58,0.73,-1.58,1.59,1.57,1.93,2.32,2.32,2.31
507.55,0.71,-1.60,0.71,-1.61,1.62,1.62,1.95,2.33,2.32,2.31
512.62,0.68,-1.63,0.68,-1.64,1.64,1.67,1.96,2.32,2.32,2.31
517.75,0.65,-1.67,0.65,-1.67,1.67,1.71,1.97,2.32,2.32,2.32
522.93,0.62,-1.70,0.62,-1.70,1.70,1.77,1.98,2.32,2.32,2.32
528.16,0.59,-1.73,0.59,-1.73,1.73,1.82,1.99,2.32,2.32,2.32
533.44,0.56,-1.76,0.56,-1.77,1.76,1.87,1.99,2.32,2.31,2.32
538.77,0.53,-1.80,0.53,-1.79,1.78,1.92,1.99,2.31,2.32,2.33
544.16,0.51,-1.82,0.51,-1.82,1.81,1.97,1.99,2.32,2.32,2.33
549.60,0.50,-1.83,0.49,-1.84,1.84,2.02,1.99,2.34,2.34,2.33
