frequency,raw,error,smoothed,error_smoothed,equalization,parametric_eq,fixed_band_eq,equalized_raw,equalized_smoothed,target
20.00,-6.09,-5.06,-6.08,-5.06,5.06,4.65,1.58,-1.02,-1.02,-1.02
20.20,-6.03,-4.98,-6.03,-4.99,4.99,4.63,1.62,-1.04,-1.05,-1.04
20.40,-5.99,-4.91,-5.98,-4.91,4.91,4.60,1.67,-1.08,-1.07,-1.07
20.61,-5.93,-4.84,-5.93,-4.84,4.83,4.57,1.72,-1.09,-1.09,-1.09
20.81,-5.88,-4.76,-5.88,-4.76,4.76,4.54,1.77,-1.11,-1.12,-1.11
21.02,-5.83,-4.68,-5.82,-4.69,4.69,4.51,1.83,-1.13,-1.13,-1.14
21.23,-5.78,-4.61,-5.78,-4.62,4.62,4.48,1.88,-1.15,-1.15,-1.16
21.44,-5.74,-4.55,-5.74,-4.56,4.56,4.44,1.94,-1.18,-1.18,-1.18
21.66,-5.71,-4.51,-5.70,-4.50,4.50,4.41,2.00,-1.21,-1.20,-1.20
21.87,-5.67,-4.44,-5.66,-4.44,4.44,4.38,2.06,-1.23,-1.22,-1.22
22.09,-5.63,-4.38,-5.63,-4.39,4.38,4.35,2.12,-1.24,-1.25,-1.24
22.31,-5.60,-4.33,-5.60,-4.33,4.33,4.32,2.19,-1.26,-1.27,-1.26
22.54,-5.58,-4.29,-5.57,-4.28,4.28,4.29,2.25,-1.30,-1.29,-1.29
22.76,-5.54,-4.22,-5.54,-4.23,4.23,4.25,2.32,-1.31,-1.31,-1.31
22.99,-5.51,-4.17,-5.51,-4.18,4.18,4.22,2.39,-1.33,-1.33,-1.33
23.22,-5.48,-4.12,-5.48,-4.13,4.13,4.19,2.46,-1.35,-1.35,-1.35
23.45,-5.45,-4.08,-5.45,-4.08,4.08,4.15,2.53,-1.37,-1.37,-1.36
23.69,-5.42,-4.04,-5.41,-4.03,4.03,4.12,2.60,-1.39,-1.38,-1.38
23.92,-5.38,-3.98,-5.38,-3.98,3.98,4.09,2.67,-1.40,-1.40,-1.39
24.16,-5.34,-3.92,-5.34,-3.93,3.93,4.05,2.75,-1.41,-1.41,-1.41
24.40,-5.31,-3.88,-5.30,-3.88,3.88,4.02,2.83,-1.43,-1.42,-1.42
24.65,-5.27,-3.83,-5.27,-3.83,3.83,3.98,2.90,-1.43,-1.43,-1.43
24.89,-5.24,-3.78,-5.24,-3.79,3.79,3.95,2.98,-1.45,-1.44,-1.45
25.14,-5.21,-3.74,-5.20,-3.74,3.75,3.91,3.06,-1.46,-1.45,-1.46
25.39,-5.18,-3.70,-5.18,-3.71,3.71,3.88,3.14,-1.46,-1.47,-1.47
25.65,-5.16,-3.67,-5.16,-3.68,3.68,3.84,3.22,-1.48,-1.48,-1.48
25.91,-5.14,-3.65,-5.14,-3.65,3.65,3.80,3.30,-1.49,-1.49,-1.49
26.16,-5.13,-3.62,-5.12,-3.62,3.61,3.77,3.38,-1.51,-1.51,-1.50
26.43,-5.11,-3.59,-5.11,-3.59,3.58,3.73,3.46,-1.52,-1.52,-1.52
26.69,-5.09,-3.55,-5.09,-3.56,3.55,3.69,3.53,-1.53,-1.53,-1.53
26.96,-5.07,-3.52,-5.07,-3.52,3.52,3.66,3.61,-1.55,-1.55,-1.54
27.23,-5.04,-3.48,-5.04,-3.49,3.48,3.62,3.68,-1.55,-1.56,-1.55
27.50,-5.02,-3.45,-5.01,-3.45,3.45,3.58,3.75,-1.57,-1.56,-1.56
27.77,-4.98,-3.41,-4.98,-3.41,3.41,3.54,3.81,-1.56,-1.57,-1.56
28.05,-4.95,-3.37,-4.95,-3.37,3.38,3.51,3.88,-1.57,-1.57,-1.57
28.33,-4.92,-3.33,-4.91,-3.34,3.34,3.47,3.94,-1.57,-1.57,-1.58
28.62,-4.89,-3.30,-4.89,-3.30,3.31,3.43,3.99,-1.58,-1.58,-1.58
28.90,-4.87,-3.27,-4.87,-3.28,3.28,3.39,4.04,-1.59,-1.59,-1.59
29.19,-4.85,-3.25,-4.84,-3.25,3.25,3.35,4.09,-1.59,-1.59,-1.59
29.48,-4.83,-3.22,-4.83,-3.23,3.23,3.31,4.13,-1.60,-1.60,-1.60
29.78,-4.81,-3.20,-4.81,-3.21,3.21,3.27,4.16,-1.60,-1.60,-1.60
30.08,-4.80,-3.18,-4.80,-3.19,3.18,3.23,4.18,-1.61,-1.61,-1.61
30.38,-4.79,-3.17,-4.78,-3.17,3.16,3.20,4.20,-1.62,-1.62,-1.61
30.68,-4.77,-3.14,-4.77,-3.15,3.14,3.16,4.21,-1.62,-1.62,-1.62
30.99,-4.75,-3.11,-4.75,-3.12,3.12,3.12,4.22,-1.62,-1.63,-1.63
31.30,-4.74,-3.10,-4.73,-3.10,3.10,3.08,4.21,-1.63,-1.63,-1.63
31.61,-4.72,-3.07,-4.72,-3.08,3.08,3.03,4.21,-1.64,-1.64,-1.64
31.93,-4.71,-3.05,-4.71,-3.06,3.06,2.99,4.19,-1.65,-1.65,-1.65
32.24,-4.70,-3.04,-4.69,-3.04,3.03,2.95,4.16,-1.66,-1.66,-1.65
32.57,-4.68,-3.01,-4.68,-3.02,3.01,2.91,4.13,-1.67,-1.67,-1.66
32.89,-4.67,-2.99,-4.66,-2.99,2.99,2.87,4.09,-1.68,-1.68,-1.67
33.22,-4.64,-2.95,-4.64,-2.96,2.96,2.83,4.04,-1.68,-1.68,-1.68
33.55,-4.63,-2.93,-4.62,-2.93,2.93,2.79,3.99,-1.69,-1.69,-1.69
33.89,-4.61,-2.90,-4.60,-2.90,2.91,2.75,3.93,-1.70,-1.70,-1.70
34.23,-4.59,-2.87,-4.59,-2.88,2.88,2.71,3.87,-1.71,-1.71,-1.71
34.57,-4.57,-2.85,-4.57,-2.85,2.85,2.66,3.80,-1.71,-1.71,-1.71
34.92,-4.55,-2.82,-4.55,-2.83,2.83,2.62,3.73,-1.72,-1.72,-1.72
35.27,-4.54,-2.80,-4.53,-2.80,2.80,2.58,3.65,-1.73,-1.73,-1.73
35.62,-4.51,-2.77,-4.51,-2.78,2.78,2.54,3.57,-1.73,-1.73,-1.73
35.97,-4.50,-2.75,-4.49,-2.75,2.75,2.49,3.48,-1.74,-1.74,-1.74
36.33,-4.47,-2.72,-4.47,-2.73,2.73,2.45,3.40,-1.74,-1.75,-1.74
36.70,-4.46,-2.70,-4.45,-2.70,2.70,2.41,3.31,-1.76,-1.75,-1.75
37.06,-4.43,-2.66,-4.43,-2.67,2.67,2.37,3.22,-1.76,-1.76,-1.76
37.43,-4.41,-2.64,-4.40,-2.64,2.64,2.32,3.13,-1.77,-1.76,-1.76
37.81,-4.38,-2.60,-4.38,-2.61,2.61,2.28,3.03,-1.77,-1.77,-1.77
38.19,-4.35,-2.57,-4.35,-2.58,2.58,2.24,2.94,-1.77,-1.77,-1.77
38.57,-4.33,-2.54,-4.32,-2.54,2.54,2.19,2.85,-1.78,-1.78,-1.78
38.95,-4.29,-2.50,-4.29,-2.50,2.51,2.15,2.75,-1.78,-1.78,-1.78
39.34,-4.26,-2.46,-4.26,-2.47,2.47,2.11,2.66,-1.79,-1.79,-1.79
39.74,-4.22,-2.42,-4.22,-2.43,2.43,2.06,2.57,-1.79,-1.79,-1.79
40.14,-4.19,-2.38,-4.18,-2.38,2.38,2.02,2.47,-1.80,-1.80,-1.80
40.54,-4.15,-2.34,-4.14,-2.34,2.34,1.98,2.38,-1.81,-1.81,-1.80
40.94,-4.10,-2.28,-4.10,-2.29,2.29,1.93,2.29,-1.81,-1.81,-1.81
41.35,-4.05,-2.23,-4.05,-2.23,2.23,1.89,2.20,-1.81,-1.81,-1.81
41.76,-4.00,-2.17,-4.00,-2.18,2.18,1.85,2.11,-1.82,-1.82,-1.82
42.18,-3.95,-2.12,-3.95,-2.12,2.12,1.80,2.02,-1.82,-1.83,-1.82
42.60,-3.90,-2.06,-3.89,-2.06,2.06,1.76,1.94,-1.83,-1.83,-1.83
43.03,-3.84,-2.00,-3.84,-2.00,2.00,1.71,1.85,-1.83,-1.83,-1.83
43.46,-3.78,-1.93,-3.78,-1.94,1.94,1.67,1.77,-1.84,-1.84,-1.84
43.90,-3.72,-1.88,-3.72,-1.87,1.88,1.62,1.69,-1.84,-1.84,-1.84
44.33,-3.66,-1.81,-3.66,-1.81,1.82,1.58,1.60,-1.84,-1.84,-1.84
44.78,-3.61,-1.75,-3.61,-1.76,1.75,1.53,1.52,-1.85,-1.85,-1.85
45.23,-3.55,-1.70,-3.54,-1.69,1.69,1.49,1.44,-1.86,-1.85,-1.85
45.68,-3.49,-1.63,-3.48,-1.63,1.63,1.45,1.37,-1.86,-1.86,-1.85
46.13,-3.41,-1.55,-3.41,-1.56,1.56,1.40,1.29,-1.85,-1.85,-1.85
46.60,-3.35,-1.49,-3.34,-1.49,1.49,1.36,1.22,-1.85,-1.85,-1.85
47.06,-3.28,-1.42,-3.27,-1.42,1.43,1.31,1.14,-1.85,-1.85,-1.85
47.53,-3.21,-1.35,-3.21,-1.36,1.36,1.26,1.07,-1.85,-1.85,-1.85
48.01,-3.14,-1.28,-3.14,-1.28,1.29,1.22,1.00,-1.85,-1.85,-1.85
48.49,-3.07,-1.21,-3.07,-1.21,1.21,1.17,0.93,-1.85,-1.85,-1.85
48.97,-3.00,-1.14,-3.00,-1.15,1.14,1.13,0.86,-1.85,-1.86,-1.85
49.46,-2.93,-1.07,-2.93,-1.07,1.07,1.08,0.79,-1.86,-1.85,-1.85
49.96,-2.86,-1.00,-2.85,-1.00,1.00,1.04,0.72,-1.86,-1.85,-1.85
50.46,-2.77,-0.92,-2.77,-0.92,0.92,0.99,0.66,-1.84,-1.85,-1.85
50.96,-2.70,-0.84,-2.70,-0.85,0.85,0.95,0.59,-1.85,-1.85,-1.85
51.47,-2.63,-0.77,-2.62,-0.77,0.77,0.90,0.53,-1.85,-1.85,-1.85
51.99,-2.55,-0.70,-2.55,-0.70,0.70,0.85,0.47,-1.85,-1.85,-1.85
52.51,-2.48,-0.63,-2.47,-0.62,0.62,0.81,0.40,-1.86,-1.85,-1.85
53.03,-2.40,-0.54,-2.40,-0.55,0.55,0.76,0.34,-1.85,-1.85,-1.85
53.56,-2.33,-0.47,-2.33,-0.48,0.48,0.71,0.29,-1.85,-1.85,-1.85
54.10,-2.26,-0.40,-2.26,-0.41,0.41,0.67,0.23,-1.85,-1.85,-1.85
54.64,-2.20,-0.34,-2.19,-0.34,0.34,0.62,0.17,-1.86,-1.85,-1.85
55.18,-2.13,-0.27,-2.13,-0.27,0.27,0.57,0.11,-1.85,-1.85,-1.85
55.74,-2.06,-0.21,-2.06,-0.21,0.21,0.53,0.06,-1.85,-1.85,-1.85
56.29,-2.01,-0.15,-2.00,-0.15,0.15,0.48,0.01,-1.86,-1.85,-1.85
56.86,-1.94,-0.08,-1.94,-0.09,0.09,0.43,-0.05,-1.85,-1.85,-1.85
57.42,-1.88,-0.02,-1.88,-0.03,0.03,0.38,-0.10,-1.84,-1.85,-1.85
58.00,-1.82,0.03,-1.82,0.03,-0.03,0.34,-0.15,-1.84,-1.84,-1.84
58.58,-1.77,0.08,-1.76,0.08,-0.08,0.29,-0.19,-1.85,-1.84,-1.84
59.16,-1.71,0.14,-1.71,0.13,-0.13,0.24,-0.24,-1.84,-1.84,-1.84
59.76,-1.66,0.19,-1.65,0.18,-0.19,0.19,-0.29,-1.84,-1.84,-1.84
60.35,-1.60,0.24,-1.60,0.24,-0.24,0.14,-0.33,-1.84,-1.84,-1.83
60.96,-1.55,0.29,-1.54,0.29,-0.29,0.10,-0.38,-1.84,-1.83,-1.83
61.57,-1.49,0.35,-1.49,0.34,-0.34,0.05,-0.42,-1.83,-1.83,-1.83
62.18,-1.44,0.40,-1.44,0.39,-0.39,-0.00,-0.46,-1.83,-1.83,-1.83
62.80,-1.39,0.45,-1.39,0.44,-0.44,-0.05,-0.50,-1.83,-1.83,-1.83
63.43,-1.34,0.49,-1.34,0.49,-0.49,-0.10,-0.54,-1.83,-1.83,-1.82
64.07,-1.29,0.54,-1.29,0.54,-0.54,-0.15,-0.58,-1.83,-1.82,-1.82
64.71,-1.24,0.59,-1.24,0.58,-0.59,-0.20,-0.61,-1.82,-1.83,-1.82
65.35,-1.19,0.64,-1.19,0.63,-0.64,-0.25,-0.65,-1.82,-1.82,-1.82
66.01,-1.15,0.68,-1.14,0.68,-0.68,-0.30,-0.68,-1.83,-1.82,-1.82
66.67,-1.09,0.74,-1.09,0.73,-0.73,-0.35,-0.72,-1.82,-1.82,-1.82
67.33,-1.04,0.79,-1.04,0.78,-0.77,-0.40,-0.75,-1.81,-1.82,-1.82
68.01,-1.01,0.82,-1.00,0.82,-0.82,-0.45,-0.78,-1.83,-1.82,-1.82
68.69,-0.96,0.87,-0.96,0.86,-0.86,-0.51,-0.82,-1.82,-1.82,-1.82
69.37,-0.92,0.91,-0.92,0.90,-0.91,-0.56,-0.85,-1.82,-1.82,-1.82
70.07,-0.88,0.95,-0.87,0.95,-0.95,-0.61,-0.88,-1.82,-1.82,-1.82
70.77,-0.84,0.99,-0.83,0.99,-0.99,-0.66,-0.91,-1.83,-1.82,-1.82
71.48,-0.79,1.04,-0.79,1.03,-1.03,-0.71,-0.94,-1.82,-1.82,-1.82
72.19,-0.76,1.07,-0.75,1.07,-1.07,-0.77,-0.97,-1.83,-1.82,-1.82
72.91,-0.71,1.12,-0.71,1.11,-1.11,-0.82,-1.00,-1.82,-1.83,-1.82
73.64,-0.68,1.16,-0.67,1.15,-1.16,-0.87,-1.04,-1.83,-1.83,-1.83
74.38,-0.64,1.20,-0.63,1.20,-1.20,-0.92,-1.07,-1.83,-1.83,-1.83
75.12,-0.59,1.25,-0.59,1.24,-1.24,-0.98,-1.10,-1.83,-1.84,-1.83
75.87,-0.56,1.29,-0.55,1.28,-1.29,-1.03,-1.13,-1.84,-1.84,-1.84
76.63,-0.52,1.33,-0.51,1.33,-1.33,-1.09,-1.17,-1.85,-1.85,-1.84
77.40,-0.48,1.38,-0.48,1.38,-1.38,-1.14,-1.20,-1.85,-1.85,-1.85
78.17,-0.44,1.43,-0.44,1.43,-1.42,-1.19,-1.24,-1.86,-1.86,-1.86
78.95,-0.40,1.48,-0.40,1.47,-1.47,-1.25,-1.27,-1.87,-1.87,-1.87
79.74,-0.37,1.52,-0.36,1.52,-1.52,-1.30,-1.31,-1.88,-1.88,-1.88
80.54,-0.34,1.56,-0.33,1.56,-1.56,-1.36,-1.35,-1.90,-1.89,-1.89
81.35,-0.29,1.62,-0.29,1.61,-1.61,-1.41,-1.39,-1.90,-1.90,-1.90
82.16,-0.26,1.66,-0.26,1.66,-1.65,-1.47,-1.43,-1.91,-1.91,-1.91
82.98,-0.23,1.70,-0.22,1.70,-1.70,-1.52,-1.47,-1.92,-1.92,-1.92
83.81,-0.19,1.75,-0.19,1.74,-1.74,-1.58,-1.51,-1.93,-1.93,-1.93
84.65,-0.17,1.79,-0.16,1.79,-1.79,-1.63,-1.55,-1.95,-1.95,-1.95
85.50,-0.13,1.84,-0.13,1.83,-1.83,-1.69,-1.60,-1.96,-1.96,-1.96
86.35,-0.10,1.87,-0.10,1.87,-1.87,-1.74,-1.65,-1.97,-1.97,-1.96
87.22,-0.07,1.91,-0.06,1.91,-1.91,-1.80,-1.70,-1.98,-1.97,-1.97
88.09,-0.03,1.96,-0.03,1.95,-1.95,-1.85,-1.74,-1.98,-1.98,-1.98
88.97,0.00,2.00,0.00,1.99,-1.99,-1.90,-1.80,-1.99,-1.99,-1.99
89.86,0.03,2.04,0.03,2.03,-2.03,-1.96,-1.85,-2.00,-2.00,-2.00
90.76,0.06,2.07,0.06,2.07,-2.07,-2.01,-1.90,-2.00,-2.00,-2.00
91.66,0.09,2.11,0.09,2.10,-2.10,-2.07,-1.96,-2.01,-2.01,-2.01
92.58,0.12,2.14,0.12,2.14,-2.14,-2.12,-2.01,-2.02,-2.02,-2.01
93.51,0.15,2.18,0.15,2.17,-2.17,-2.18,-2.07,-2.02,-2.02,-2.02
94.44,0.18,2.21,0.18,2.21,-2.21,-2.23,-2.13,-2.02,-2.02,-2.02
95.39,0.21,2.25,0.21,2.24,-2.24,-2.28,-2.19,-2.03,-2.03,-2.03
96.34,0.24,2.28,0.24,2.27,-2.27,-2.34,-2.25,-2.03,-2.03,-2.03
97.30,0.26,2.31,0.27,2.31,-2.31,-2.39,-2.32,-2.04,-2.04,-2.04
98.28,0.29,2.34,0.29,2.34,-2.34,-2.44,-2.38,-2.05,-2.05,-2.04
99.26,0.32,2.38,0.32,2.38,-2.38,-2.49,-2.44,-2.06,-2.06,-2.05
100.25,0.35,2.42,0.35,2.41,-2.42,-2.54,-2.51,-2.06,-2.06,-2.06
101.25,0.38,2.46,0.38,2.46,-2.45,-2.59,-2.58,-2.07,-2.07,-2.07
102.27,0.41,2.50,0.41,2.50,-2.49,-2.64,-2.64,-2.08,-2.08,-2.08
103.29,0.44,2.54,0.44,2.54,-2.53,-2.69,-2.71,-2.09,-2.09,-2.09
104.32,0.47,2.58,0.47,2.58,-2.57,-2.74,-2.77,-2.10,-2.10,-2.10
105.37,0.50,2.62,0.50,2.61,-2.61,-2.79,-2.84,-2.11,-2.11,-2.11
106.42,0.52,2.65,0.53,2.65,-2.65,-2.84,-2.90,-2.13,-2.13,-2.12
107.48,0.55,2.69,0.56,2.69,-2.69,-2.88,-2.97,-2.14,-2.13,-2.13
108.56,0.58,2.73,0.59,2.73,-2.73,-2.93,-3.03,-2.15,-2.14,-2.14
109.64,0.62,2.78,0.62,2.77,-2.77,-2.97,-3.09,-2.14,-2.15,-2.15
110.74,0.64,2.81,0.65,2.81,-2.81,-3.02,-3.15,-2.16,-2.16,-2.16
111.85,0.67,2.85,0.67,2.85,-2.85,-3.06,-3.21,-2.17,-2.17,-2.17
112.97,0.70,2.89,0.70,2.88,-2.88,-3.10,-3.27,-2.18,-2.18,-2.18
114.10,0.72,2.92,0.73,2.92,-2.92,-3.15,-3.32,-2.20,-2.19,-2.19
115.24,0.75,2.96,0.75,2.96,-2.96,-3.18,-3.37,-2.20,-2.20,-2.20
116.39,0.78,3.00,0.78,2.99,-2.99,-3.22,-3.41,-2.21,-2.21,-2.21
117.55,0.80,3.03,0.80,3.03,-3.02,-3.26,-3.45,-2.22,-2.22,-2.22
118.73,0.82,3.06,0.82,3.05,-3.05,-3.30,-3.49,-2.23,-2.23,-2.23
119.92,0.84,3.08,0.84,3.08,-3.08,-3.33,-3.52,-2.24,-2.24,-2.23
121.12,0.86,3.11,0.86,3.10,-3.11,-3.37,-3.56,-2.24,-2.24,-2.24
122.33,0.88,3.13,0.88,3.13,-3.13,-3.40,-3.58,-2.25,-2.25,-2.24
123.55,0.90,3.16,0.90,3.15,-3.15,-3.43,-3.60,-2.25,-2.25,-2.25
124.79,0.92,3.18,0.92,3.18,-3.18,-3.46,-3.61,-2.25,-2.26,-2.25
126.03,0.93,3.20,0.94,3.20,-3.20,-3.49,-3.62,-2.26,-2.26,-2.26
127.29,0.95,3.22,0.96,3.22,-3.22,-3.52,-3.62,-2.26,-2.26,-2.26
128.57,0.97,3.24,0.97,3.24,-3.24,-3.55,-3.63,-2.27,-2.27,-2.26
129.85,0.99,3.27,0.99,3.26,-3.26,-3.57,-3.62,-2.26,-2.27,-2.27
131.15,1.00,3.28,1.00,3.28,-3.27,-3.60,-3.61,-2.27,-2.27,-2.27
132.46,1.01,3.29,1.02,3.29,-3.29,-3.62,-3.59,-2.27,-2.27,-2.27
133.79,1.03,3.31,1.03,3.30,-3.30,-3.64,-3.58,-2.27,-2.27,-2.27
135.12,1.04,3.32,1.04,3.31,-3.31,-3.66,-3.55,-2.27,-2.27,-2.27
136.48,1.05,3.33,1.06,3.32,-3.32,-3.68,-3.53,-2.27,-2.27,-2.27
137.84,1.06,3.33,1.07,3.33,-3.33,-3.70,-3.50,-2.27,-2.27,-2.26
139.22,1.08,3.35,1.08,3.34,-3.35,-3.72,-3.47,-2.26,-2.27,-2.26
140.61,1.09,3.36,1.10,3.35,-3.36,-3.73,-3.44,-2.26,-2.26,-2.26
142.02,1.11,3.37,1.11,3.37,-3.37,-3.74,-3.40,-2.25,-2.25,-2.25
143.44,1.13,3.38,1.13,3.38,-3.38,-3.75,-3.36,-2.24,-2.25,-2.24
144.87,1.14,3.39,1.15,3.39,-3.39,-3.76,-3.33,-2.25,-2.24,-2.24
146.32,1.17,3.41,1.17,3.40,-3.40,-3.77,-3.29,-2.23,-2.23,-2.23
147.78,1.18,3.41,1.18,3.41,-3.41,-3.78,-3.25,-2.22,-2.22,-2.22
149.26,1.20,3.43,1.20,3.42,-3.42,-3.78,-3.21,-2.21,-2.22,-2.22
150.75,1.20,3.42,1.21,3.42,-3.42,-3.79,-3.17,-2.22,-2.21,-2.21
152.26,1.22,3.43,1.22,3.42,-3.42,-3.79,-3.13,-2.20,-2.20,-2.20
153.78,1.23,3.43,1.23,3.43,-3.42,-3.79,-3.09,-2.19,-2.19,-2.19
155.32,1.24,3.43,1.24,3.43,-3.42,-3.79,-3.05,-2.18,-2.18,-2.18
156.88,1.25,3.43,1.25,3.42,-3.42,-3.79,-3.01,-2.17,-2.17,-2.17
158.44,1.25,3.42,1.26,3.42,-3.42,-3.79,-2.97,-2.17,-2.16,-2.16
160.03,1.26,3.42,1.26,3.41,-3.42,-3.78,-2.94,-2.15,-2.15,-2.15
161.63,1.26,3.41,1.27,3.41,-3.41,-3.78,-2.90,-2.15,-2.14,-2.14
163.24,1.27,3.41,1.27,3.41,-3.41,-3.77,-2.87,-2.13,-2.13,-2.13
164.88,1.28,3.41,1.28,3.40,-3.40,-3.76,-2.84,-2.12,-2.12,-2.12
166.53,1.28,3.40,1.28,3.39,-3.39,-3.75,-2.81,-2.11,-2.11,-2.11
168.19,1.28,3.39,1.29,3.39,-3.39,-3.74,-2.79,-2.10,-2.10,-2.10
169.87,1.28,3.38,1.29,3.38,-3.38,-3.73,-2.76,-2.10,-2.10,-2.09
171.57,1.29,3.39,1.29,3.38,-3.38,-3.71,-2.74,-2.08,-2.09,-2.09
173.29,1.28,3.37,1.29,3.37,-3.37,-3.70,-2.72,-2.09,-2.08,-2.08
175.02,1.29,3.37,1.29,3.37,-3.37,-3.68,-2.70,-2.07,-2.07,-2.07
176.77,1.29,3.37,1.29,3.36,-3.36,-3.66,-2.69,-2.07,-2.07,-2.07
178.54,1.29,3.36,1.30,3.36,-3.36,-3.64,-2.68,-2.07,-2.06,-2.06
180.32,1.29,3.36,1.29,3.35,-3.36,-3.62,-2.66,-2.06,-2.06,-2.06
182.13,1.29,3.36,1.29,3.35,-3.36,-3.60,-2.66,-2.06,-2.06,-2.06
183.95,1.28,3.35,1.29,3.35,-3.35,-3.57,-2.65,-2.07,-2.06,-2.06
185.79,1.29,3.36,1.29,3.35,-3.35,-3.55,-2.64,-2.06,-2.06,-2.06
187.65,1.29,3.36,1.29,3.35,-3.35,-3.52,-2.64,-2.05,-2.06,-2.06
189.52,1.28,3.35,1.29,3.35,-3.35,-3.50,-2.64,-2.06,-2.06,-2.06
191.42,1.28,3.35,1.28,3.34,-3.34,-3.47,-2.64,-2.06,-2.06,-2.06
193.33,1.27,3.34,1.28,3.34,-3.34,-3.44,-2.64,-2.07,-2.06,-2.06
195.27,1.27,3.34,1.27,3.33,-3.34,-3.41,-2.65,-2.06,-2.07,-2.06
197.22,1.25,3.33,1.26,3.33,-3.33,-3.38,-2.65,-2.08,-2.07,-2.07
199.19,1.25,3.33,1.25,3.33,-3.32,-3.34,-2.66,-2.07,-2.07,-2.07
201.18,1.24,3.33,1.24,3.32,-3.32,-3.31,-2.67,-2.07,-2.08,-2.08
203.19,1.22,3.31,1.23,3.31,-3.31,-3.27,-2.67,-2.09,-2.08,-2.08
205.23,1.21,3.31,1.21,3.30,-3.31,-3.24,-2.68,-2.09,-2.09,-2.09
207.28,1.20,3.30,1.20,3.30,-3.30,-3.20,-2.69,-2.09,-2.10,-2.09
209.35,1.18,3.29,1.19,3.29,-3.29,-3.16,-2.70,-2.10,-2.10,-2.10
211.44,1.17,3.29,1.17,3.28,-3.28,-3.12,-2.71,-2.11,-2.11,-2.11
213.56,1.15,3.27,1.15,3.27,-3.27,-3.08,-2.72,-2.11,-2.11,-2.11
215.69,1.13,3.26,1.13,3.25,-3.26,-3.03,-2.73,-2.12,-2.12,-2.12
217.85,1.11,3.24,1.11,3.24,-3.24,-2.99,-2.74,-2.13,-2.13,-2.12
220.03,1.09,3.23,1.09,3.22,-3.22,-2.94,-2.75,-2.13,-2.13,-2.13
222.23,1.07,3.21,1.07,3.21,-3.20,-2.90,-2.75,-2.13,-2.13,-2.13
224.45,1.05,3.19,1.05,3.18,-3.18,-2.85,-2.75,-2.13,-2.13,-2.13
226.70,1.02,3.16,1.02,3.16,-3.15,-2.80,-2.75,-2.13,-2.13,-2.13
228.96,0.99,3.13,0.99,3.12,-3.12,-2.75,-2.75,-2.13,-2.13,-2.13
231.25,0.95,3.09,0.96,3.09,-3.09,-2.70,-2.75,-2.13,-2.13,-2.13
233.57,0.92,3.05,0.92,3.05,-3.05,-2.64,-2.74,-2.12,-2.13,-2.12
235.90,0.88,3.01,0.89,3.00,-3.01,-2.59,-2.73,-2.12,-2.12,-2.12
238.26,0.85,2.97,0.85,2.96,-2.97,-2.53,-2.71,-2.11,-2.11,-2.11
240.64,0.81,2.92,0.82,2.92,-2.92,-2.48,-2.69,-2.11,-2.11,-2.10
243.05,0.78,2.89,0.78,2.88,-2.88,-2.42,-2.67,-2.09,-2.10,-2.10
245.48,0.73,2.83,0.74,2.83,-2.83,-2.36,-2.64,-2.10,-2.09,-2.09
247.93,0.70,2.79,0.70,2.79,-2.79,-2.30,-2.61,-2.08,-2.08,-2.08
250.41,0.66,2.74,0.66,2.74,-2.74,-2.23,-2.57,-2.07,-2.08,-2.07
252.92,0.62,2.70,0.62,2.69,-2.69,-2.17,-2.52,-2.06,-2.07,-2.07
255.45,0.57,2.64,0.58,2.64,-2.64,-2.10,-2.48,-2.06,-2.06,-2.06
258.00,0.52,2.58,0.53,2.58,-2.58,-2.03,-2.42,-2.06,-2.06,-2.05
260.58,0.47,2.53,0.47,2.52,-2.52,-1.96,-2.36,-2.05,-2.05,-2.05
263.19,0.41,2.47,0.41,2.46,-2.46,-1.89,-2.30,-2.05,-2.05,-2.05
265.82,0.35,2.40,0.35,2.40,-2.40,-1.82,-2.24,-2.04,-2.04,-2.04
268.48,0.28,2.33,0.28,2.33,-2.33,-1.74,-2.17,-2.04,-2.04,-2.04
271.16,0.21,2.26,0.21,2.25,-2.25,-1.66,-2.09,-2.04,-2.04,-2.04
273.87,0.13,2.18,0.14,2.17,-2.17,-1.58,-2.01,-2.04,-2.04,-2.04
276.61,0.05,2.09,0.06,2.09,-2.09,-1.50,-1.93,-2.04,-2.04,-2.03
279.38,-0.03,2.01,-0.03,2.00,-2.00,-1.42,-1.84,-2.03,-2.03,-2.03
282.17,-0.12,1.92,-0.12,1.91,-1.91,-1.33,-1.75,-2.03,-2.03,-2.03
284.99,-0.22,1.81,-0.21,1.81,-1.81,-1.24,-1.66,-2.03,-2.03,-2.02
287.84,-0.32,1.71,-0.31,1.71,-1.71,-1.15,-1.56,-2.02,-2.02,-2.02
290.72,-0.42,1.60,-0.42,1.60,-1.60,-1.05,-1.46,-2.01,-2.01,-2.01
293.63,-0.53,1.49,-0.53,1.48,-1.48,-0.96,-1.36,-2.01,-2.01,-2.01
296.57,-0.65,1.36,-0.65,1.36,-1.36,-0.86,-1.26,-2.00,-2.00,-2.00
299.53,-0.78,1.23,-0.77,1.23,-1.22,-0.75,-1.16,-2.00,-2.00,-2.00
302.53,-0.91,1.09,-0.91,1.08,-1.08,-0.65,-1.05,-1.99,-1.99,-1.99
305.55,-1.05,0.94,-1.04,0.94,-0.94,-0.54,-0.95,-1.98,-1.98,-1.98
308.61,-1.19,0.79,-1.19,0.79,-0.78,-0.42,-0.84,-1.97,-1.97,-1.97
311.69,-1.34,0.63,-1.34,0.62,-0.62,-0.30,-0.73,-1.96,-1.96,-1.96
314.81,-1.50,0.46,-1.50,0.46,-0.45,-0.18,-0.62,-1.95,-1.95,-1.95
317.96,-1.67,0.28,-1.66,0.28,-0.28,-0.06,-0.51,-1.94,-1.94,-1.94
321.14,-1.84,0.10,-1.84,0.09,-0.10,0.07,-0.39,-1.93,-1.93,-1.93
324.35,-2.02,-0.09,-2.01,-0.09,0.09,0.21,-0.28,-1.93,-1.92,-1.92
327.59,-2.20,-0.28,-2.20,-0.28,0.28,0.34,-0.17,-1.91,-1.92,-1.91
330.87,-2.39,-0.47,-2.39,-0.48,0.48,0.49,-0.05,-1.91,-1.91,-1.91
334.18,-2.59,-0.68,-2.58,-0.68,0.68,0.63,0.07,-1.91,-1.90,-1.90
337.52,-2.78,-0.87,-2.78,-0.88,0.88,0.78,0.18,-1.89,-1.90,-1.90
340.90,-2.99,-1.09,-2.99,-1.09,1.09,0.94,0.30,-1.89,-1.89,-1.89
344.30,-3.20,-1.30,-3.19,-1.30,1.30,1.10,0.42,-1.89,-1.89,-1.89
347.75,-3.41,-1.51,-3.40,-1.51,1.51,1.27,0.53,-1.89,-1.89,-1.89
351.23,-3.62,-1.72,-3.62,-1.73,1.73,1.44,0.65,-1.89,-1.89,-1.89
354.74,-3.84,-1.94,-3.84,-1.94,1.95,1.62,0.77,-1.89,-1.89,-1.89
358.28,-4.07,-2.16,-4.06,-2.16,2.16,1.80,0.89,-1.90,-1.90,-1.90
361.87,-4.28,-2.37,-4.28,-2.38,2.38,1.98,1.01,-1.90,-1.90,-1.90
365.49,-4.50,-2.59,-4.50,-2.59,2.59,2.17,1.13,-1.90,-1.90,-1.90
369.14,-4.71,-2.80,-4.70,-2.80,2.80,2.36,1.25,-1.90,-1.90,-1.90
372.83,-4.91,-3.00,-4.91,-3.01,3.01,2.56,1.38,-1.90,-1.90,-1.90
376.56,-5.11,-3.21,-5.11,-3.21,3.21,2.75,1.50,-1.89,-1.90,-1.89
380.33,-5.31,-3.41,-5.30,-3.41,3.41,2.95,1.62,-1.90,-1.89,-1.89
384.13,-5.48,-3.58,-5.48,-3.59,3.59,3.15,1.75,-1.88,-1.89,-1.89
387.97,-5.66,-3.77,-5.66,-3.77,3.77,3.35,1.87,-1.89,-1.88,-1.88
391.85,-5.82,-3.93,-5.81,-3.94,3.94,3.55,1.99,-1.88,-1.88,-1.88
395.77,-5.97,-4.09,-5.97,-4.09,4.09,3.74,2.12,-1.87,-1.87,-1.87
399.73,-6.10,-4.23,-6.10,-4.23,4.24,3.92,2.24,-1.86,-1.87,-1.86
403.72,-6.23,-4.36,-6.22,-4.36,4.36,4.10,2.36,-1.86,-1.86,-1.86
407.76,-6.33,-4.47,-6.33,-4.48,4.47,4.27,2.48,-1.85,-1.86,-1.85
411.84,-6.42,-4.57,-6.41,-4.57,4.56,4.42,2.60,-1.85,-1.85,-1.84
415.96,-6.48,-4.64,-6.48,-4.64,4.64,4.56,2.72,-1.84,-1.84,-1.83
420.12,-6.53,-4.69,-6.52,-4.69,4.69,4.69,2.84,-1.84,-1.83,-1.83
424.32,-6.55,-4.72,-6.55,-4.73,4.73,4.79,2.96,-1.82,-1.82,-1.82
428.56,-6.56,-4.74,-6.56,-4.75,4.74,4.87,3.07,-1.81,-1.82,-1.81
432.85,-6.56,-4.75,-6.55,-4.74,4.74,4.93,3.18,-1.82,-1.81,-1.80
437.18,-6.52,-4.72,-6.52,-4.73,4.72,4.97,3.29,-1.79,-1.79,-1.79
441.55,-6.47,-4.68,-6.47,-4.69,4.69,4.98,3.39,-1.77,-1.78,-1.78
445.96,-6.42,-4.64,-6.42,-4.64,4.65,4.98,3.49,-1.77,-1.77,-1.77
450.42,-6.36,-4.59,-6.35,-4.59,4.60,4.94,3.58,-1.76,-1.76,-1.76
