frequency,raw,error,smoothed,error_smoothed,equalization,parametric_eq,fixed_band_eq,equalized_raw,equalized_smoothed,target
20.00,-3.01,-4.07,-3.01,-4.07,4.07,3.54,1.87,1.06,1.06,1.06
20.20,-3.02,-4.06,-3.03,-4.06,4.06,3.58,1.92,1.04,1.03,1.04
20.40,-3.04,-4.05,-3.04,-4.05,4.05,3.62,1.98,1.00,1.01,1.01
20.61,-3.05,-4.04,-3.05,-4.04,4.04,3.67,2.03,0.98,0.98,0.99
20.81,-3.06,-4.03,-3.07,-4.03,4.03,3.71,2.09,0.96,0.96,0.96
21.02,-3.08,-4.02,-3.08,-4.02,4.02,3.75,2.15,0.93,0.94,0.94
21.23,-3.08,-4.00,-3.09,-4.00,4.01,3.79,2.22,0.93,0.92,0.91
21.44,-3.10,-4.00,-3.11,-4.00,4.00,3.83,2.28,0.90,0.90,0.89
21.66,-3.12,-4.00,-3.12,-4.00,4.00,3.87,2.35,0.87,0.87,0.87
21.87,-3.14,-4.00,-3.14,-4.00,3.99,3.90,2.42,0.85,0.85,0.85
22.09,-3.15,-3.99,-3.16,-3.99,3.98,3.94,2.49,0.83,0.83,0.83
22.31,-3.17,-3.99,-3.17,-3.98,3.98,3.98,2.56,0.81,0.81,0.81
22.54,-3.19,-3.98,-3.19,-3.98,3.98,4.01,2.63,0.78,0.79,0.78
22.76,-3.20,-3.97,-3.21,-3.97,3.98,4.05,2.71,0.77,0.77,0.76
22.99,-3.23,-3.98,-3.23,-3.97,3.98,4.08,2.79,0.74,0.75,0.74
23.22,-3.25,-3.98,-3.25,-3.98,3.98,4.11,2.87,0.73,0.73,0.72
23.45,-3.27,-3.99,-3.28,-3.99,3.98,4.14,2.95,0.71,0.71,0.71
23.69,-3.30,-3.99,-3.30,-3.99,3.99,4.17,3.03,0.69,0.70,0.69
23.92,-3.32,-4.00,-3.33,-4.00,4.01,4.19,3.11,0.68,0.68,0.68
24.16,-3.35,-4.01,-3.36,-4.02,4.02,4.22,3.20,0.67,0.67,0.66
24.40,-3.39,-4.04,-3.39,-4.04,4.04,4.24,3.28,0.65,0.65,0.65
24.65,-3.42,-4.06,-3.43,-4.06,4.06,4.27,3.37,0.64,0.63,0.64
24.89,-3.46,-4.08,-3.46,-4.08,4.08,4.29,3.46,0.62,0.62,0.62
25.14,-3.49,-4.10,-3.49,-4.10,4.10,4.31,3.55,0.61,0.61,0.61
25.39,-3.52,-4.12,-3.52,-4.12,4.12,4.32,3.64,0.59,0.59,0.60
25.65,-3.55,-4.14,-3.55,-4.14,4.14,4.34,3.73,0.58,0.59,0.59
25.91,-3.57,-4.15,-3.58,-4.15,4.15,4.35,3.82,0.58,0.57,0.58
26.16,-3.60,-4.17,-3.60,-4.17,4.17,4.36,3.90,0.56,0.56,0.57
26.43,-3.63,-4.18,-3.63,-4.18,4.18,4.37,3.99,0.55,0.55,0.55
26.69,-3.65,-4.19,-3.66,-4.19,4.20,4.38,4.08,0.54,0.54,0.54
26.96,-3.68,-4.21,-3.68,-4.21,4.21,4.39,4.16,0.52,0.53,0.52
27.23,-3.70,-4.22,-3.71,-4.22,4.22,4.39,4.25,0.52,0.51,0.51
27.50,-3.73,-4.24,-3.73,-4.23,4.23,4.39,4.32,0.50,0.51,0.50
27.77,-3.74,-4.25,-3.75,-4.25,4.24,4.39,4.40,0.50,0.50,0.50
28.05,-3.76,-4.26,-3.77,-4.26,4.26,4.39,4.47,0.49,0.49,0.49
28.33,-3.78,-4.26,-3.78,-4.26,4.26,4.39,4.54,0.48,0.49,0.48
28.62,-3.79,-4.27,-3.80,-4.27,4.27,4.38,4.61,0.48,0.48,0.48
28.90,-3.80,-4.27,-3.81,-4.28,4.28,4.37,4.66,0.47,0.47,0.47
29.19,-3.82,-4.29,-3.82,-4.28,4.28,4.36,4.72,0.46,0.47,0.47
29.48,-3.82,-4.28,-3.83,-4.28,4.29,4.35,4.76,0.46,0.46,0.46
29.78,-3.83,-4.29,-3.83,-4.29,4.29,4.33,4.80,0.46,0.46,0.46
30.08,-3.83,-4.28,-3.84,-4.29,4.29,4.32,4.84,0.46,0.45,0.45
30.38,-3.85,-4.30,-3.85,-4.29,4.29,4.30,4.86,0.43,0.44,0.44
30.68,-3.85,-4.29,-3.85,-4.28,4.28,4.28,4.88,0.43,0.43,0.43
30.99,-3.84,-4.27,-3.85,-4.28,4.28,4.26,4.89,0.43,0.42,0.42
31.30,-3.85,-4.27,-3.85,-4.26,4.27,4.23,4.89,0.41,0.42,0.42
31.61,-3.84,-4.25,-3.84,-4.25,4.25,4.21,4.89,0.41,0.41,0.41
31.93,-3.83,-4.23,-3.84,-4.24,4.24,4.18,4.88,0.40,0.40,0.40
32.24,-3.83,-4.23,-3.83,-4.22,4.22,4.15,4.86,0.39,0.39,0.40
32.57,-3.81,-4.20,-3.82,-4.20,4.20,4.12,4.83,0.39,0.38,0.39
32.89,-3.80,-4.18,-3.80,-4.18,4.18,4.09,4.79,0.37,0.37,0.37
33.22,-3.78,-4.15,-3.79,-4.15,4.15,4.06,4.75,0.37,0.36,0.36
33.55,-3.77,-4.12,-3.77,-4.12,4.12,4.02,4.70,0.35,0.35,0.35
33.89,-3.75,-4.09,-3.75,-4.09,4.10,3.99,4.65,0.34,0.34,0.34
34.23,-3.73,-4.06,-3.73,-4.07,4.07,3.95,4.59,0.33,0.33,0.33
34.57,-3.71,-4.04,-3.71,-4.03,4.03,3.91,4.53,0.32,0.32,0.33
34.92,-3.68,-4.00,-3.69,-4.00,4.00,3.87,4.46,0.32,0.31,0.31
35.27,-3.66,-3.97,-3.66,-3.97,3.97,3.83,4.39,0.30,0.30,0.30
35.62,-3.63,-3.93,-3.63,-3.93,3.93,3.79,4.31,0.30,0.30,0.30
35.97,-3.60,-3.89,-3.60,-3.89,3.89,3.75,4.24,0.29,0.29,0.29
36.33,-3.56,-3.85,-3.57,-3.85,3.85,3.71,4.15,0.28,0.28,0.29
36.70,-3.53,-3.81,-3.53,-3.80,3.80,3.66,4.07,0.27,0.27,0.27
37.06,-3.49,-3.75,-3.49,-3.76,3.76,3.62,3.99,0.26,0.26,0.26
37.43,-3.44,-3.70,-3.45,-3.70,3.71,3.57,3.90,0.26,0.26,0.26
37.81,-3.40,-3.65,-3.40,-3.65,3.65,3.53,3.82,0.25,0.25,0.25
38.19,-3.35,-3.60,-3.36,-3.60,3.60,3.48,3.73,0.25,0.24,0.24
38.57,-3.31,-3.54,-3.31,-3.54,3.54,3.43,3.65,0.23,0.23,0.23
38.95,-3.26,-3.49,-3.26,-3.49,3.49,3.38,3.56,0.22,0.22,0.23
39.34,-3.21,-3.43,-3.21,-3.43,3.43,3.34,3.48,0.21,0.21,0.21
39.74,-3.15,-3.37,-3.16,-3.37,3.36,3.29,3.40,0.21,0.21,0.21
40.14,-3.10,-3.30,-3.10,-3.30,3.30,3.24,3.32,0.20,0.20,0.20
40.54,-3.04,-3.24,-3.04,-3.24,3.24,3.19,3.24,0.19,0.19,0.20
40.94,-2.98,-3.17,-2.98,-3.17,3.17,3.14,3.16,0.19,0.18,0.18
41.35,-2.92,-3.10,-2.92,-3.10,3.10,3.09,3.08,0.18,0.18,0.18
41.76,-2.86,-3.03,-2.86,-3.03,3.03,3.04,3.00,0.17,0.17,0.16
42.18,-2.80,-2.96,-2.80,-2.96,2.96,2.99,2.93,0.16,0.16,0.16
42.60,-2.74,-2.89,-2.75,-2.90,2.89,2.94,2.86,0.15,0.15,0.15
43.03,-2.69,-2.84,-2.69,-2.83,2.83,2.89,2.78,0.13,0.14,0.14
43.46,-2.63,-2.76,-2.63,-2.76,2.76,2.84,2.72,0.12,0.13,0.13
43.90,-2.56,-2.69,-2.57,-2.69,2.69,2.79,2.65,0.13,0.12,0.12
44.33,-2.50,-2.62,-2.51,-2.62,2.62,2.74,2.58,0.12,0.12,0.12
44.78,-2.45,-2.56,-2.45,-2.56,2.56,2.70,2.52,0.11,0.11,0.10
45.23,-2.39,-2.49,-2.40,-2.49,2.50,2.65,2.46,0.10,0.10,0.10
45.68,-2.34,-2.44,-2.34,-2.43,2.43,2.60,2.40,0.09,0.09,0.09
46.13,-2.28,-2.37,-2.29,-2.37,2.37,2.55,2.35,0.09,0.09,0.09
46.60,-2.23,-2.32,-2.23,-2.32,2.32,2.50,2.29,0.08,0.08,0.08
47.06,-2.18,-2.26,-2.18,-2.26,2.26,2.45,2.24,0.08,0.08,0.08
47.53,-2.13,-2.20,-2.14,-2.21,2.21,2.40,2.19,0.08,0.07,0.07
48.01,-2.09,-2.16,-2.09,-2.16,2.16,2.35,2.14,0.06,0.06,0.06
48.49,-2.05,-2.11,-2.05,-2.11,2.11,2.30,2.09,0.05,0.06,0.06
48.97,-2.01,-2.06,-2.01,-2.06,2.06,2.26,2.04,0.05,0.05,0.05
49.46,-1.97,-2.02,-1.97,-2.02,2.01,2.21,2.00,0.04,0.04,0.04
49.96,-1.93,-1.97,-1.93,-1.97,1.97,2.16,1.95,0.03,0.04,0.04
50.46,-1.89,-1.92,-1.89,-1.92,1.92,2.11,1.91,0.03,0.03,0.03
50.96,-1.85,-1.87,-1.86,-1.88,1.88,2.07,1.87,0.03,0.02,0.02
51.47,-1.82,-1.84,-1.82,-1.84,1.84,2.02,1.83,0.01,0.01,0.01
51.99,-1.79,-1.80,-1.79,-1.80,1.80,1.97,1.79,0.00,0.00,0.00
52.51,-1.76,-1.76,-1.76,-1.76,1.75,1.93,1.75,-0.01,-0.01,-0.01
53.03,-1.73,-1.72,-1.73,-1.72,1.71,1.88,1.72,-0.02,-0.01,-0.01
53.56,-1.69,-1.67,-1.70,-1.67,1.67,1.84,1.68,-0.02,-0.02,-0.02
54.10,-1.66,-1.63,-1.67,-1.64,1.63,1.79,1.64,-0.03,-0.03,-0.03
54.64,-1.64,-1.60,-1.64,-1.59,1.60,1.75,1.61,-0.05,-0.04,-0.04
55.18,-1.61,-1.56,-1.61,-1.56,1.55,1.70,1.57,-0.06,-0.06,-0.05
55.74,-1.57,-1.51,-1.58,-1.52,1.51,1.66,1.54,-0.06,-0.07,-0.06
56.29,-1.55,-1.48,-1.55,-1.47,1.48,1.61,1.50,-0.08,-0.08,-0.08
56.86,-1.52,-1.44,-1.52,-1.43,1.44,1.57,1.47,-0.09,-0.08,-0.09
57.42,-1.49,-1.39,-1.50,-1.40,1.40,1.52,1.43,-0.09,-0.10,-0.10
58.00,-1.46,-1.36,-1.46,-1.36,1.36,1.48,1.40,-0.10,-0.10,-0.10
58.58,-1.44,-1.33,-1.44,-1.32,1.32,1.43,1.36,-0.12,-0.11,-0.11
59.16,-1.40,-1.28,-1.41,-1.29,1.29,1.39,1.32,-0.12,-0.13,-0.13
59.76,-1.39,-1.25,-1.39,-1.25,1.25,1.35,1.28,-0.14,-0.14,-0.14
60.35,-1.36,-1.22,-1.37,-1.22,1.21,1.30,1.25,-0.15,-0.15,-0.15
60.96,-1.34,-1.18,-1.34,-1.18,1.18,1.26,1.21,-0.17,-0.17,-0.16
61.57,-1.31,-1.14,-1.31,-1.14,1.14,1.22,1.17,-0.17,-0.17,-0.18
62.18,-1.28,-1.09,-1.29,-1.10,1.10,1.18,1.13,-0.18,-0.19,-0.19
62.80,-1.26,-1.06,-1.26,-1.06,1.06,1.13,1.08,-0.20,-0.20,-0.21
63.43,-1.24,-1.03,-1.24,-1.03,1.03,1.09,1.04,-0.22,-0.22,-0.21
64.07,-1.22,-0.99,-1.22,-0.99,0.99,1.05,0.99,-0.24,-0.23,-0.23
64.71,-1.19,-0.95,-1.20,-0.95,0.95,1.00,0.95,-0.25,-0.25,-0.25
65.35,-1.17,-0.91,-1.17,-0.91,0.91,0.96,0.90,-0.27,-0.27,-0.27
66.01,-1.15,-0.87,-1.15,-0.87,0.87,0.92,0.85,-0.29,-0.28,-0.28
66.67,-1.12,-0.82,-1.13,-0.83,0.83,0.88,0.80,-0.30,-0.30,-0.30
67.33,-1.10,-0.78,-1.10,-0.78,0.78,0.83,0.75,-0.32,-0.32,-0.32
68.01,-1.08,-0.74,-1.08,-0.74,0.74,0.79,0.70,-0.34,-0.34,-0.34
68.69,-1.05,-0.69,-1.06,-0.70,0.70,0.75,0.65,-0.36,-0.36,-0.36
69.37,-1.04,-0.66,-1.04,-0.65,0.65,0.70,0.59,-0.39,-0.39,-0.38
70.07,-1.01,-0.61,-1.01,-0.61,0.61,0.66,0.54,-0.40,-0.40,-0.41
70.77,-0.99,-0.56,-0.99,-0.56,0.56,0.61,0.48,-0.43,-0.43,-0.43
71.48,-0.96,-0.51,-0.97,-0.52,0.52,0.57,0.43,-0.45,-0.45,-0.45
72.19,-0.95,-0.48,-0.95,-0.47,0.47,0.53,0.37,-0.48,-0.48,-0.48
72.91,-0.92,-0.42,-0.93,-0.42,0.42,0.48,0.31,-0.50,-0.51,-0.50
73.64,-0.90,-0.37,-0.90,-0.37,0.37,0.44,0.25,-0.53,-0.53,-0.53
74.38,-0.88,-0.32,-0.88,-0.32,0.32,0.39,0.19,-0.57,-0.56,-0.56
75.12,-0.84,-0.26,-0.85,-0.26,0.26,0.34,0.13,-0.58,-0.59,-0.59
75.87,-0.82,-0.20,-0.83,-0.21,0.21,0.30,0.07,-0.62,-0.62,-0.62
76.63,-0.80,-0.15,-0.80,-0.15,0.15,0.25,0.00,-0.66,-0.65,-0.65
77.40,-0.77,-0.09,-0.77,-0.09,0.08,0.20,-0.06,-0.69,-0.69,-0.69
78.17,-0.74,-0.02,-0.74,-0.02,0.02,0.16,-0.12,-0.73,-0.73,-0.73
78.95,-0.71,0.05,-0.71,0.05,-0.05,0.11,-0.19,-0.76,-0.77,-0.76
79.74,-0.68,0.12,-0.68,0.12,-0.12,0.06,-0.26,-0.80,-0.80,-0.80
80.54,-0.65,0.19,-0.65,0.19,-0.19,0.01,-0.32,-0.85,-0.84,-0.84
81.35,-0.61,0.27,-0.62,0.27,-0.27,-0.04,-0.39,-0.88,-0.88,-0.89
82.16,-0.58,0.34,-0.58,0.34,-0.34,-0.10,-0.46,-0.93,-0.93,-0.93
82.98,-0.55,0.41,-0.55,0.41,-0.42,-0.15,-0.52,-0.97,-0.97,-0.97
83.81,-0.52,0.49,-0.52,0.49,-0.49,-0.20,-0.59,-1.02,-1.02,-1.01
84.65,-0.49,0.57,-0.49,0.57,-0.57,-0.26,-0.66,-1.06,-1.06,-1.06
85.50,-0.45,0.65,-0.46,0.65,-0.64,-0.31,-0.74,-1.10,-1.10,-1.11
86.35,-0.42,0.72,-0.42,0.72,-0.72,-0.37,-0.81,-1.14,-1.14,-1.14
87.22,-0.39,0.79,-0.39,0.79,-0.79,-0.43,-0.88,-1.19,-1.19,-1.19
88.09,-0.36,0.87,-0.36,0.87,-0.87,-0.49,-0.95,-1.23,-1.23,-1.23
88.97,-0.33,0.94,-0.33,0.94,-0.94,-0.55,-1.03,-1.28,-1.28,-1.28
89.86,-0.30,1.02,-0.30,1.01,-1.01,-0.61,-1.10,-1.32,-1.32,-1.32
90.76,-0.27,1.08,-0.27,1.09,-1.09,-0.68,-1.18,-1.36,-1.36,-1.36
91.66,-0.24,1.16,-0.25,1.16,-1.16,-0.74,-1.25,-1.40,-1.40,-1.40
92.58,-0.21,1.23,-0.22,1.23,-1.23,-0.81,-1.33,-1.44,-1.44,-1.44
93.51,-0.19,1.29,-0.19,1.30,-1.30,-0.87,-1.41,-1.49,-1.48,-1.49
94.44,-0.15,1.37,-0.16,1.37,-1.37,-0.94,-1.49,-1.52,-1.53,-1.53
95.39,-0.13,1.44,-0.14,1.44,-1.43,-1.01,-1.57,-1.57,-1.57,-1.57
96.34,-0.11,1.50,-0.11,1.50,-1.50,-1.09,-1.65,-1.62,-1.61,-1.61
97.30,-0.09,1.57,-0.09,1.57,-1.57,-1.16,-1.73,-1.66,-1.66,-1.66
98.28,-0.06,1.63,-0.07,1.63,-1.64,-1.24,-1.81,-1.70,-1.71,-1.70
99.26,-0.04,1.70,-0.04,1.70,-1.71,-1.31,-1.89,-1.75,-1.75,-1.75
100.25,-0.02,1.77,-0.02,1.77,-1.77,-1.39,-1.97,-1.80,-1.80,-1.80
101.25,-0.00,1.84,-0.00,1.84,-1.84,-1.47,-2.05,-1.84,-1.84,-1.85
102.27,0.02,1.91,0.01,1.91,-1.91,-1.55,-2.13,-1.89,-1.89,-1.90
103.29,0.03,1.97,0.03,1.98,-1.97,-1.63,-2.21,-1.95,-1.94,-1.94
104.32,0.05,2.04,0.04,2.04,-2.04,-1.72,-2.29,-1.99,-1.99,-1.99
105.37,0.06,2.10,0.05,2.10,-2.10,-1.80,-2.37,-2.04,-2.05,-2.04
106.42,0.06,2.15,0.06,2.16,-2.16,-1.89,-2.45,-2.10,-2.10,-2.09
107.48,0.08,2.22,0.07,2.22,-2.22,-1.97,-2.52,-2.14,-2.14,-2.14
108.56,0.09,2.28,0.09,2.28,-2.28,-2.06,-2.60,-2.19,-2.19,-2.19
109.64,0.10,2.34,0.09,2.33,-2.33,-2.15,-2.67,-2.24,-2.24,-2.24
110.74,0.10,2.39,0.10,2.39,-2.39,-2.23,-2.74,-2.29,-2.29,-2.29
111.85,0.10,2.43,0.10,2.44,-2.44,-2.32,-2.80,-2.34,-2.34,-2.34
112.97,0.11,2.49,0.10,2.49,-2.49,-2.40,-2.86,-2.39,-2.39,-2.39
114.10,0.10,2.53,0.10,2.54,-2.54,-2.48,-2.92,-2.44,-2.44,-2.44
115.24,0.11,2.59,0.10,2.59,-2.59,-2.56,-2.98,-2.48,-2.48,-2.48
116.39,0.11,2.64,0.10,2.63,-2.63,-2.64,-3.03,-2.53,-2.53,-2.53
117.55,0.10,2.68,0.10,2.68,-2.67,-2.72,-3.07,-2.58,-2.58,-2.58
118.73,0.09,2.71,0.09,2.72,-2.71,-2.79,-3.11,-2.63,-2.62,-2.63
119.92,0.09,2.75,0.08,2.75,-2.75,-2.86,-3.15,-2.66,-2.67,-2.66
121.12,0.08,2.79,0.07,2.78,-2.78,-2.92,-3.17,-2.71,-2.71,-2.71
122.33,0.06,2.80,0.06,2.81,-2.81,-2.98,-3.20,-2.76,-2.75,-2.75
123.55,0.05,2.84,0.05,2.84,-2.84,-3.03,-3.21,-2.79,-2.79,-2.79
124.79,0.04,2.86,0.03,2.86,-2.86,-3.07,-3.23,-2.83,-2.83,-2.83
126.03,0.02,2.89,0.02,2.89,-2.89,-3.11,-3.23,-2.87,-2.87,-2.87
127.29,-0.00,2.90,-0.00,2.91,-2.91,-3.14,-3.23,-2.91,-2.91,-2.91
128.57,-0.02,2.92,-0.02,2.93,-2.93,-3.17,-3.22,-2.95,-2.95,-2.94
129.85,-0.03,2.95,-0.04,2.94,-2.94,-3.19,-3.21,-2.98,-2.98,-2.99
131.15,-0.06,2.96,-0.06,2.96,-2.95,-3.19,-3.19,-3.02,-3.02,-3.02
132.46,-0.09,2.96,-0.09,2.96,-2.96,-3.19,-3.16,-3.05,-3.05,-3.05
133.79,-0.11,2.97,-0.12,2.97,-2.97,-3.19,-3.13,-3.08,-3.08,-3.08
135.12,-0.14,2.97,-0.15,2.97,-2.97,-3.17,-3.10,-3.11,-3.11,-3.11
136.48,-0.18,2.96,-0.18,2.96,-2.96,-3.15,-3.06,-3.15,-3.14,-3.15
137.84,-0.21,2.95,-0.21,2.96,-2.96,-3.12,-3.02,-3.17,-3.17,-3.17
139.22,-0.24,2.95,-0.25,2.95,-2.95,-3.09,-2.97,-3.19,-3.20,-3.20
140.61,-0.28,2.94,-0.28,2.94,-2.94,-3.05,-2.92,-3.22,-3.22,-3.22
142.02,-0.31,2.93,-0.32,2.93,-2.93,-3.00,-2.87,-3.24,-3.25,-3.24
143.44,-0.35,2.91,-0.35,2.91,-2.91,-2.95,-2.81,-3.27,-3.27,-3.26
144.87,-0.39,2.89,-0.39,2.89,-2.90,-2.89,-2.75,-3.29,-3.29,-3.29
146.32,-0.42,2.88,-0.43,2.88,-2.87,-2.83,-2.69,-3.30,-3.30,-3.31
147.78,-0.47,2.85,-0.47,2.85,-2.85,-2.77,-2.63,-3.32,-3.32,-3.32
149.26,-0.51,2.83,-0.52,2.83,-2.82,-2.70,-2.57,-3.34,-3.34,-3.35
150.75,-0.57,2.79,-0.57,2.79,-2.79,-2.63,-2.50,-3.36,-3.36,-3.36
152.26,-0.62,2.75,-0.62,2.76,-2.76,-2.56,-2.44,-3.38,-3.38,-3.38
153.78,-0.67,2.72,-0.67,2.72,-2.72,-2.49,-2.37,-3.39,-3.39,-3.39
155.32,-0.72,2.68,-0.73,2.68,-2.68,-2.42,-2.31,-3.40,-3.40,-3.40
156.88,-0.78,2.63,-0.78,2.63,-2.63,-2.35,-2.24,-3.42,-3.42,-3.42
158.44,-0.84,2.58,-0.84,2.59,-2.59,-2.27,-2.18,-3.43,-3.43,-3.43
160.03,-0.89,2.55,-0.90,2.54,-2.54,-2.20,-2.12,-3.44,-3.44,-3.44
161.63,-0.95,2.50,-0.95,2.50,-2.49,-2.13,-2.05,-3.45,-3.45,-3.45
163.24,-1.01,2.45,-1.01,2.45,-2.45,-2.06,-1.99,-3.46,-3.46,-3.46
164.88,-1.07,2.40,-1.07,2.40,-2.40,-1.99,-1.93,-3.47,-3.47,-3.47
166.53,-1.13,2.35,-1.13,2.34,-2.35,-1.92,-1.87,-3.48,-3.48,-3.48
168.19,-1.19,2.29,-1.19,2.30,-2.30,-1.85,-1.81,-3.49,-3.49,-3.49
169.87,-1.25,2.24,-1.25,2.25,-2.25,-1.78,-1.75,-3.50,-3.50,-3.50
171.57,-1.31,2.20,-1.31,2.20,-2.20,-1.72,-1.69,-3.51,-3.51,-3.51
173.29,-1.37,2.15,-1.37,2.15,-2.15,-1.65,-1.63,-3.52,-3.52,-3.52
175.02,-1.42,2.10,-1.43,2.10,-2.10,-1.59,-1.58,-3.53,-3.53,-3.53
176.77,-1.48,2.06,-1.48,2.06,-2.06,-1.53,-1.53,-3.54,-3.54,-3.54
178.54,-1.53,2.02,-1.53,2.02,-2.02,-1.47,-1.47,-3.55,-3.55,-3.55
180.32,-1.58,1.98,-1.59,1.98,-1.98,-1.41,-1.42,-3.56,-3.57,-3.56
182.13,-1.63,1.95,-1.63,1.94,-1.95,-1.36,-1.37,-3.58,-3.58,-3.58
183.95,-1.68,1.91,-1.68,1.92,-1.92,-1.30,-1.32,-3.60,-3.59,-3.59
185.79,-1.71,1.89,-1.72,1.89,-1.89,-1.25,-1.27,-3.60,-3.61,-3.61
187.65,-1.75,1.87,-1.76,1.86,-1.87,-1.20,-1.23,-3.62,-3.62,-3.62
189.52,-1.79,1.84,-1.79,1.85,-1.85,-1.15,-1.18,-3.64,-3.63,-3.63
191.42,-1.81,1.83,-1.81,1.83,-1.83,-1.10,-1.14,-3.65,-3.65,-3.65
193.33,-1.83,1.82,-1.84,1.82,-1.82,-1.05,-1.09,-3.65,-3.66,-3.66
195.27,-1.86,1.81,-1.86,1.81,-1.81,-1.01,-1.05,-3.67,-3.67,-3.67
197.22,-1.89,1.80,-1.89,1.80,-1.80,-0.96,-1.01,-3.69,-3.69,-3.69
199.19,-1.91,1.79,-1.91,1.79,-1.79,-0.92,-0.97,-3.71,-3.71,-3.70
201.18,-1.92,1.80,-1.93,1.79,-1.79,-0.88,-0.93,-3.71,-3.72,-3.72
203.19,-1.96,1.77,-1.96,1.78,-1.78,-0.84,-0.89,-3.74,-3.73,-3.73
205.23,-1.98,1.77,-1.98,1.77,-1.77,-0.80,-0.86,-3.75,-3.75,-3.75
207.28,-2.00,1.76,-2.01,1.75,-1.75,-0.76,-0.82,-3.76,-3.77,-3.76
209.35,-2.04,1.74,-2.04,1.74,-1.74,-0.72,-0.79,-3.78,-3.78,-3.78
211.44,-2.07,1.73,-2.07,1.72,-1.72,-0.69,-0.75,-3.79,-3.79,-3.80
213.56,-2.11,1.70,-2.12,1.69,-1.69,-0.65,-0.72,-3.81,-3.81,-3.81
215.69,-2.16,1.66,-2.16,1.66,-1.66,-0.62,-0.68,-3.83,-3.83,-3.83
217.85,-2.21,1.62,-2.21,1.63,-1.63,-0.58,-0.65,-3.84,-3.84,-3.84
220.03,-2.26,1.59,-2.26,1.59,-1.59,-0.55,-0.62,-3.85,-3.85,-3.85
222.23,-2.31,1.55,-2.32,1.54,-1.54,-0.51,-0.59,-3.86,-3.86,-3.86
224.45,-2.37,1.49,-2.38,1.49,-1.49,-0.48,-0.56,-3.86,-3.87,-3.87
226.70,-2.44,1.43,-2.44,1.44,-1.43,-0.45,-0.53,-3.88,-3.87,-3.87
228.96,-2.50,1.38,-2.51,1.38,-1.37,-0.42,-0.50,-3.88,-3.88,-3.88
231.25,-2.57,1.31,-2.57,1.31,-1.31,-0.39,-0.48,-3.88,-3.88,-3.89
233.57,-2.64,1.24,-2.65,1.24,-1.24,-0.36,-0.45,-3.88,-3.89,-3.88
235.90,-2.72,1.17,-2.72,1.17,-1.17,-0.33,-0.42,-3.89,-3.89,-3.89
238.26,-2.79,1.09,-2.79,1.09,-1.09,-0.30,-0.40,-3.89,-3.89,-3.89
240.64,-2.87,1.01,-2.87,1.01,-1.01,-0.27,-0.37,-3.89,-3.89,-3.88
243.05,-2.94,0.94,-2.95,0.93,-0.93,-0.24,-0.35,-3.88,-3.88,-3.89
245.48,-3.03,0.85,-3.03,0.85,-0.85,-0.21,-0.32,-3.89,-3.88,-3.88
247.93,-3.10,0.77,-3.10,0.77,-0.77,-0.18,-0.30,-3.87,-3.88,-3.88
250.41,-3.18,0.69,-3.19,0.69,-0.69,-0.15,-0.28,-3.87,-3.87,-3.87
252.92,-3.26,0.61,-3.27,0.60,-0.61,-0.11,-0.25,-3.87,-3.87,-3.88
255.45,-3.35,0.52,-3.35,0.52,-0.52,-0.08,-0.23,-3.88,-3.87,-3.87
258.00,-3.43,0.43,-3.43,0.44,-0.44,-0.05,-0.21,-3.87,-3.87,-3.86
260.58,-3.50,0.36,-3.51,0.36,-0.36,-0.02,-0.19,-3.86,-3.87,-3.87
263.19,-3.59,0.28,-3.59,0.28,-0.28,0.01,-0.17,-3.87,-3.87,-3.87
265.82,-3.67,0.19,-3.67,0.20,-0.20,0.04,-0.15,-3.87,-3.87,-3.87
268.48,-3.75,0.12,-3.76,0.12,-0.12,0.08,-0.12,-3.87,-3.87,-3.87
271.16,-3.83,0.04,-3.84,0.03,-0.03,0.11,-0.10,-3.87,-3.87,-3.87
273.87,-3.92,-0.05,-3.92,-0.05,0.05,0.15,-0.08,-3.88,-3.87,-3.88
276.61,-4.00,-0.13,-4.00,-0.13,0.13,0.18,-0.06,-3.87,-3.87,-3.87
279.38,-4.08,-0.21,-4.09,-0.21,0.21,0.22,-0.04,-3.87,-3.87,-3.87
282.17,-4.16,-0.29,-4.17,-0.30,0.29,0.26,-0.02,-3.87,-3.87,-3.88
284.99,-4.25,-0.38,-4.25,-0.38,0.38,0.30,-0.00,-3.88,-3.87,-3.87
287.84,-4.33,-0.46,-4.33,-0.46,0.46,0.34,0.02,-3.87,-3.87,-3.87
290.72,-4.40,-0.54,-4.41,-0.55,0.54,0.38,0.04,-3.86,-3.87,-3.86
293.63,-4.49,-0.63,-4.49,-0.63,0.63,0.42,0.06,-3.87,-3.86,-3.87
296.57,-4.57,-0.71,-4.57,-0.71,0.71,0.47,0.08,-3.86,-3.86,-3.86
299.53,-4.65,-0.79,-4.66,-0.80,0.80,0.52,0.10,-3.86,-3.86,-3.86
302.53,-4.73,-0.88,-4.73,-0.88,0.88,0.57,0.12,-3.85,-3.85,-3.85
305.55,-4.81,-0.97,-4.81,-0.96,0.97,0.62,0.14,-3.85,-3.84,-3.85
308.61,-4.88,-1.05,-4.89,-1.05,1.05,0.67,0.16,-3.83,-3.84,-3.84
311.69,-4.96,-1.13,-4.97,-1.13,1.14,0.73,0.18,-3.83,-3.83,-3.83
314.81,-5.04,-1.22,-5.04,-1.22,1.22,0.79,0.20,-3.82,-3.82,-3.82
317.96,-5.12,-1.31,-5.12,-1.31,1.30,0.85,0.23,-3.82,-3.82,-3.81
321.14,-5.19,-1.39,-5.19,-1.39,1.39,0.92,0.25,-3.81,-3.81,-3.81
324.35,-5.26,-1.47,-5.26,-1.47,1.47,0.98,0.27,-3.80,-3.80,-3.80
327.59,-5.33,-1.54,-5.33,-1.54,1.54,1.06,0.29,-3.79,-3.79,-3.79
330.87,-5.40,-1.61,-5.40,-1.62,1.62,1.13,0.32,-3.79,-3.79,-3.79
334.18,-5.47,-1.69,-5.47,-1.69,1.69,1.21,0.34,-3.79,-3.78,-3.78
337.52,-5.53,-1.75,-5.53,-1.75,1.75,1.29,0.36,-3.78,-3.78,-3.78
340.90,-5.59,-1.82,-5.60,-1.82,1.82,1.37,0.39,-3.78,-3.78,-3.78
344.30,-5.65,-1.88,-5.65,-1.88,1.88,1.46,0.41,-3.78,-3.78,-3.78
347.75,-5.71,-1.94,-5.71,-1.94,1.93,1.55,0.44,-3.78,-3.78,-3.78
351.23,-5.76,-1.98,-5.77,-1.99,1.98,1.64,0.47,-3.78,-3.78,-3.78
354.74,-5.82,-2.04,-5.82,-2.03,2.03,1.73,0.49,-3.79,-3.79,-3.78
358.28,-5.86,-2.07,-5.86,-2.08,2.08,1.82,0.52,-3.79,-3.79,-3.79
361.87,-5.90,-2.11,-5.91,-2.11,2.12,1.91,0.55,-3.79,-3.79,-3.79
365.49,-5.94,-2.15,-5.94,-2.15,2.15,2.01,0.57,-3.79,-3.79,-3.79
369.14,-5.98,-2.19,-5.98,-2.18,2.18,2.10,0.60,-3.80,-3.79,-3.80
372.83,-6.00,-2.21,-6.01,-2.21,2.21,2.18,0.63,-3.79,-3.80,-3.80
376.56,-6.02,-2.24,-6.03,-2.23,2.23,2.27,0.66,-3.79,-3.79,-3.79
380.33,-6.04,-2.26,-6.04,-2.25,2.25,2.34,0.69,-3.79,-3.79,-3.79
384.13,-6.05,-2.26,-6.05,-2.27,2.27,2.41,0.72,-3.78,-3.79,-3.79
387.97,-6.06,-2.28,-6.06,-2.28,2.28,2.47,0.75,-3.78,-3.78,-3.78
391.85,-6.06,-2.28,-6.06,-2.29,2.29,2.51,0.78,-3.78,-3.78,-3.78
395.77,-6.06,-2.29,-6.06,-2.29,2.29,2.55,0.81,-3.77,-3.77,-3.77
399.73,-6.05,-2.29,-6.06,-2.29,2.29,2.57,0.84,-3.76,-3.77,-3.76
403.72,-6.04,-2.28,-6.05,-2.29,2.28,2.58,0.87,-3.76,-3.76,-3.76
407.76,-6.03,-2.28,-6.03,-2.28,2.27,2.57,0.90,-3.76,-3.75,-3.75
411.84,-6.00,-2.26,-6.01,-2.26,2.26,2.55,0.93,-3.75,-3.75,-3.74
415.96,-5.97,-2.24,-5.98,-2.24,2.24,2.51,0.95,-3.74,-3.74,-3.73
420.12,-5.94,-2.21,-5.94,-2.21,2.21,2.46,0.98,-3.73,-3.73,-3.74
424.32,-5.90,-2.18,-5.91,-2.18,2.18,2.40,1.01,-3.73,-3.73,-3.73
428.56,-5.86,-2.15,-5.86,-2.15,2.14,2.33,1.03,-3.72,-3.72,-3.72
432.85,-5.81,-2.11,-5.81,-2.10,2.10,2.25,1.06,-3.71,-3.71,-3.71
437.18,-5.75,-2.06,-5.75,-2.05,2.06,2.16,1.08,-3.70,-3.70,-3.70
441.55,-5.68,-2.00,-5.69,-2.00,2.01,2.06,1.10,-3.68,-3.68,-3.69
445.96,-5.62,-1.95,-5.63,-1.95,1.95,1.96,1.12,-3.67,-3.67,-3.68
450.42,-5.56,-1.89,-5.56,-1.89,1.90,1.86,1.14,-3.67,-3.67,-3.67
454.93,-5.50,-1.84,-5.50,-1.84,1.84,1.75,1.16,-3.67,-3.66,-3.66
459.48,-5.42,-1.77,-5.42,-1.77,1.77,1.65,1.17,-3.65,-3.65,-3.65
