frequency,raw,error,smoothed,error_smoothed,equalization,parametric_eq,fixed_band_eq,equalized_raw,equalized_smoothed,target
20.00,14.02,7.55,14.01,7.55,-7.55,-7.27,-2.31,6.46,6.46,6.46
20.20,13.97,7.50,13.97,7.50,-7.50,-7.23,-2.37,6.46,6.47,6.46
20.40,13.92,7.45,13.92,7.45,-7.45,-7.20,-2.44,6.48,6.47,6.47
20.61,13.88,7.39,13.88,7.40,-7.40,-7.16,-2.51,6.48,6.48,6.48
20.81,13.82,7.34,13.83,7.34,-7.34,-7.11,-2.58,6.48,6.49,6.48
21.02,13.79,7.29,13.78,7.29,-7.29,-7.06,-2.65,6.50,6.49,6.49
21.23,13.74,7.24,13.73,7.24,-7.24,-7.01,-2.73,6.50,6.50,6.49
21.44,13.68,7.18,13.69,7.18,-7.18,-6.96,-2.81,6.50,6.50,6.50
21.66,13.64,7.12,13.64,7.13,-7.13,-6.91,-2.89,6.51,6.51,6.51
21.87,13.59,7.08,13.59,7.07,-7.08,-6.85,-2.97,6.52,6.51,6.51
22.09,13.54,7.02,13.55,7.02,-7.02,-6.79,-3.05,6.52,6.52,6.52
22.31,13.49,6.96,13.50,6.97,-6.97,-6.73,-3.14,6.53,6.53,6.53
22.54,13.46,6.92,13.45,6.91,-6.91,-6.67,-3.23,6.54,6.54,6.53
22.76,13.40,6.86,13.40,6.86,-6.86,-6.61,-3.32,6.55,6.55,6.54
22.99,13.36,6.80,13.36,6.80,-6.80,-6.54,-3.41,6.55,6.55,6.55
23.22,13.31,6.74,13.30,6.74,-6.74,-6.48,-3.51,6.56,6.56,6.56
23.45,13.26,6.68,13.26,6.68,-6.69,-6.41,-3.61,6.57,6.57,6.57
23.69,13.21,6.62,13.21,6.63,-6.63,-6.34,-3.71,6.58,6.58,6.58
23.92,13.16,6.57,13.16,6.57,-6.56,-6.28,-3.81,6.60,6.60,6.59
24.16,13.11,6.51,13.11,6.51,-6.50,-6.21,-3.91,6.61,6.61,6.60
24.40,13.05,6.44,13.06,6.44,-6.44,-6.14,-4.01,6.61,6.62,6.61
24.65,13.01,6.37,13.01,6.37,-6.38,-6.07,-4.12,6.63,6.63,6.63
24.89,12.95,6.31,12.95,6.31,-6.32,-6.00,-4.23,6.64,6.64,6.64
25.14,12.90,6.25,12.90,6.25,-6.25,-5.94,-4.34,6.65,6.65,6.65
25.39,12.85,6.19,12.85,6.19,-6.19,-5.87,-4.45,6.66,6.66,6.66
25.65,12.81,6.13,12.81,6.13,-6.13,-5.80,-4.56,6.68,6.68,6.67
25.91,12.76,6.06,12.76,6.06,-6.06,-5.74,-4.67,6.69,6.69,6.69
26.16,12.70,6.00,12.70,6.00,-6.00,-5.67,-4.78,6.70,6.70,6.70
26.43,12.65,5.93,12.65,5.93,-5.93,-5.61,-4.89,6.71,6.72,6.71
26.69,12.60,5.87,12.60,5.87,-5.87,-5.54,-4.99,6.73,6.73,6.72
26.96,12.55,5.80,12.54,5.80,-5.80,-5.48,-5.10,6.75,6.74,6.74
27.23,12.49,5.73,12.49,5.73,-5.73,-5.42,-5.21,6.75,6.76,6.75
27.50,12.44,5.66,12.43,5.66,-5.66,-5.36,-5.31,6.77,6.77,6.77
27.77,12.37,5.59,12.38,5.59,-5.59,-5.30,-5.41,6.78,6.78,6.78
28.05,12.33,5.52,12.33,5.52,-5.53,-5.24,-5.50,6.80,6.80,6.80
28.33,12.27,5.46,12.27,5.46,-5.46,-5.18,-5.59,6.82,6.81,6.81
28.62,12.22,5.38,12.22,5.39,-5.39,-5.12,-5.68,6.82,6.83,6.83
28.90,12.17,5.32,12.17,5.32,-5.32,-5.07,-5.76,6.84,6.84,6.84
29.19,12.12,5.25,12.11,5.25,-5.25,-5.01,-5.84,6.86,6.86,6.86
29.48,12.05,5.18,12.06,5.19,-5.18,-4.96,-5.91,6.87,6.88,6.87
29.78,12.01,5.11,12.00,5.11,-5.10,-4.91,-5.97,6.90,6.90,6.89
30.08,11.95,5.04,11.94,5.03,-5.02,-4.86,-6.02,6.93,6.92,6.90
30.38,11.86,4.93,11.86,4.94,-4.93,-4.81,-6.07,6.93,6.93,6.92
30.68,11.78,4.84,11.78,4.84,-4.84,-4.76,-6.11,6.94,6.94,6.93
30.99,11.69,4.73,11.69,4.74,-4.74,-4.72,-6.14,6.95,6.95,6.95
31.30,11.61,4.64,11.61,4.64,-4.65,-4.68,-6.17,6.96,6.96,6.96
31.61,11.53,4.54,11.52,4.54,-4.55,-4.63,-6.18,6.97,6.97,6.98
31.93,11.45,4.45,11.45,4.45,-4.46,-4.59,-6.19,6.99,6.99,6.99
32.24,11.37,4.36,11.38,4.37,-4.37,-4.55,-6.19,7.00,7.01,7.01
32.57,11.32,4.29,11.31,4.29,-4.29,-4.52,-6.18,7.03,7.02,7.02
32.89,11.25,4.21,11.25,4.21,-4.21,-4.48,-6.17,7.04,7.04,7.04
33.22,11.20,4.14,11.20,4.14,-4.14,-4.45,-6.15,7.06,7.06,7.05
33.55,11.14,4.07,11.14,4.07,-4.07,-4.41,-6.12,7.08,7.08,7.07
33.89,11.09,4.00,11.09,4.00,-4.00,-4.38,-6.08,7.09,7.09,7.08
34.23,11.04,3.93,11.03,3.93,-3.93,-4.35,-6.05,7.10,7.10,7.10
34.57,10.99,3.87,10.98,3.87,-3.87,-4.33,-6.00,7.12,7.12,7.11
34.92,10.94,3.81,10.94,3.81,-3.81,-4.30,-5.96,7.13,7.13,7.12
35.27,10.90,3.75,10.89,3.75,-3.75,-4.28,-5.91,7.14,7.14,7.14
35.62,10.86,3.70,10.85,3.70,-3.71,-4.25,-5.85,7.15,7.15,7.15
35.97,10.82,3.65,10.82,3.66,-3.66,-4.23,-5.80,7.15,7.16,7.16
36.33,10.81,3.63,10.80,3.63,-3.63,-4.21,-5.74,7.18,7.17,7.17
36.70,10.79,3.60,10.79,3.60,-3.60,-4.20,-5.69,7.19,7.19,7.18
37.06,10.78,3.58,10.78,3.58,-3.58,-4.18,-5.63,7.20,7.20,7.19
37.43,10.78,3.57,10.77,3.57,-3.57,-4.17,-5.57,7.21,7.20,7.20
37.81,10.78,3.56,10.78,3.57,-3.57,-4.16,-5.52,7.21,7.21,7.21
38.19,10.80,3.57,10.80,3.57,-3.58,-4.15,-5.46,7.22,7.22,7.22
38.57,10.83,3.59,10.82,3.59,-3.59,-4.14,-5.41,7.23,7.23,7.23
38.95,10.86,3.61,10.86,3.62,-3.62,-4.13,-5.36,7.24,7.25,7.24
39.34,10.91,3.65,10.90,3.65,-3.65,-4.13,-5.31,7.26,7.25,7.25
39.74,10.96,3.69,10.95,3.69,-3.69,-4.13,-5.26,7.26,7.26,7.26
40.14,11.00,3.74,11.01,3.74,-3.74,-4.13,-5.22,7.26,7.27,7.26
40.54,11.07,3.80,11.07,3.80,-3.80,-4.13,-5.17,7.27,7.27,7.27
40.94,11.15,3.86,11.15,3.87,-3.87,-4.14,-5.13,7.28,7.28,7.28
41.35,11.24,3.94,11.23,3.94,-3.94,-4.14,-5.10,7.29,7.29,7.29
41.76,11.33,4.02,11.33,4.02,-4.03,-4.15,-5.07,7.30,7.30,7.30
42.18,11.43,4.11,11.43,4.11,-4.12,-4.17,-5.04,7.31,7.31,7.31
42.60,11.54,4.21,11.54,4.21,-4.21,-4.18,-5.01,7.32,7.32,7.32
43.03,11.65,4.31,11.65,4.32,-4.31,-4.20,-4.99,7.33,7.34,7.33
43.46,11.77,4.42,11.76,4.42,-4.41,-4.22,-4.97,7.35,7.35,7.34
43.90,11.87,4.52,11.87,4.52,-4.52,-4.25,-4.95,7.36,7.36,7.35
44.33,11.99,4.61,11.99,4.62,-4.62,-4.27,-4.94,7.37,7.37,7.37
44.78,12.09,4.71,12.10,4.71,-4.72,-4.30,-4.93,7.37,7.38,7.38
45.23,12.21,4.82,12.21,4.82,-4.82,-4.33,-4.93,7.40,7.40,7.39
45.68,12.32,4.91,12.33,4.91,-4.91,-4.36,-4.93,7.41,7.41,7.41
46.13,12.44,5.01,12.43,5.01,-5.00,-4.40,-4.93,7.44,7.43,7.42
46.60,12.52,5.08,12.53,5.09,-5.08,-4.43,-4.94,7.44,7.45,7.44
47.06,12.62,5.16,12.62,5.16,-5.16,-4.45,-4.95,7.46,7.46,7.45
47.53,12.70,5.22,12.69,5.22,-5.22,-4.48,-4.97,7.47,7.47,7.47
48.01,12.77,5.28,12.77,5.28,-5.28,-4.50,-4.98,7.49,7.49,7.48
48.49,12.83,5.32,12.83,5.33,-5.32,-4.51,-5.00,7.50,7.50,7.50
48.97,12.89,5.37,12.88,5.36,-5.36,-4.52,-5.03,7.53,7.52,7.51
49.46,12.92,5.38,12.92,5.39,-5.39,-4.53,-5.05,7.53,7.54,7.53
49.96,12.96,5.41,12.95,5.41,-5.40,-4.54,-5.08,7.55,7.55,7.54
50.46,12.97,5.41,12.97,5.41,-5.41,-4.55,-5.12,7.56,7.56,7.55
50.96,12.98,5.40,12.98,5.41,-5.41,-4.57,-5.15,7.57,7.57,7.57
51.47,12.98,5.39,12.98,5.39,-5.40,-4.58,-5.19,7.58,7.58,7.58
51.99,12.98,5.38,12.98,5.38,-5.38,-4.60,-5.22,7.59,7.59,7.59
52.51,12.97,5.36,12.97,5.36,-5.36,-4.62,-5.26,7.61,7.61,7.60
53.03,12.96,5.34,12.95,5.33,-5.33,-4.65,-5.31,7.63,7.62,7.61
53.56,12.93,5.29,12.93,5.30,-5.29,-4.67,-5.35,7.63,7.63,7.63
54.10,12.90,5.25,12.90,5.26,-5.25,-4.71,-5.39,7.64,7.65,7.64
54.64,12.87,5.21,12.86,5.21,-5.21,-4.74,-5.44,7.66,7.65,7.65
55.18,12.83,5.17,12.82,5.16,-5.16,-4.78,-5.48,7.66,7.66,7.65
55.74,12.78,5.11,12.78,5.11,-5.12,-4.82,-5.52,7.66,7.66,7.66
56.29,12.74,5.06,12.74,5.06,-5.07,-4.86,-5.56,7.66,7.66,7.67
56.86,12.70,5.02,12.70,5.02,-5.03,-4.90,-5.61,7.67,7.67,7.67
57.42,12.67,4.98,12.66,4.98,-4.98,-4.95,-5.65,7.68,7.68,7.68
58.00,12.64,4.95,12.63,4.95,-4.94,-5.00,-5.68,7.69,7.69,7.68
58.58,12.61,4.91,12.60,4.91,-4.91,-5.05,-5.72,7.70,7.70,7.69
59.16,12.58,4.88,12.58,4.88,-4.88,-5.10,-5.75,7.70,7.70,7.69
59.76,12.56,4.86,12.55,4.86,-4.86,-5.16,-5.78,7.70,7.69,7.69
60.35,12.54,4.84,12.53,4.84,-4.84,-5.21,-5.81,7.69,7.69,7.69
60.96,12.52,4.82,12.52,4.83,-4.84,-5.27,-5.84,7.68,7.69,7.69
61.57,12.53,4.83,12.53,4.83,-4.84,-5.33,-5.86,7.68,7.69,7.69
62.18,12.55,4.85,12.54,4.85,-4.86,-5.39,-5.87,7.69,7.69,7.69
62.80,12.58,4.88,12.57,4.88,-4.88,-5.46,-5.89,7.70,7.69,7.69
63.43,12.61,4.91,12.60,4.91,-4.91,-5.52,-5.90,7.69,7.69,7.69
64.07,12.65,4.96,12.65,4.96,-4.96,-5.59,-5.91,7.69,7.69,7.68
64.71,12.70,5.01,12.70,5.01,-5.01,-5.65,-5.91,7.68,7.69,7.68
65.35,12.77,5.08,12.76,5.08,-5.07,-5.72,-5.91,7.69,7.69,7.68
66.01,12.83,5.14,12.83,5.14,-5.14,-5.79,-5.91,7.68,7.68,7.68
66.67,12.90,5.21,12.90,5.21,-5.22,-5.86,-5.91,7.68,7.68,7.68
67.33,12.98,5.29,12.98,5.29,-5.30,-5.93,-5.90,7.67,7.67,7.68
68.01,13.07,5.39,13.07,5.39,-5.39,-6.00,-5.89,7.67,7.67,7.67
68.69,13.17,5.49,13.17,5.49,-5.49,-6.07,-5.88,7.67,7.67,7.67
69.37,13.28,5.60,13.27,5.60,-5.59,-6.15,-5.87,7.68,7.68,7.67
70.07,13.38,5.70,13.38,5.71,-5.71,-6.22,-5.86,7.67,7.68,7.67
70.77,13.50,5.82,13.49,5.82,-5.82,-6.29,-5.84,7.67,7.67,7.67
71.48,13.61,5.94,13.61,5.94,-5.94,-6.37,-5.83,7.67,7.67,7.67
72.19,13.74,6.06,13.74,6.06,-6.06,-6.44,-5.82,7.67,7.67,7.67
72.91,13.87,6.18,13.87,6.19,-6.19,-6.52,-5.81,7.68,7.68,7.68
73.64,14.01,6.32,14.00,6.32,-6.31,-6.59,-5.80,7.69,7.69,7.68
74.38,14.14,6.44,14.14,6.44,-6.44,-6.67,-5.79,7.69,7.69,7.69
75.12,14.27,6.57,14.27,6.57,-6.57,-6.74,-5.78,7.70,7.70,7.69
75.87,14.40,6.69,14.40,6.69,-6.69,-6.81,-5.77,7.71,7.71,7.70
76.63,14.53,6.81,14.53,6.81,-6.81,-6.89,-5.77,7.71,7.72,7.71
77.40,14.66,6.93,14.65,6.93,-6.93,-6.96,-5.77,7.72,7.72,7.72
78.17,14.79,7.05,14.78,7.05,-7.05,-7.03,-5.77,7.74,7.73,7.73
78.95,14.90,7.15,14.91,7.16,-7.17,-7.10,-5.78,7.73,7.74,7.74
79.74,15.04,7.28,15.03,7.28,-7.28,-7.17,-5.79,7.76,7.75,7.75
80.54,15.16,7.39,15.15,7.39,-7.39,-7.24,-5.80,7.76,7.76,7.76
81.35,15.26,7.49,15.27,7.50,-7.50,-7.31,-5.81,7.77,7.77,7.77
82.16,15.39,7.60,15.39,7.60,-7.60,-7.37,-5.83,7.78,7.79,7.78
82.98,15.51,7.71,15.50,7.71,-7.70,-7.44,-5.86,7.80,7.80,7.79
83.81,15.61,7.80,15.60,7.80,-7.79,-7.50,-5.89,7.81,7.81,7.80
84.65,15.70,7.88,15.70,7.88,-7.88,-7.56,-5.92,7.82,7.82,7.81
85.50,15.78,7.95,15.78,7.96,-7.96,-7.62,-5.95,7.82,7.82,7.82
86.35,15.87,8.03,15.86,8.03,-8.03,-7.67,-6.00,7.84,7.83,7.83
87.22,15.94,8.10,15.94,8.10,-8.09,-7.73,-6.04,7.85,7.85,7.84
88.09,16.01,8.15,16.01,8.15,-8.15,-7.78,-6.09,7.86,7.86,7.85
88.97,16.08,8.20,16.07,8.20,-8.20,-7.83,-6.15,7.87,7.87,7.87
89.86,16.13,8.24,16.13,8.25,-8.25,-7.88,-6.20,7.88,7.88,7.88
90.76,16.19,8.29,16.18,8.28,-8.29,-7.92,-6.27,7.90,7.89,7.89
91.66,16.23,8.31,16.23,8.32,-8.32,-7.96,-6.34,7.90,7.91,7.91
92.58,16.27,8.34,16.27,8.35,-8.35,-8.00,-6.41,7.91,7.92,7.92
93.51,16.32,8.38,16.31,8.37,-8.38,-8.04,-6.49,7.94,7.93,7.93
94.44,16.35,8.39,16.35,8.40,-8.40,-8.07,-6.57,7.95,7.95,7.95
95.39,16.39,8.42,16.38,8.41,-8.41,-8.10,-6.65,7.97,7.97,7.96
96.34,16.41,8.42,16.40,8.42,-8.42,-8.13,-6.74,7.98,7.98,7.98
97.30,16.42,8.42,16.42,8.43,-8.42,-8.15,-6.84,7.99,8.00,7.99
98.28,16.43,8.42,16.43,8.42,-8.42,-8.18,-6.93,8.01,8.01,8.00
99.26,16.44,8.42,16.43,8.41,-8.41,-8.19,-7.03,8.03,8.02,8.01
100.25,16.43,8.39,16.42,8.39,-8.39,-8.21,-7.14,8.03,8.03,8.03
101.25,16.41,8.36,16.41,8.37,-8.37,-8.22,-7.24,8.03,8.04,8.04
102.27,16.40,8.34,16.39,8.34,-8.35,-8.23,-7.35,8.05,8.05,8.05
103.29,16.38,8.32,16.37,8.32,-8.32,-8.24,-7.46,8.06,8.06,8.05
104.32,16.36,8.29,16.35,8.29,-8.28,-8.24,-7.57,8.07,8.07,8.06
105.37,16.32,8.24,16.32,8.25,-8.25,-8.25,-7.69,8.07,8.07,8.07
106.42,16.29,8.21,16.28,8.21,-8.21,-8.25,-7.80,8.08,8.08,8.07
107.48,16.25,8.17,16.24,8.17,-8.17,-8.24,-7.91,8.08,8.08,8.07
108.56,16.21,8.13,16.20,8.13,-8.13,-8.24,-8.03,8.08,8.08,8.07
109.64,16.16,8.08,16.16,8.08,-8.09,-8.23,-8.14,8.07,8.07,8.07
110.74,16.12,8.04,16.11,8.04,-8.05,-8.21,-8.24,8.06,8.06,8.07
111.85,16.08,8.00,16.07,8.00,-8.02,-8.20,-8.34,8.06,8.05,8.07
112.97,16.04,7.97,16.04,7.98,-7.99,-8.18,-8.44,8.05,8.05,8.06
114.10,16.02,7.95,16.01,7.95,-7.96,-8.17,-8.53,8.06,8.06,8.06
115.24,16.00,7.94,15.99,7.94,-7.93,-8.14,-8.62,8.07,8.07,8.05
116.39,15.97,7.91,15.97,7.92,-7.89,-8.12,-8.70,8.07,8.07,8.05
117.55,15.94,7.89,15.93,7.88,-7.86,-8.10,-8.76,8.08,8.07,8.04
118.73,15.88,7.83,15.87,7.83,-7.82,-8.07,-8.82,8.05,8.05,8.04
119.92,15.82,7.78,15.82,7.78,-7.78,-8.04,-8.87,8.03,8.03,8.03
121.12,15.76,7.72,15.76,7.73,-7.74,-8.01,-8.91,8.01,8.02,8.03
122.33,15.73,7.69,15.72,7.69,-7.70,-7.97,-8.93,8.02,8.02,8.03
123.55,15.69,7.65,15.68,7.65,-7.66,-7.93,-8.94,8.02,8.02,8.03
124.79,15.66,7.62,15.65,7.62,-7.63,-7.90,-8.94,8.03,8.03,8.03
126.03,15.62,7.58,15.63,7.59,-7.59,-7.86,-8.92,8.03,8.04,8.03
127.29,15.61,7.57,15.60,7.57,-7.55,-7.81,-8.89,8.05,8.05,8.03
128.57,15.58,7.54,15.57,7.53,-7.52,-7.77,-8.85,8.06,8.05,8.03
129.85,15.53,7.49,15.52,7.49,-7.48,-7.72,-8.80,8.05,8.05,8.03
131.15,15.47,7.43,15.48,7.44,-7.44,-7.68,-8.73,8.02,8.03,8.03
132.46,15.44,7.40,15.43,7.39,-7.41,-7.63,-8.66,8.03,8.02,8.03
133.79,15.40,7.35,15.40,7.36,-7.37,-7.58,-8.57,8.02,8.02,8.04
135.12,15.37,7.32,15.37,7.32,-7.34,-7.52,-8.47,8.03,8.03,8.04
136.48,15.35,7.30,15.34,7.30,-7.30,-7.47,-8.37,8.04,8.04,8.04
137.84,15.32,7.27,15.32,7.28,-7.27,-7.41,-8.26,8.05,8.05,8.04
139.22,15.30,7.25,15.29,7.25,-7.23,-7.36,-8.14,8.06,8.06,8.04
140.61,15.27,7.22,15.26,7.21,-7.20,-7.30,-8.01,8.07,8.06,8.04
142.02,15.21,7.15,15.22,7.16,-7.16,-7.24,-7.88,8.04,8.05,8.05
143.44,15.18,7.12,15.17,7.12,-7.13,-7.18,-7.75,8.05,8.04,8.05
144.87,15.13,7.07,15.13,7.07,-7.09,-7.11,-7.62,8.04,8.04,8.05
146.32,15.09,7.04,15.09,7.04,-7.05,-7.05,-7.48,8.04,8.04,8.04
147.78,15.05,7.00,15.04,7.00,-7.00,-6.98,-7.34,8.04,8.04,8.04
149.26,15.01,6.96,15.00,6.96,-6.96,-6.91,-7.20,8.05,8.04,8.04
150.75,14.95,6.90,14.95,6.91,-6.91,-6.85,-7.07,8.04,8.05,8.04
152.26,14.91,6.86,14.90,6.86,-6.85,-6.78,-6.93,8.06,8.05,8.04
153.78,14.84,6.80,14.84,6.80,-6.78,-6.71,-6.80,8.05,8.05,8.03
155.32,14.78,6.74,14.76,6.73,-6.71,-6.64,-6.66,8.06,8.05,8.03
156.88,14.67,6.63,14.67,6.64,-6.64,-6.56,-6.53,8.03,8.03,8.03
158.44,14.59,6.55,14.58,6.55,-6.56,-6.49,-6.40,8.02,8.02,8.03
160.03,14.49,6.46,14.49,6.47,-6.48,-6.42,-6.28,8.00,8.01,8.02
161.63,14.42,6.39,14.42,6.39,-6.40,-6.34,-6.15,8.01,8.01,8.02
163.24,14.35,6.33,14.34,6.32,-6.32,-6.26,-6.04,8.02,8.01,8.01
164.88,14.26,6.24,14.26,6.25,-6.25,-6.19,-5.92,8.01,8.02,8.01
166.53,14.18,6.17,14.18,6.17,-6.17,-6.11,-5.81,8.01,8.01,8.00
168.19,14.11,6.11,14.09,6.09,-6.09,-6.03,-5.70,8.01,7.99,7.99
169.87,13.99,6.00,14.01,6.02,-6.02,-5.96,-5.60,7.96,7.98,7.98
171.57,13.92,5.94,13.92,5.94,-5.95,-5.88,-5.49,7.97,7.97,7.97
173.29,13.85,5.88,13.82,5.86,-5.87,-5.80,-5.40,7.98,7.95,7.96
175.02,13.73,5.77,13.74,5.79,-5.79,-5.72,-5.31,7.94,7.95,7.95
176.77,13.64,5.70,13.64,5.70,-5.70,-5.64,-5.22,7.93,7.94,7.93
178.54,13.55,5.62,13.55,5.62,-5.61,-5.56,-5.13,7.93,7.93,7.92
180.32,13.45,5.54,13.44,5.54,-5.52,-5.48,-5.05,7.93,7.93,7.90
182.13,13.34,5.44,13.32,5.43,-5.41,-5.40,-4.97,7.92,7.90,7.89
183.95,13.17,5.29,13.18,5.31,-5.31,-5.32,-4.90,7.86,7.88,7.87
185.79,13.04,5.18,13.04,5.19,-5.19,-5.24,-4.83,7.84,7.85,7.85
187.65,12.92,5.07,12.91,5.07,-5.08,-5.16,-4.77,7.84,7.83,7.84
189.52,12.79,4.96,12.78,4.96,-4.96,-5.08,-4.70,7.83,7.82,7.82
191.42,12.65,4.84,12.65,4.84,-4.84,-5.00,-4.64,7.80,7.81,7.80
193.33,12.52,4.73,12.52,4.73,-4.73,-4.92,-4.59,7.78,7.79,7.78
195.27,12.39,4.61,12.39,4.62,-4.62,-4.84,-4.53,7.76,7.77,7.77
197.22,12.28,4.52,12.27,4.52,-4.52,-4.76,-4.49,7.75,7.75,7.75
199.19,12.16,4.42,12.16,4.42,-4.43,-4.68,-4.44,7.73,7.73,7.73
201.18,12.05,4.34,12.04,4.34,-4.34,-4.60,-4.39,7.71,7.71,7.70
203.19,11.94,4.25,11.94,4.25,-4.25,-4.52,-4.35,7.68,7.68,7.68
205.23,11.84,4.17,11.84,4.17,-4.17,-4.44,-4.31,7.67,7.67,7.66
207.28,11.75,4.10,11.74,4.10,-4.09,-4.36,-4.27,7.65,7.65,7.64
209.35,11.66,4.03,11.65,4.03,-4.02,-4.28,-4.24,7.63,7.63,7.62
211.44,11.56,3.96,11.55,3.96,-3.96,-4.20,-4.20,7.60,7.60,7.59
213.56,11.46,3.88,11.46,3.89,-3.90,-4.13,-4.17,7.56,7.56,7.57
215.69,11.38,3.83,11.37,3.83,-3.84,-4.05,-4.13,7.53,7.53,7.54
217.85,11.30,3.78,11.30,3.78,-3.79,-3.97,-4.10,7.50,7.51,7.51
220.03,11.25,3.75,11.24,3.75,-3.75,-3.90,-4.07,7.50,7.50,7.49
222.23,11.19,3.71,11.18,3.71,-3.70,-3.82,-4.04,7.48,7.48,7.47
224.45,11.13,3.68,11.12,3.67,-3.66,-3.75,-4.00,7.46,7.46,7.44
226.70,11.06,3.63,11.05,3.63,-3.62,-3.67,-3.97,7.43,7.43,7.42
228.96,10.99,3.58,10.99,3.59,-3.59,-3.60,-3.94,7.40,7.40,7.40
231.25,10.94,3.55,10.93,3.55,-3.56,-3.52,-3.90,7.38,7.37,7.38
233.57,10.89,3.51,10.88,3.51,-3.53,-3.45,-3.86,7.36,7.36,7.37
235.90,10.84,3.48,10.84,3.49,-3.49,-3.38,-3.82,7.34,7.35,7.35
238.26,10.82,3.47,10.81,3.46,-3.46,-3.30,-3.78,7.35,7.34,7.34
240.64,10.78,3.44,10.77,3.44,-3.43,-3.23,-3.74,7.34,7.34,7.33
243.05,10.74,3.41,10.74,3.41,-3.41,-3.16,-3.69,7.33,7.33,7.32
245.48,10.70,3.38,10.69,3.38,-3.37,-3.09,-3.64,7.32,7.32,7.31
247.93,10.65,3.34,10.65,3.34,-3.34,-3.02,-3.59,7.30,7.31,7.30
250.41,10.61,3.31,10.60,3.30,-3.30,-2.95,-3.53,7.30,7.29,7.29
252.92,10.54,3.25,10.55,3.26,-3.26,-2.88,-3.47,7.27,7.28,7.28
255.45,10.50,3.22,10.49,3.22,-3.22,-2.81,-3.41,7.27,7.27,7.27
258.00,10.45,3.18,10.44,3.17,-3.18,-2.74,-3.35,7.27,7.26,7.26
260.58,10.39,3.12,10.39,3.13,-3.13,-2.67,-3.28,7.25,7.26,7.26
263.19,10.34,3.08,10.33,3.08,-3.08,-2.61,-3.21,7.25,7.25,7.25
265.82,10.28,3.03,10.28,3.04,-3.03,-2.54,-3.13,7.24,7.25,7.24
268.48,10.23,2.99,10.22,2.99,-2.98,-2.47,-3.06,7.25,7.25,7.23
271.16,10.17,2.94,10.15,2.93,-2.92,-2.41,-2.98,7.24,7.23,7.22
273.87,10.08,2.86,10.08,2.86,-2.87,-2.34,-2.90,7.21,7.21,7.21
276.61,10.00,2.79,10.00,2.80,-2.81,-2.27,-2.81,7.19,7.19,7.20
279.38,9.93,2.73,9.93,2.74,-2.75,-2.21,-2.73,7.18,7.18,7.19
282.17,9.88,2.69,9.87,2.68,-2.69,-2.14,-2.64,7.19,7.18,7.18
284.99,9.81,2.63,9.80,2.63,-2.62,-2.08,-2.55,7.18,7.18,7.17
287.84,9.73,2.56,9.73,2.56,-2.56,-2.02,-2.46,7.17,7.17,7.16
290.72,9.65,2.49,9.65,2.49,-2.49,-1.95,-2.37,7.15,7.15,7.15
293.63,9.57,2.42,9.57,2.42,-2.42,-1.89,-2.27,7.14,7.14,7.14
296.57,9.49,2.35,9.49,2.35,-2.35,-1.83,-2.18,7.13,7.14,7.13
299.53,9.41,2.28,9.40,2.28,-2.28,-1.76,-2.09,7.13,7.13,7.12
302.53,9.32,2.20,9.31,2.20,-2.20,-1.70,-1.99,7.11,7.11,7.11
305.55,9.22,2.12,9.21,2.12,-2.12,-1.64,-1.90,7.09,7.09,7.09
308.61,9.12,2.03,9.12,2.03,-2.04,-1.58,-1.80,7.07,7.07,7.08
311.69,9.02,1.94,9.03,1.96,-1.96,-1.52,-1.70,7.06,7.07,7.07
314.81,8.95,1.89,8.94,1.88,-1.87,-1.45,-1.61,7.07,7.06,7.05
317.96,8.85,1.80,8.84,1.80,-1.78,-1.39,-1.51,7.06,7.06,7.04
321.14,8.73,1.70,8.73,1.70,-1.69,-1.33,-1.42,7.03,7.04,7.02
324.35,8.61,1.59,8.61,1.60,-1.60,-1.27,-1.32,7.01,7.01,7.01
327.59,8.49,1.49,8.49,1.50,-1.50,-1.21,-1.23,6.98,6.99,6.99
330.87,8.39,1.40,8.38,1.40,-1.41,-1.14,-1.13,6.98,6.97,6.98
334.18,8.28,1.31,8.27,1.30,-1.31,-1.08,-1.04,6.97,6.96,6.96
337.52,8.15,1.19,8.16,1.21,-1.21,-1.02,-0.94,6.93,6.95,6.95
340.90,8.06,1.12,8.05,1.11,-1.11,-0.96,-0.85,6.94,6.94,6.93
344.30,7.95,1.02,7.94,1.02,-1.02,-0.90,-0.76,6.93,6.92,6.92
347.75,7.84,0.93,7.84,0.93,-0.93,-0.83,-0.66,6.91,6.91,6.90
351.23,7.73,0.84,7.72,0.83,-0.83,-0.77,-0.57,6.89,6.89,6.88
354.74,7.62,0.74,7.61,0.74,-0.74,-0.71,-0.48,6.87,6.87,6.87
358.28,7.50,0.64,7.50,0.65,-0.65,-0.64,-0.38,6.84,6.85,6.85
361.87,7.41,0.57,7.39,0.56,-0.56,-0.58,-0.29,6.84,6.83,6.83
365.49,7.29,0.46,7.30,0.47,-0.48,-0.51,-0.20,6.81,6.82,6.82
369.14,7.20,0.39,7.20,0.39,-0.39,-0.44,-0.11,6.81,6.81,6.80
372.83,7.11,0.31,7.09,0.30,-0.30,-0.37,-0.02,6.80,6.79,6.79
376.56,6.99,0.21,7.00,0.22,-0.22,-0.30,0.07,6.76,6.78,6.77
380.33,6.90,0.14,6.89,0.14,-0.14,-0.23,0.16,6.76,6.76,6.75
384.13,6.80,0.05,6.79,0.05,-0.05,-0.16,0.25,6.74,6.74,6.74
387.97,6.70,-0.03,6.69,-0.03,0.03,-0.09,0.34,6.73,6.73,6.72
391.85,6.60,-0.12,6.59,-0.12,0.12,-0.01,0.43,6.72,6.71,6.71
395.77,6.49,-0.22,6.49,-0.21,0.21,0.07,0.52,6.69,6.70,6.70
399.73,6.40,-0.30,6.39,-0.30,0.30,0.15,0.61,6.70,6.69,6.69
403.72,6.30,-0.39,6.29,-0.39,0.40,0.23,0.70,6.69,6.69,6.68
407.76,6.19,-0.49,6.18,-0.49,0.49,0.32,0.78,6.68,6.68,6.67
411.84,6.07,-0.59,6.07,-0.59,0.59,0.41,0.87,6.66,6.66,6.65
415.96,5.96,-0.69,5.95,-0.69,0.70,0.51,0.96,6.65,6.65,6.64
420.12,5.84,-0.80,5.83,-0.80,0.80,0.61,1.04,6.63,6.63,6.63
424.32,5.72,-0.91,5.72,-0.90,0.90,0.72,1.13,6.62,6.62,6.62
428.56,5.61,-1.01,5.60,-1.01,1.00,0.83,1.21,6.61,6.60,6.61
432.85,5.50,-1.10,5.49,-1.11,1.10,0.95,1.29,6.60,6.59,6.59
437.18,5.38,-1.21,5.38,-1.20,1.20,1.07,1.37,6.58,6.58,6.58
441.55,5.28,-1.30,5.28,-1.29,1.30,1.20,1.45,6.57,6.57,6.57
445.96,5.18,-1.38,5.17,-1.38,1.39,1.33,1.53,6.56,6.56,6.55
450.42,5.07,-1.47,5.06,-1.47,1.48,1.46,1.61,6.54,6.54,6.53
454.93,4.96,-1.57,4.96,-1.57,1.56,1.59,1.68,6.52,6.52,6.52
459.48,4.85,-1.66,4.85,-1.65,1.65,1.71,1.75,6.49,6.50,6.50
464.07,4.76,-1.73,4.75,-1.73,1.73,1.83,1.82,6.48,6.48,6.48
468.71,4.67,-1.80,4.66,-1.80,1.80,1.92,1.89,6.47,6.47,6.46
473.40,4.58,-1.88,4.58,-1.87,1.88,2.00,1.96,6.45,6.45,6.45
478.13,4.50,-1.94,4.49,-1.95,1.95,2.06,2.02,6.44,6.44,6.43
482.91,4.40,-2.03,4.40,-2.02,2.01,2.11,2.08,6.41,6.42,6.42
487.74,4.33,-2.08,4.32,-2.08,2.08,2.13,2.14,6.40,6.40,6.40
492.62,4.26,-2.14,4.25,-2.14,2.14,2.15,2.19,6.40,6.39,6.39
497.55,4.19,-2.20,4.19,-2.20,2.20,2.16,2.24,6.39,6.39,6.38
502.52,4.13,-2.25,4.12,-2.25,2.26,2.16,2.29,6.38,6.38,6.37
