frequency,raw,error,smoothed,error_smoothed,equalization,parametric_eq,fixed_band_eq,equalized_raw,equalized_smoothed,target
20.00,5.90,-6.05,5.91,-6.04,6.09,5.26,1.73,11.99,12.00,11.94
20.20,5.96,-5.97,5.95,-5.98,5.99,5.22,1.79,11.94,11.94,11.93
20.40,6.02,-5.89,6.01,-5.91,5.88,5.18,1.84,11.90,11.89,11.91
20.61,6.08,-5.83,6.07,-5.83,5.78,5.14,1.90,11.86,11.85,11.90
20.81,6.14,-5.74,6.14,-5.75,5.68,5.10,1.95,11.82,11.82,11.88
21.02,6.20,-5.67,6.22,-5.65,5.58,5.06,2.01,11.78,11.80,11.87
21.23,6.33,-5.53,6.32,-5.54,5.49,5.01,2.07,11.82,11.81,11.86
21.44,6.45,-5.40,6.45,-5.40,5.39,4.97,2.13,11.84,11.84,11.85
21.66,6.57,-5.26,6.58,-5.26,5.28,4.93,2.20,11.85,11.86,11.83
21.87,6.70,-5.13,6.69,-5.14,5.18,4.89,2.26,11.88,11.87,11.83
22.09,6.78,-5.04,6.77,-5.05,5.09,4.85,2.33,11.86,11.86,11.82
22.31,6.82,-4.99,6.82,-4.99,5.01,4.81,2.40,11.83,11.83,11.81
22.54,6.85,-4.95,6.85,-4.94,4.94,4.77,2.47,11.79,11.80,11.80
22.76,6.88,-4.91,6.88,-4.91,4.90,4.72,2.54,11.78,11.78,11.79
22.99,6.92,-4.87,6.91,-4.87,4.87,4.68,2.62,11.78,11.78,11.79
23.22,6.94,-4.84,6.94,-4.84,4.84,4.64,2.70,11.78,11.78,11.78
23.45,6.96,-4.82,6.96,-4.82,4.82,4.60,2.77,11.78,11.78,11.77
23.69,6.98,-4.80,6.97,-4.80,4.80,4.56,2.85,11.78,11.77,11.77
23.92,6.99,-4.78,7.00,-4.77,4.77,4.51,2.93,11.76,11.77,11.77
24.16,7.03,-4.74,7.03,-4.74,4.74,4.47,3.02,11.77,11.77,11.77
24.40,7.08,-4.69,7.07,-4.70,4.69,4.43,3.10,11.77,11.76,11.77
24.65,7.12,-4.65,7.12,-4.65,4.63,4.39,3.19,11.75,11.75,11.77
24.89,7.17,-4.60,7.18,-4.59,4.56,4.34,3.27,11.73,11.74,11.77
25.14,7.26,-4.51,7.26,-4.51,4.47,4.30,3.36,11.73,11.73,11.77
25.39,7.37,-4.40,7.37,-4.39,4.38,4.26,3.45,11.75,11.75,11.77
25.65,7.49,-4.27,7.49,-4.27,4.28,4.21,3.53,11.77,11.77,11.76
25.91,7.61,-4.15,7.59,-4.16,4.18,4.17,3.62,11.79,11.78,11.76
26.16,7.68,-4.06,7.68,-4.07,4.10,4.13,3.71,11.77,11.77,11.74
26.43,7.74,-4.01,7.75,-3.99,4.02,4.08,3.79,11.76,11.77,11.74
26.69,7.79,-3.94,7.79,-3.94,3.97,4.04,3.88,11.76,11.76,11.73
26.96,7.84,-3.88,7.82,-3.90,3.93,4.00,3.96,11.77,11.75,11.72
27.23,7.84,-3.88,7.83,-3.88,3.90,3.95,4.04,11.74,11.73,11.72
27.50,7.82,-3.89,7.82,-3.89,3.87,3.91,4.12,11.69,11.70,11.71
27.77,7.81,-3.89,7.81,-3.89,3.85,3.86,4.19,11.66,11.66,11.70
28.05,7.81,-3.88,7.82,-3.86,3.82,3.82,4.26,11.63,11.65,11.69
28.33,7.87,-3.81,7.87,-3.82,3.79,3.78,4.33,11.66,11.66,11.68
28.62,7.93,-3.75,7.92,-3.76,3.75,3.73,4.39,11.68,11.67,11.68
28.90,7.99,-3.68,7.99,-3.69,3.70,3.69,4.44,11.69,11.69,11.67
29.19,8.04,-3.64,8.04,-3.63,3.65,3.65,4.49,11.68,11.69,11.68
29.48,8.10,-3.58,8.10,-3.58,3.59,3.60,4.54,11.69,11.69,11.68
29.78,8.15,-3.53,8.15,-3.53,3.53,3.56,4.58,11.68,11.68,11.68
30.08,8.20,-3.48,8.20,-3.48,3.48,3.51,4.60,11.68,11.68,11.67
30.38,8.24,-3.43,8.24,-3.43,3.44,3.47,4.63,11.68,11.68,11.67
30.68,8.28,-3.39,8.28,-3.39,3.40,3.43,4.64,11.68,11.68,11.67
30.99,8.32,-3.35,8.31,-3.35,3.37,3.38,4.65,11.69,11.68,11.67
31.30,8.34,-3.33,8.34,-3.33,3.33,3.34,4.64,11.67,11.67,11.67
31.61,8.37,-3.29,8.37,-3.30,3.30,3.29,4.64,11.67,11.66,11.66
31.93,8.39,-3.27,8.40,-3.26,3.25,3.25,4.61,11.64,11.65,11.66
32.24,8.44,-3.21,8.43,-3.22,3.19,3.21,4.59,11.63,11.63,11.65
32.57,8.49,-3.16,8.48,-3.16,3.12,3.16,4.55,11.61,11.61,11.65
32.89,8.54,-3.10,8.55,-3.09,3.05,3.12,4.51,11.59,11.60,11.64
33.22,8.64,-3.00,8.65,-2.99,2.98,3.07,4.46,11.61,11.62,11.64
33.55,8.76,-2.88,8.76,-2.88,2.90,3.03,4.41,11.66,11.66,11.64
33.89,8.87,-2.76,8.85,-2.78,2.83,2.99,4.35,11.70,11.68,11.62
34.23,8.91,-2.71,8.90,-2.72,2.78,2.94,4.28,11.68,11.68,11.62
34.57,8.92,-2.70,8.92,-2.70,2.73,2.90,4.21,11.64,11.65,11.62
34.92,8.92,-2.70,8.93,-2.69,2.68,2.85,4.13,11.60,11.61,11.62
35.27,8.94,-2.67,8.94,-2.67,2.65,2.81,4.05,11.59,11.59,11.61
35.62,8.96,-2.65,8.96,-2.65,2.62,2.77,3.96,11.58,11.58,11.61
35.97,8.99,-2.61,8.99,-2.61,2.58,2.72,3.87,11.57,11.57,11.59
36.33,9.03,-2.56,9.03,-2.56,2.54,2.68,3.78,11.57,11.57,11.59
36.70,9.08,-2.51,9.08,-2.51,2.50,2.63,3.69,11.58,11.58,11.59
37.06,9.13,-2.45,9.14,-2.44,2.45,2.59,3.59,11.58,11.59,11.58
37.43,9.20,-2.37,9.20,-2.37,2.40,2.55,3.50,11.60,11.60,11.57
37.81,9.27,-2.30,9.26,-2.31,2.33,2.50,3.40,11.60,11.59,11.56
38.19,9.30,-2.25,9.28,-2.27,2.27,2.46,3.30,11.56,11.54,11.55
38.57,9.29,-2.25,9.29,-2.25,2.20,2.42,3.20,11.49,11.49,11.54
38.95,9.28,-2.24,9.33,-2.20,2.15,2.37,3.10,11.43,11.47,11.52
39.34,9.40,-2.12,9.41,-2.10,2.10,2.33,3.01,11.50,11.52,11.52
39.74,9.53,-1.97,9.50,-2.00,2.06,2.29,2.91,11.59,11.56,11.50
40.14,9.59,-1.90,9.54,-1.95,2.02,2.24,2.81,11.61,11.56,11.49
40.54,9.51,-1.96,9.51,-1.96,1.98,2.20,2.72,11.49,11.50,11.47
40.94,9.43,-2.03,9.48,-1.98,1.94,2.16,2.62,11.37,11.42,11.46
41.35,9.49,-1.97,9.49,-1.96,1.90,2.11,2.53,11.39,11.39,11.46
41.76,9.57,-1.88,9.55,-1.90,1.86,2.07,2.44,11.43,11.42,11.45
42.18,9.64,-1.81,9.62,-1.82,1.83,2.02,2.35,11.46,11.45,11.44
42.60,9.67,-1.77,9.67,-1.76,1.78,1.98,2.26,11.45,11.46,11.44
43.03,9.71,-1.72,9.72,-1.71,1.73,1.94,2.17,11.44,11.45,11.43
43.46,9.77,-1.66,9.76,-1.66,1.67,1.89,2.08,11.43,11.43,11.42
43.90,9.82,-1.61,9.81,-1.61,1.60,1.85,2.00,11.42,11.41,11.43
44.33,9.86,-1.56,9.86,-1.56,1.54,1.81,1.92,11.40,11.40,11.42
44.78,9.91,-1.50,9.91,-1.50,1.50,1.76,1.83,11.41,11.40,11.41
45.23,9.95,-1.45,9.95,-1.45,1.46,1.72,1.75,11.41,11.42,11.40
45.68,10.00,-1.40,9.99,-1.40,1.44,1.68,1.67,11.44,11.43,11.39
46.13,10.03,-1.36,10.02,-1.36,1.41,1.63,1.60,11.43,11.43,11.38
46.60,10.03,-1.35,10.03,-1.34,1.37,1.59,1.52,11.39,11.40,11.38
47.06,10.03,-1.34,10.00,-1.37,1.32,1.54,1.45,11.35,11.32,11.37
47.53,9.99,-1.37,9.98,-1.37,1.28,1.50,1.38,11.27,11.26,11.36
48.01,9.95,-1.39,10.03,-1.30,1.24,1.46,1.30,11.19,11.28,11.34
48.49,10.13,-1.20,10.13,-1.20,1.21,1.41,1.23,11.34,11.34,11.32
48.97,10.30,-1.01,10.22,-1.09,1.17,1.37,1.17,11.47,11.39,11.30
49.46,10.27,-1.02,10.28,-1.02,1.12,1.32,1.10,11.39,11.40,11.29
49.96,10.23,-1.05,10.23,-1.05,1.06,1.28,1.03,11.29,11.29,11.28
50.46,10.19,-1.08,10.18,-1.09,1.00,1.23,0.97,11.19,11.18,11.27
50.96,10.15,-1.12,10.22,-1.04,0.95,1.19,0.90,11.09,11.17,11.27
51.47,10.31,-0.94,10.31,-0.94,0.91,1.14,0.84,11.22,11.22,11.25
51.99,10.49,-0.75,10.42,-0.82,0.87,1.10,0.78,11.36,11.29,11.24
52.51,10.48,-0.74,10.48,-0.73,0.84,1.05,0.72,11.32,11.32,11.22
53.03,10.47,-0.73,10.45,-0.75,0.80,1.01,0.66,11.26,11.25,11.20
53.56,10.40,-0.79,10.41,-0.77,0.75,0.96,0.60,11.14,11.16,11.19
54.10,10.37,-0.80,10.42,-0.75,0.70,0.91,0.54,11.07,11.12,11.17
54.64,10.47,-0.69,10.45,-0.71,0.66,0.87,0.49,11.13,11.11,11.15
55.18,10.53,-0.61,10.50,-0.64,0.63,0.82,0.43,11.16,11.13,11.14
55.74,10.53,-0.59,10.54,-0.58,0.59,0.77,0.38,11.12,11.13,11.12
56.29,10.55,-0.55,10.56,-0.54,0.55,0.72,0.33,11.10,11.12,11.10
56.86,10.60,-0.49,10.60,-0.49,0.50,0.68,0.27,11.10,11.10,11.09
57.42,10.64,-0.43,10.63,-0.43,0.45,0.63,0.22,11.08,11.08,11.07
58.00,10.67,-0.38,10.65,-0.40,0.40,0.58,0.17,11.07,11.05,11.05
58.58,10.65,-0.38,10.66,-0.37,0.36,0.53,0.12,11.01,11.02,11.03
59.16,10.65,-0.36,10.67,-0.33,0.33,0.48,0.07,10.98,11.00,11.01
59.76,10.71,-0.28,10.69,-0.29,0.30,0.43,0.02,11.01,11.00,10.99
60.35,10.73,-0.24,10.72,-0.25,0.28,0.38,-0.03,11.00,11.00,10.96
60.96,10.73,-0.22,10.74,-0.21,0.25,0.33,-0.07,10.97,10.98,10.95
61.57,10.73,-0.20,10.72,-0.21,0.21,0.28,-0.12,10.93,10.93,10.93
62.18,10.72,-0.19,10.70,-0.20,0.16,0.23,-0.17,10.87,10.86,10.90
62.80,10.68,-0.19,10.71,-0.17,0.10,0.18,-0.21,10.78,10.81,10.87
63.43,10.74,-0.11,10.75,-0.09,0.04,0.13,-0.26,10.78,10.79,10.84
64.07,10.84,0.03,10.84,0.03,-0.02,0.08,-0.30,10.82,10.82,10.81
64.71,10.94,0.16,10.91,0.13,-0.08,0.02,-0.34,10.86,10.83,10.78
65.35,10.97,0.22,10.95,0.20,-0.14,-0.03,-0.39,10.83,10.81,10.75
66.01,10.93,0.21,10.95,0.23,-0.19,-0.09,-0.43,10.73,10.76,10.72
66.67,10.93,0.25,10.94,0.26,-0.25,-0.14,-0.47,10.68,10.69,10.68
67.33,10.93,0.28,10.92,0.27,-0.30,-0.19,-0.52,10.63,10.62,10.65
68.01,10.93,0.32,10.91,0.30,-0.34,-0.25,-0.56,10.59,10.57,10.61
68.69,10.89,0.31,10.92,0.34,-0.38,-0.31,-0.60,10.51,10.54,10.58
69.37,10.93,0.39,10.95,0.41,-0.42,-0.36,-0.64,10.51,10.53,10.53
70.07,11.02,0.52,10.99,0.49,-0.47,-0.42,-0.69,10.55,10.52,10.50
70.77,11.03,0.57,11.02,0.56,-0.52,-0.48,-0.73,10.50,10.50,10.46
71.48,11.03,0.60,11.04,0.62,-0.59,-0.53,-0.77,10.44,10.45,10.42
72.19,11.03,0.65,11.02,0.64,-0.66,-0.59,-0.82,10.37,10.37,10.38
72.91,11.03,0.69,11.02,0.68,-0.72,-0.65,-0.86,10.30,10.30,10.34
73.64,11.03,0.72,11.05,0.75,-0.79,-0.71,-0.91,10.24,10.27,10.31
74.38,11.09,0.82,11.11,0.84,-0.84,-0.77,-0.95,10.25,10.27,10.27
75.12,11.19,0.96,11.15,0.93,-0.89,-0.83,-1.00,10.30,10.26,10.23
75.87,11.19,1.01,11.18,0.99,-0.93,-0.89,-1.04,10.25,10.24,10.18
76.63,11.15,1.01,11.17,1.03,-0.99,-0.95,-1.09,10.16,10.18,10.14
77.40,11.13,1.03,11.12,1.03,-1.04,-1.02,-1.14,10.09,10.08,10.10
78.17,11.12,1.06,11.10,1.04,-1.10,-1.08,-1.19,10.02,10.01,10.06
78.95,11.07,1.05,11.11,1.10,-1.15,-1.14,-1.24,9.92,9.97,10.01
79.74,11.15,1.18,11.14,1.17,-1.20,-1.21,-1.29,9.95,9.95,9.97
80.54,11.21,1.28,11.19,1.26,-1.25,-1.27,-1.34,9.96,9.94,9.93
81.35,11.23,1.35,11.23,1.34,-1.31,-1.33,-1.40,9.92,9.92,9.88
82.16,11.23,1.39,11.23,1.40,-1.37,-1.40,-1.45,9.86,9.86,9.84
82.98,11.23,1.45,11.23,1.45,-1.44,-1.46,-1.51,9.79,9.79,9.78
83.81,11.23,1.50,11.23,1.50,-1.50,-1.53,-1.57,9.73,9.73,9.73
84.65,11.23,1.54,11.23,1.55,-1.55,-1.59,-1.63,9.67,9.67,9.69
85.50,11.23,1.60,11.23,1.60,-1.61,-1.66,-1.69,9.62,9.62,9.63
86.35,11.23,1.65,11.23,1.65,-1.66,-1.73,-1.75,9.57,9.57,9.58
87.22,11.23,1.71,11.23,1.71,-1.71,-1.79,-1.81,9.52,9.52,9.52
88.09,11.23,1.76,11.23,1.77,-1.77,-1.86,-1.88,9.46,9.46,9.47
88.97,11.24,1.83,11.24,1.83,-1.83,-1.93,-1.94,9.41,9.41,9.41
89.86,11.24,1.89,11.24,1.89,-1.89,-1.99,-2.01,9.35,9.35,9.34
90.76,11.24,1.95,11.24,1.95,-1.95,-2.06,-2.08,9.29,9.29,9.29
91.66,11.24,2.01,11.24,2.01,-2.01,-2.13,-2.15,9.23,9.23,9.23
92.58,11.24,2.07,11.24,2.07,-2.07,-2.19,-2.22,9.16,9.16,9.17
93.51,11.24,2.14,11.24,2.14,-2.14,-2.26,-2.30,9.10,9.10,9.10
94.44,11.24,2.20,11.24,2.20,-2.20,-2.33,-2.37,9.04,9.04,9.04
95.39,11.24,2.26,11.24,2.26,-2.26,-2.39,-2.45,8.98,8.98,8.97
96.34,11.24,2.33,11.24,2.33,-2.33,-2.46,-2.52,8.91,8.91,8.91
97.30,11.23,2.39,11.23,2.39,-2.39,-2.53,-2.60,8.84,8.84,8.83
98.28,11.22,2.45,11.22,2.45,-2.45,-2.59,-2.68,8.77,8.77,8.77
99.26,11.21,2.51,11.20,2.51,-2.51,-2.66,-2.76,8.70,8.69,8.69
100.25,11.19,2.57,11.19,2.57,-2.57,-2.72,-2.85,8.61,8.61,8.62
101.25,11.17,2.63,11.17,2.63,-2.63,-2.79,-2.93,8.53,8.54,8.54
102.27,11.16,2.69,11.16,2.69,-2.69,-2.85,-3.01,8.46,8.47,8.47
103.29,11.15,2.76,11.14,2.75,-2.75,-2.92,-3.09,8.40,8.39,8.39
104.32,11.13,2.82,11.13,2.82,-2.81,-2.98,-3.17,8.32,8.32,8.31
105.37,11.10,2.87,11.10,2.87,-2.87,-3.05,-3.26,8.23,8.23,8.23
106.42,11.08,2.93,11.08,2.92,-2.92,-3.11,-3.34,8.16,8.15,8.15
107.48,11.05,2.97,11.05,2.98,-2.98,-3.17,-3.42,8.07,8.07,8.07
108.56,11.03,3.03,11.03,3.03,-3.03,-3.23,-3.50,8.00,8.00,8.00
109.64,11.01,3.09,11.01,3.08,-3.08,-3.29,-3.58,7.93,7.92,7.92
110.74,10.99,3.13,10.99,3.13,-3.14,-3.35,-3.65,7.85,7.85,7.86
111.85,10.97,3.19,10.97,3.19,-3.19,-3.41,-3.73,7.78,7.78,7.78
112.97,10.96,3.24,10.96,3.25,-3.25,-3.47,-3.80,7.71,7.71,7.72
114.10,10.96,3.31,10.96,3.31,-3.31,-3.53,-3.86,7.65,7.65,7.65
115.24,10.96,3.37,10.96,3.37,-3.37,-3.58,-3.93,7.58,7.58,7.59
116.39,10.96,3.44,10.96,3.44,-3.44,-3.64,-3.99,7.52,7.52,7.52
117.55,10.96,3.49,10.96,3.50,-3.50,-3.69,-4.04,7.45,7.46,7.47
118.73,10.97,3.57,10.96,3.56,-3.57,-3.75,-4.10,7.40,7.40,7.40
119.92,10.97,3.62,10.98,3.63,-3.63,-3.80,-4.14,7.34,7.35,7.35
121.12,10.98,3.69,10.99,3.70,-3.68,-3.85,-4.19,7.30,7.31,7.29
122.33,11.01,3.77,10.98,3.75,-3.73,-3.90,-4.22,7.28,7.26,7.23
123.55,10.98,3.79,10.96,3.78,-3.77,-3.95,-4.25,7.21,7.19,7.19
124.79,10.91,3.77,10.94,3.80,-3.80,-4.00,-4.28,7.11,7.13,7.14
126.03,10.91,3.83,10.92,3.83,-3.83,-4.04,-4.30,7.08,7.09,7.08
127.29,10.92,3.88,10.91,3.87,-3.86,-4.09,-4.31,7.06,7.05,7.04
128.57,10.92,3.93,10.88,3.89,-3.89,-4.13,-4.33,7.03,7.00,6.99
129.85,10.83,3.89,10.85,3.90,-3.91,-4.17,-4.33,6.91,6.93,6.94
131.15,10.79,3.89,10.82,3.93,-3.95,-4.21,-4.33,6.84,6.87,6.89
132.46,10.83,3.98,10.81,3.97,-3.99,-4.25,-4.33,6.84,6.82,6.85
133.79,10.84,4.05,10.83,4.03,-4.04,-4.29,-4.32,6.80,6.79,6.79
135.12,10.84,4.09,10.85,4.10,-4.10,-4.33,-4.31,6.74,6.75,6.74
136.48,10.85,4.15,10.84,4.15,-4.15,-4.36,-4.29,6.69,6.69,6.70
137.84,10.85,4.20,10.85,4.20,-4.21,-4.39,-4.27,6.64,6.64,6.65
139.22,10.85,4.25,10.87,4.27,-4.25,-4.43,-4.25,6.60,6.62,6.60
140.61,10.87,4.32,10.87,4.32,-4.28,-4.46,-4.22,6.59,6.59,6.55
142.02,10.89,4.39,10.85,4.35,-4.31,-4.49,-4.20,6.58,6.55,6.50
143.44,10.79,4.34,10.80,4.35,-4.32,-4.51,-4.17,6.47,6.48,6.45
144.87,10.73,4.32,10.73,4.32,-4.34,-4.54,-4.14,6.39,6.39,6.41
146.32,10.65,4.29,10.66,4.31,-4.36,-4.56,-4.11,6.29,6.30,6.36
147.78,10.63,4.33,10.64,4.34,-4.38,-4.59,-4.08,6.25,6.25,6.30
149.26,10.64,4.39,10.63,4.38,-4.41,-4.61,-4.05,6.23,6.22,6.25
150.75,10.65,4.45,10.64,4.44,-4.45,-4.63,-4.02,6.20,6.19,6.20
152.26,10.65,4.49,10.65,4.49,-4.49,-4.64,-3.99,6.16,6.16,6.16
153.78,10.65,4.53,10.66,4.54,-4.53,-4.66,-3.97,6.12,6.13,6.12
155.32,10.66,4.58,10.67,4.60,-4.56,-4.67,-3.94,6.10,6.12,6.08
156.88,10.69,4.66,10.67,4.63,-4.58,-4.69,-3.92,6.11,6.09,6.03
158.44,10.65,4.65,10.63,4.63,-4.59,-4.70,-3.89,6.06,6.04,6.00
160.03,10.55,4.59,10.55,4.60,-4.60,-4.71,-3.87,5.95,5.95,5.96
161.63,10.46,4.54,10.48,4.57,-4.61,-4.72,-3.85,5.84,5.87,5.91
163.24,10.43,4.55,10.44,4.57,-4.63,-4.72,-3.84,5.80,5.81,5.87
164.88,10.45,4.61,10.43,4.60,-4.64,-4.73,-3.82,5.80,5.79,5.83
166.53,10.44,4.64,10.44,4.64,-4.66,-4.73,-3.81,5.78,5.78,5.80
168.19,10.44,4.68,10.45,4.70,-4.66,-4.73,-3.81,5.77,5.79,5.76
169.87,10.45,4.73,10.45,4.73,-4.67,-4.74,-3.80,5.78,5.78,5.72
171.57,10.46,4.78,10.43,4.75,-4.68,-4.73,-3.80,5.78,5.75,5.68
173.29,10.37,4.72,10.36,4.72,-4.69,-4.73,-3.80,5.68,5.67,5.65
175.02,10.28,4.67,10.28,4.67,-4.70,-4.73,-3.80,5.58,5.58,5.61
176.77,10.18,4.59,10.21,4.63,-4.70,-4.73,-3.81,5.47,5.51,5.59
178.54,10.19,4.64,10.19,4.63,-4.70,-4.72,-3.82,5.49,5.49,5.55
180.32,10.21,4.68,10.21,4.68,-4.68,-4.71,-3.83,5.53,5.52,5.53
182.13,10.23,4.72,10.25,4.74,-4.68,-4.70,-3.85,5.55,5.57,5.51
183.95,10.27,4.78,10.23,4.75,-4.68,-4.69,-3.86,5.59,5.55,5.48
185.79,10.21,4.76,10.17,4.71,-4.69,-4.68,-3.89,5.52,5.48,5.45
187.65,10.04,4.60,10.10,4.66,-4.70,-4.67,-3.91,5.34,5.40,5.44
189.52,10.03,4.61,10.04,4.63,-4.69,-4.65,-3.94,5.33,5.35,5.42
191.42,10.07,4.67,10.06,4.65,-4.68,-4.64,-3.97,5.38,5.37,5.40
193.33,10.09,4.70,10.10,4.71,-4.67,-4.62,-4.00,5.41,5.42,5.38
195.27,10.13,4.75,10.08,4.71,-4.66,-4.60,-4.03,5.46,5.42,5.38
197.22,10.03,4.67,10.02,4.66,-4.65,-4.58,-4.07,5.37,5.37,5.36
199.19,9.92,4.58,9.97,4.62,-4.65,-4.56,-4.11,5.27,5.32,5.34
201.18,9.92,4.59,9.94,4.62,-4.63,-4.54,-4.15,5.29,5.31,5.32
203.19,9.96,4.65,9.94,4.63,-4.62,-4.52,-4.19,5.34,5.32,5.31
205.23,9.96,4.67,9.90,4.61,-4.59,-4.49,-4.23,5.37,5.31,5.29
207.28,9.81,4.53,9.83,4.56,-4.56,-4.47,-4.27,5.25,5.27,5.28
209.35,9.72,4.47,9.76,4.51,-4.53,-4.44,-4.32,5.18,5.23,5.25
211.44,9.73,4.49,9.74,4.50,-4.51,-4.42,-4.36,5.22,5.23,5.24
213.56,9.76,4.53,9.72,4.50,-4.48,-4.39,-4.41,5.27,5.24,5.22
215.69,9.73,4.53,9.67,4.47,-4.45,-4.36,-4.45,5.28,5.22,5.20
217.85,9.54,4.35,9.60,4.42,-4.42,-4.33,-4.49,5.12,5.18,5.19
220.03,9.53,4.36,9.54,4.37,-4.39,-4.30,-4.53,5.14,5.16,5.17
222.23,9.52,4.36,9.51,4.36,-4.36,-4.27,-4.57,5.16,5.15,5.15
224.45,9.52,4.38,9.48,4.34,-4.33,-4.23,-4.60,5.19,5.15,5.14
226.70,9.44,4.31,9.42,4.29,-4.29,-4.20,-4.64,5.14,5.12,5.13
228.96,9.31,4.19,9.37,4.24,-4.26,-4.16,-4.67,5.05,5.11,5.12
231.25,9.33,4.21,9.35,4.23,-4.22,-4.13,-4.69,5.10,5.12,5.12
233.57,9.37,4.26,9.33,4.22,-4.20,-4.09,-4.71,5.17,5.13,5.11
235.90,9.35,4.24,9.29,4.18,-4.17,-4.06,-4.72,5.18,5.12,5.11
238.26,9.18,4.08,9.23,4.12,-4.14,-4.02,-4.73,5.03,5.08,5.10
240.64,9.15,4.04,9.19,4.08,-4.12,-3.98,-4.73,5.03,5.07,5.11
243.05,9.19,4.07,9.19,4.08,-4.09,-3.94,-4.73,5.10,5.10,5.11
245.48,9.25,4.13,9.19,4.08,-4.05,-3.90,-4.72,5.19,5.14,5.12
247.93,9.19,4.07,9.18,4.06,-4.02,-3.86,-4.70,5.17,5.16,5.12
250.41,9.06,3.94,9.14,4.01,-3.98,-3.82,-4.68,5.08,5.16,5.12
252.92,9.11,3.99,9.07,3.94,-3.95,-3.77,-4.65,5.16,5.12,5.12
255.45,9.04,3.91,9.00,3.88,-3.92,-3.73,-4.61,5.12,5.09,5.12
258.00,8.92,3.80,8.96,3.84,-3.88,-3.69,-4.57,5.04,5.08,5.12
260.58,8.90,3.79,8.92,3.81,-3.84,-3.64,-4.51,5.06,5.08,5.11
263.19,8.92,3.81,8.90,3.80,-3.80,-3.60,-4.46,5.12,5.10,5.10
265.82,8.90,3.81,8.87,3.78,-3.75,-3.55,-4.39,5.15,5.12,5.09
268.48,8.82,3.74,8.84,3.76,-3.71,-3.50,-4.32,5.11,5.13,5.08
271.16,8.74,3.67,8.75,3.69,-3.66,-3.46,-4.25,5.08,5.09,5.07
273.87,8.71,3.66,8.65,3.60,-3.61,-3.41,-4.17,5.10,5.04,5.05
276.61,8.53,3.48,8.58,3.54,-3.55,-3.36,-4.08,4.98,5.03,5.04
279.38,8.49,3.45,8.51,3.48,-3.49,-3.31,-3.99,5.00,5.02,5.04
282.17,8.50,3.47,8.43,3.40,-3.43,-3.26,-3.90,5.07,5.00,5.02
284.99,8.37,3.35,8.39,3.37,-3.36,-3.21,-3.81,5.00,5.03,5.02
287.84,8.28,3.26,8.34,3.33,-3.31,-3.16,-3.71,4.96,5.03,5.01
290.72,8.35,3.35,8.26,3.26,-3.28,-3.11,-3.61,5.07,4.99,5.00
293.63,8.21,3.21,8.22,3.22,-3.24,-3.06,-3.51,4.97,4.98,5.00
296.57,8.12,3.13,8.19,3.19,-3.21,-3.00,-3.40,4.91,4.98,4.99
299.53,8.18,3.18,8.15,3.15,-3.17,-2.95,-3.30,5.01,4.98,5.00
302.53,8.17,3.18,8.14,3.15,-3.13,-2.90,-3.19,5.04,5.00,4.99
305.55,8.09,3.11,8.11,3.12,-3.08,-2.84,-3.09,5.00,5.02,4.98
308.61,8.03,3.05,8.04,3.06,-3.04,-2.79,-2.98,4.99,5.00,4.98
311.69,7.98,3.01,7.96,2.99,-2.99,-2.73,-2.87,4.99,4.97,4.97
314.81,7.87,2.91,7.89,2.92,-2.93,-2.68,-2.77,4.94,4.96,4.96
317.96,7.80,2.84,7.80,2.84,-2.86,-2.62,-2.66,4.94,4.94,4.96
321.14,7.74,2.79,7.72,2.77,-2.78,-2.56,-2.56,4.95,4.94,4.95
324.35,7.61,2.67,7.66,2.72,-2.70,-2.51,-2.45,4.90,4.95,4.94
327.59,7.62,2.69,7.58,2.64,-2.63,-2.45,-2.35,4.99,4.95,4.93
330.87,7.50,2.57,7.48,2.56,-2.56,-2.39,-2.25,4.94,4.93,4.92
334.18,7.37,2.45,7.40,2.48,-2.49,-2.33,-2.15,4.88,4.91,4.92
337.52,7.31,2.39,7.31,2.40,-2.43,-2.27,-2.05,4.88,4.89,4.92
340.90,7.27,2.36,7.25,2.34,-2.37,-2.21,-1.95,4.90,4.88,4.91
344.30,7.20,2.29,7.20,2.30,-2.30,-2.15,-1.85,4.90,4.90,4.90
347.75,7.13,2.23,7.14,2.25,-2.23,-2.09,-1.76,4.90,4.91,4.90
351.23,7.10,2.21,7.08,2.19,-2.16,-2.03,-1.66,4.94,4.92,4.89
354.74,7.00,2.11,7.01,2.13,-2.09,-1.97,-1.57,4.91,4.92,4.89
358.28,6.94,2.05,6.92,2.04,-2.02,-1.91,-1.48,4.92,4.91,4.88
361.87,6.82,1.94,6.81,1.93,-1.94,-1.84,-1.39,4.88,4.87,4.88
365.49,6.70,1.82,6.71,1.83,-1.86,-1.78,-1.30,4.84,4.85,4.88
369.14,6.62,1.74,6.64,1.76,-1.79,-1.72,-1.21,4.83,4.85,4.88
372.83,6.59,1.71,6.58,1.70,-1.72,-1.65,-1.12,4.87,4.86,4.88
376.56,6.55,1.67,6.51,1.64,-1.64,-1.59,-1.04,4.90,4.86,4.88
380.33,6.42,1.56,6.45,1.58,-1.57,-1.52,-0.95,4.84,4.87,4.86
384.13,6.35,1.49,6.39,1.53,-1.51,-1.45,-0.87,4.84,4.88,4.86
387.97,6.35,1.50,6.32,1.47,-1.44,-1.39,-0.78,4.91,4.88,4.85
391.85,6.27,1.43,6.23,1.39,-1.38,-1.32,-0.70,4.89,4.86,4.84
395.77,6.11,1.28,6.13,1.30,-1.30,-1.25,-0.62,4.80,4.82,4.83
399.73,5.98,1.16,6.02,1.20,-1.23,-1.18,-0.54,4.75,4.79,4.82
403.72,5.95,1.14,5.93,1.13,-1.15,-1.11,-0.47,4.80,4.78,4.80
407.76,5.88,1.10,5.86,1.07,-1.07,-1.04,-0.39,4.81,4.79,4.78
411.84,5.77,1.00,5.78,1.01,-0.98,-0.97,-0.31,4.78,4.79,4.77
415.96,5.67,0.91,5.68,0.92,-0.90,-0.90,-0.24,4.77,4.77,4.76
420.12,5.59,0.84,5.57,0.82,-0.82,-0.83,-0.16,4.77,4.75,4.75
424.32,5.47,0.72,5.48,0.73,-0.74,-0.76,-0.09,4.73,4.74,4.75
428.56,5.39,0.64,5.40,0.65,-0.66,-0.68,-0.02,4.73,4.74,4.75
432.85,5.34,0.58,5.32,0.56,-0.57,-0.61,0.06,4.77,4.75,4.76
437.18,5.26,0.48,5.26,0.49,-0.48,-0.53,0.13,4.78,4.78,4.78
441.55,5.18,0.38,5.21,0.41,-0.39,-0.46,0.20,4.78,4.81,4.79
445.96,5.17,0.35,5.15,0.32,-0.31,-0.38,0.27,4.85,4.83,4.82
450.42,5.10,0.24,5.08,0.22,-0.23,-0.31,0.34,4.87,4.84,4.86
454.93,5.01,0.11,5.03,0.12,-0.15,-0.23,0.40,4.86,4.88,4.90
459.48,4.95,-0.00,4.99,0.04,-0.05,-0.15,0.47,4.89,4.94,4.95
464.07,5.00,0.01,4.97,-0.02,0.04,-0.07,0.54,5.04,5.01,4.99
468.71,4.97,-0.07,4.94,-0.10,0.14,0.01,0.60,5.11,5.08,5.04
473.40,4.87,-0.22,4.88,-0.21,0.23,0.09,0.66,5.10,5.12,5.09
478.13,4.79,-0.35,4.80,-0.34,0.33,0.17,0.73,5.12,5.13,5.14
482.91,4.72,-0.46,4.72,-0.46,0.42,0.26,0.79,5.14,5.14,5.18
487.74,4.67,-0.55,4.67,-0.55,0.52,0.34,0.85,5.19,5.19,5.22
492.62,4.61,-0.64,4.62,-0.62,0.62,0.43,0.91,5.23,5.24,5.25
497.55,4.58,-0.69,4.57,-0.70,0.71,0.51,0.97,5.29,5.28,5.27
