frequency,raw,error,smoothed,error_smoothed,equalization,parametric_eq,fixed_band_eq,equalized_raw,equalized_smoothed,target
20.00,10.47,4.64,10.47,4.64,-4.64,-5.62,-5.09,5.83,5.83,5.83
20.20,10.69,4.77,10.69,4.77,-4.77,-5.72,-5.22,5.92,5.92,5.92
20.40,10.91,4.90,10.91,4.90,-4.90,-5.82,-5.36,6.01,6.01,6.01
20.61,11.12,5.05,11.13,5.04,-5.04,-5.92,-5.50,6.08,6.09,6.08
20.81,11.35,5.18,11.35,5.18,-5.18,-6.02,-5.64,6.17,6.16,6.17
21.02,11.57,5.32,11.57,5.33,-5.33,-6.12,-5.79,6.24,6.24,6.25
21.23,11.79,5.48,11.79,5.48,-5.48,-6.22,-5.94,6.31,6.31,6.31
21.44,12.01,5.64,12.01,5.63,-5.64,-6.33,-6.10,6.37,6.37,6.37
21.66,12.22,5.79,12.23,5.80,-5.80,-6.44,-6.26,6.43,6.43,6.44
21.87,12.45,5.96,12.45,5.96,-5.96,-6.55,-6.42,6.49,6.49,6.49
22.09,12.67,6.13,12.67,6.13,-6.13,-6.66,-6.59,6.54,6.54,6.54
22.31,12.89,6.30,12.89,6.30,-6.31,-6.77,-6.76,6.58,6.59,6.59
22.54,13.11,6.48,13.11,6.48,-6.48,-6.88,-6.94,6.63,6.63,6.64
22.76,13.34,6.66,13.34,6.66,-6.66,-7.00,-7.12,6.68,6.68,6.68
22.99,13.56,6.84,13.56,6.84,-6.84,-7.12,-7.31,6.72,6.72,6.72
23.22,13.78,7.02,13.78,7.02,-7.01,-7.24,-7.50,6.76,6.76,6.75
23.45,14.00,7.19,14.00,7.20,-7.19,-7.36,-7.69,6.80,6.80,6.80
23.69,14.21,7.37,14.22,7.37,-7.37,-7.49,-7.89,6.84,6.85,6.84
23.92,14.44,7.55,14.44,7.55,-7.55,-7.61,-8.10,6.89,6.89,6.88
24.16,14.66,7.72,14.65,7.72,-7.73,-7.74,-8.31,6.93,6.93,6.93
24.40,14.87,7.90,14.87,7.90,-7.90,-7.87,-8.52,6.97,6.97,6.97
24.65,15.08,8.08,15.09,8.08,-8.08,-8.00,-8.74,7.00,7.01,7.00
24.89,15.31,8.27,15.30,8.26,-8.26,-8.14,-8.96,7.05,7.04,7.04
25.14,15.52,8.44,15.52,8.44,-8.44,-8.27,-9.19,7.08,7.08,7.08
25.39,15.74,8.62,15.74,8.62,-8.62,-8.41,-9.42,7.12,7.12,7.12
25.65,15.96,8.80,15.95,8.80,-8.80,-8.55,-9.65,7.16,7.16,7.16
25.91,16.16,8.97,16.17,8.98,-8.98,-8.69,-9.88,7.19,7.19,7.19
26.16,16.39,9.16,16.38,9.16,-9.16,-8.84,-10.12,7.23,7.23,7.23
26.43,16.59,9.34,16.60,9.33,-9.33,-8.98,-10.36,7.26,7.26,7.26
26.69,16.81,9.51,16.81,9.51,-9.51,-9.13,-10.60,7.30,7.30,7.30
26.96,17.02,9.69,17.02,9.68,-9.68,-9.28,-10.84,7.34,7.33,7.34
27.23,17.22,9.86,17.23,9.86,-9.86,-9.44,-11.08,7.36,7.37,7.37
27.50,17.44,10.03,17.43,10.03,-10.03,-9.59,-11.32,7.40,7.40,7.41
27.77,17.64,10.20,17.64,10.20,-10.20,-9.75,-11.55,7.43,7.44,7.44
28.05,17.85,10.37,17.85,10.38,-10.38,-9.91,-11.78,7.47,7.47,7.47
28.33,18.05,10.55,18.05,10.55,-10.54,-10.07,-12.01,7.50,7.50,7.49
28.62,18.24,10.71,18.25,10.71,-10.71,-10.23,-12.22,7.53,7.53,7.53
28.90,18.45,10.88,18.45,10.88,-10.88,-10.39,-12.43,7.57,7.57,7.57
29.19,18.65,11.05,18.65,11.04,-11.04,-10.56,-12.63,7.60,7.60,7.60
29.48,18.85,11.20,18.85,11.20,-11.20,-10.73,-12.82,7.64,7.64,7.65
29.78,19.03,11.37,19.04,11.37,-11.36,-10.89,-13.00,7.67,7.68,7.67
30.08,19.23,11.53,19.23,11.52,-11.52,-11.06,-13.16,7.71,7.71,7.71
30.38,19.41,11.68,19.42,11.68,-11.67,-11.24,-13.31,7.74,7.74,7.74
30.68,19.60,11.82,19.60,11.83,-11.82,-11.41,-13.44,7.77,7.77,7.78
30.99,19.77,11.98,19.77,11.97,-11.97,-11.58,-13.55,7.80,7.80,7.79
31.30,19.94,12.11,19.95,12.12,-12.12,-11.76,-13.64,7.82,7.83,7.83
31.61,20.13,12.26,20.12,12.26,-12.26,-11.93,-13.72,7.86,7.86,7.86
31.93,20.29,12.40,20.29,12.41,-12.41,-12.11,-13.78,7.89,7.89,7.89
32.24,20.47,12.56,20.46,12.55,-12.55,-12.28,-13.83,7.92,7.92,7.91
32.57,20.63,12.69,20.63,12.69,-12.69,-12.46,-13.85,7.94,7.94,7.94
32.89,20.80,12.82,20.79,12.82,-12.83,-12.63,-13.87,7.97,7.97,7.98
33.22,20.96,12.96,20.95,12.96,-12.96,-12.81,-13.87,8.00,7.99,8.00
33.55,21.11,13.09,21.11,13.10,-13.10,-12.98,-13.85,8.01,8.02,8.01
33.89,21.27,13.23,21.27,13.23,-13.23,-13.15,-13.83,8.04,8.04,8.03
34.23,21.42,13.36,21.42,13.36,-13.36,-13.32,-13.79,8.06,8.06,8.06
34.57,21.57,13.49,21.56,13.49,-13.49,-13.49,-13.75,8.08,8.08,8.08
34.92,21.70,13.62,21.71,13.61,-13.61,-13.66,-13.71,8.09,8.09,8.09
35.27,21.84,13.73,21.85,13.74,-13.74,-13.82,-13.66,8.10,8.11,8.11
35.62,21.99,13.86,21.99,13.86,-13.87,-13.98,-13.60,8.12,8.12,8.12
35.97,22.13,14.00,22.12,13.99,-13.99,-14.14,-13.55,8.14,8.13,8.13
36.33,22.26,14.11,22.26,14.12,-14.11,-14.30,-13.49,8.15,8.15,8.15
36.70,22.40,14.24,22.39,14.24,-14.23,-14.45,-13.44,8.16,8.16,8.16
37.06,22.53,14.36,22.52,14.36,-14.35,-14.59,-13.38,8.17,8.17,8.16
37.43,22.65,14.47,22.65,14.47,-14.47,-14.73,-13.33,8.17,8.18,8.18
37.81,22.78,14.59,22.77,14.59,-14.59,-14.87,-13.28,8.19,8.18,8.19
38.19,22.90,14.70,22.90,14.70,-14.71,-15.00,-13.24,8.19,8.19,8.20
38.57,23.02,14.81,23.02,14.82,-14.82,-15.13,-13.20,8.20,8.20,8.20
38.95,23.14,14.94,23.14,14.93,-14.93,-15.25,-13.17,8.21,8.20,8.20
39.34,23.25,15.05,23.25,15.05,-15.04,-15.36,-13.15,8.20,8.20,8.20
39.74,23.36,15.15,23.35,15.15,-15.15,-15.47,-13.13,8.20,8.20,8.20
40.14,23.46,15.25,23.46,15.26,-15.26,-15.57,-13.12,8.20,8.20,8.20
40.54,23.56,15.36,23.56,15.36,-15.36,-15.66,-13.11,8.20,8.20,8.20
40.94,23.67,15.46,23.66,15.46,-15.46,-15.75,-13.11,8.21,8.20,8.20
41.35,23.76,15.56,23.76,15.55,-15.55,-15.83,-13.12,8.21,8.21,8.20
41.76,23.85,15.64,23.85,15.64,-15.64,-15.91,-13.14,8.21,8.21,8.21
42.18,23.94,15.72,23.94,15.73,-15.73,-15.98,-13.17,8.21,8.21,8.21
42.60,24.03,15.82,24.03,15.81,-15.82,-16.05,-13.20,8.21,8.21,8.21
43.03,24.12,15.90,24.11,15.90,-15.91,-16.11,-13.25,8.21,8.21,8.21
43.46,24.20,15.99,24.20,15.99,-15.99,-16.16,-13.30,8.20,8.20,8.21
43.90,24.28,16.08,24.28,16.08,-16.08,-16.21,-13.36,8.19,8.20,8.20
44.33,24.36,16.17,24.36,16.17,-16.17,-16.25,-13.43,8.19,8.19,8.19
44.78,24.44,16.25,24.44,16.25,-16.25,-16.29,-13.51,8.19,8.19,8.19
45.23,24.52,16.33,24.51,16.33,-16.33,-16.33,-13.60,8.19,8.19,8.18
45.68,24.59,16.41,24.59,16.41,-16.40,-16.36,-13.69,8.18,8.18,8.18
46.13,24.66,16.49,24.66,16.48,-16.47,-16.39,-13.80,8.18,8.18,8.17
46.60,24.72,16.54,24.72,16.55,-16.54,-16.41,-13.91,8.17,8.18,8.17
47.06,24.79,16.61,24.78,16.60,-16.61,-16.44,-14.04,8.18,8.17,8.18
47.53,24.84,16.66,24.84,16.66,-16.67,-16.45,-14.17,8.17,8.17,8.17
48.01,24.90,16.71,24.90,16.72,-16.73,-16.47,-14.31,8.17,8.17,8.19
48.49,24.95,16.78,24.95,16.78,-16.79,-16.49,-14.46,8.16,8.16,8.17
48.97,25.01,16.84,25.01,16.84,-16.84,-16.50,-14.62,8.17,8.16,8.16
49.46,25.06,16.90,25.06,16.90,-16.89,-16.51,-14.79,8.17,8.17,8.16
49.96,25.11,16.96,25.11,16.95,-16.94,-16.52,-14.97,8.17,8.17,8.15
50.46,25.15,16.98,25.15,16.99,-16.98,-16.53,-15.16,8.17,8.17,8.17
50.96,25.19,17.01,25.18,17.02,-17.02,-16.54,-15.35,8.17,8.17,8.17
51.47,25.22,17.05,25.22,17.04,-17.05,-16.55,-15.56,8.17,8.17,8.16
51.99,25.25,17.07,25.25,17.07,-17.07,-16.56,-15.76,8.17,8.17,8.18
52.51,25.28,17.09,25.28,17.09,-17.09,-16.57,-15.98,8.18,8.18,8.19
53.03,25.31,17.11,25.30,17.11,-17.11,-16.58,-16.20,8.19,8.19,8.20
53.56,25.33,17.13,25.32,17.12,-17.13,-16.59,-16.43,8.20,8.20,8.20
54.10,25.34,17.14,25.34,17.14,-17.14,-16.60,-16.66,8.20,8.20,8.20
54.64,25.35,17.14,25.35,17.14,-17.14,-16.61,-16.89,8.20,8.21,8.21
55.18,25.36,17.15,25.35,17.14,-17.14,-16.62,-17.13,8.21,8.21,8.21
55.74,25.35,17.14,25.35,17.14,-17.14,-16.63,-17.36,8.21,8.21,8.21
56.29,25.34,17.13,25.34,17.13,-17.13,-16.64,-17.60,8.21,8.21,8.21
56.86,25.32,17.11,25.32,17.11,-17.11,-16.65,-17.82,8.20,8.20,8.21
57.42,25.29,17.09,25.29,17.09,-17.09,-16.66,-18.04,8.20,8.20,8.19
58.00,25.26,17.07,25.26,17.07,-17.06,-16.67,-18.25,8.20,8.20,8.19
58.58,25.22,17.03,25.22,17.03,-17.02,-16.69,-18.44,8.19,8.20,8.19
59.16,25.18,16.99,25.17,16.99,-16.98,-16.70,-18.62,8.19,8.19,8.18
59.76,25.12,16.94,25.12,16.94,-16.94,-16.71,-18.78,8.18,8.18,8.18
60.35,25.06,16.89,25.06,16.89,-16.90,-16.73,-18.92,8.16,8.16,8.17
60.96,24.99,16.83,24.99,16.84,-16.85,-16.74,-19.03,8.14,8.14,8.15
61.57,24.93,16.80,24.93,16.80,-16.80,-16.76,-19.11,8.12,8.12,8.13
62.18,24.87,16.76,24.87,16.76,-16.76,-16.78,-19.17,8.11,8.11,8.10
62.80,24.81,16.71,24.81,16.72,-16.71,-16.79,-19.19,8.09,8.09,8.10
63.43,24.75,16.68,24.75,16.67,-16.67,-16.81,-19.19,8.08,8.08,8.07
64.07,24.69,16.62,24.69,16.63,-16.62,-16.83,-19.16,8.07,8.07,8.06
64.71,24.64,16.58,24.63,16.58,-16.57,-16.84,-19.10,8.06,8.06,8.06
65.35,24.58,16.53,24.58,16.53,-16.52,-16.86,-19.01,8.05,8.05,8.05
66.01,24.52,16.48,24.52,16.48,-16.47,-16.88,-18.90,8.04,8.04,8.04
66.67,24.46,16.43,24.46,16.43,-16.43,-16.89,-18.78,8.03,8.03,8.03
67.33,24.41,16.38,24.41,16.38,-16.38,-16.91,-18.63,8.03,8.03,8.03
68.01,24.37,16.34,24.37,16.34,-16.34,-16.93,-18.48,8.03,8.03,8.03
68.69,24.34,16.31,24.33,16.31,-16.31,-16.95,-18.31,8.03,8.03,8.03
69.37,24.31,16.28,24.31,16.28,-16.28,-16.96,-18.13,8.02,8.03,8.03
70.07,24.30,16.27,24.29,16.26,-16.27,-16.98,-17.95,8.03,8.02,8.03
70.77,24.29,16.25,24.29,16.26,-16.27,-17.00,-17.77,8.02,8.02,8.03
71.48,24.30,16.27,24.30,16.27,-16.27,-17.01,-17.59,8.02,8.02,8.03
72.19,24.32,16.29,24.32,16.29,-16.29,-17.03,-17.41,8.02,8.02,8.03
72.91,24.35,16.32,24.34,16.32,-16.32,-17.04,-17.23,8.03,8.02,8.02
73.64,24.38,16.37,24.37,16.36,-16.36,-17.06,-17.06,8.02,8.02,8.01
74.38,24.41,16.39,24.41,16.40,-16.40,-17.07,-16.89,8.01,8.01,8.01
75.12,24.46,16.45,24.46,16.45,-16.45,-17.09,-16.72,8.00,8.00,8.01
75.87,24.52,16.51,24.51,16.50,-16.51,-17.10,-16.57,8.01,8.00,8.01
76.63,24.57,16.56,24.57,16.57,-16.57,-17.11,-16.42,8.00,8.00,8.00
77.40,24.64,16.63,24.64,16.63,-16.63,-17.12,-16.28,8.00,8.00,8.01
78.17,24.71,16.71,24.70,16.70,-16.70,-17.13,-16.15,8.01,8.00,8.00
78.95,24.78,16.77,24.78,16.77,-16.77,-17.14,-16.03,8.01,8.01,8.01
79.74,24.85,16.83,24.85,16.83,-16.83,-17.15,-15.92,8.01,8.02,8.02
80.54,24.93,16.90,24.92,16.90,-16.90,-17.16,-15.81,8.03,8.02,8.03
81.35,25.00,16.96,25.00,16.96,-16.96,-17.17,-15.72,8.04,8.04,8.04
82.16,25.07,17.02,25.07,17.02,-17.01,-17.17,-15.63,8.05,8.06,8.05
82.98,25.14,17.06,25.13,17.07,-17.06,-17.18,-15.56,8.08,8.07,8.07
83.81,25.20,17.11,25.19,17.11,-17.10,-17.18,-15.49,8.10,8.09,8.08
84.65,25.24,17.15,25.24,17.14,-17.13,-17.19,-15.44,8.11,8.11,8.09
85.50,25.28,17.15,25.28,17.16,-17.15,-17.19,-15.40,8.12,8.12,8.13
86.35,25.31,17.16,25.30,17.17,-17.17,-17.19,-15.36,8.14,8.14,8.14
87.22,25.33,17.17,25.33,17.17,-17.18,-17.19,-15.34,8.15,8.15,8.16
88.09,25.35,17.18,25.35,17.17,-17.18,-17.19,-15.32,8.17,8.17,8.16
88.97,25.36,17.17,25.36,17.18,-17.18,-17.19,-15.32,8.18,8.18,8.19
89.86,25.37,17.17,25.37,17.18,-17.18,-17.19,-15.32,8.19,8.19,8.19
90.76,25.37,17.18,25.37,17.17,-17.17,-17.19,-15.34,8.20,8.19,8.19
91.66,25.36,17.16,25.36,17.17,-17.17,-17.18,-15.36,8.19,8.19,8.20
92.58,25.35,17.16,25.34,17.16,-17.16,-17.18,-15.39,8.19,8.19,8.18
93.51,25.33,17.14,25.33,17.14,-17.15,-17.17,-15.44,8.18,8.18,8.18
94.44,25.31,17.13,25.31,17.14,-17.14,-17.17,-15.49,8.17,8.17,8.18
95.39,25.29,17.13,25.28,17.13,-17.13,-17.16,-15.55,8.16,8.16,8.16
96.34,25.26,17.13,25.25,17.12,-17.11,-17.16,-15.63,8.15,8.14,8.13
97.30,25.21,17.10,25.21,17.10,-17.09,-17.15,-15.71,8.11,8.12,8.10
98.28,25.16,17.08,25.16,17.08,-17.07,-17.14,-15.80,8.08,8.08,8.07
99.26,25.10,17.05,25.10,17.06,-17.06,-17.13,-15.90,8.04,8.04,8.04
100.25,25.04,17.03,25.03,17.03,-17.04,-17.13,-16.00,8.00,8.00,8.01
101.25,24.98,17.01,24.98,17.01,-17.02,-17.12,-16.12,7.96,7.96,7.97
102.27,24.92,16.98,24.93,17.00,-17.00,-17.11,-16.24,7.92,7.93,7.94
103.29,24.89,17.00,24.88,16.99,-16.99,-17.10,-16.37,7.90,7.90,7.89
104.32,24.85,16.99,24.84,16.98,-16.97,-17.09,-16.51,7.87,7.86,7.86
105.37,24.80,16.98,24.80,16.98,-16.97,-17.09,-16.65,7.83,7.83,7.82
106.42,24.75,16.96,24.75,16.96,-16.97,-17.08,-16.80,7.78,7.78,7.79
107.48,24.72,16.97,24.71,16.97,-16.97,-17.07,-16.95,7.74,7.74,7.75
108.56,24.69,16.98,24.69,16.98,-16.98,-17.07,-17.10,7.71,7.71,7.71
109.64,24.67,16.99,24.67,16.99,-17.00,-17.06,-17.26,7.67,7.67,7.67
110.74,24.66,17.01,24.65,17.01,-17.02,-17.06,-17.41,7.64,7.64,7.64
111.85,24.65,17.02,24.65,17.03,-17.04,-17.05,-17.57,7.61,7.61,7.62
112.97,24.65,17.07,24.65,17.07,-17.07,-17.05,-17.72,7.58,7.58,7.58
114.10,24.66,17.10,24.66,17.10,-17.10,-17.05,-17.86,7.56,7.56,7.56
115.24,24.67,17.14,24.67,17.14,-17.13,-17.06,-18.00,7.54,7.54,7.53
116.39,24.68,17.17,24.67,17.17,-17.16,-17.06,-18.13,7.52,7.51,7.51
117.55,24.68,17.19,24.68,17.19,-17.19,-17.07,-18.25,7.49,7.49,7.48
118.73,24.68,17.21,24.68,17.21,-17.21,-17.08,-18.35,7.46,7.47,7.47
119.92,24.69,17.23,24.68,17.23,-17.23,-17.09,-18.44,7.45,7.45,7.46
121.12,24.69,17.24,24.69,17.25,-17.25,-17.10,-18.50,7.44,7.44,7.44
122.33,24.70,17.27,24.69,17.27,-17.27,-17.12,-18.55,7.43,7.43,7.43
123.55,24.70,17.28,24.69,17.28,-17.28,-17.13,-18.58,7.42,7.42,7.42
124.79,24.69,17.28,24.69,17.28,-17.28,-17.16,-18.59,7.40,7.40,7.40
126.03,24.68,17.29,24.68,17.29,-17.29,-17.18,-18.57,7.39,7.39,7.39
127.29,24.67,17.28,24.67,17.29,-17.29,-17.20,-18.53,7.38,7.38,7.38
128.57,24.65,17.29,24.64,17.28,-17.28,-17.22,-18.47,7.37,7.36,7.36
129.85,24.62,17.27,24.62,17.27,-17.27,-17.23,-18.39,7.35,7.35,7.35
131.15,24.58,17.24,24.59,17.25,-17.25,-17.24,-18.29,7.33,7.34,7.33
132.46,24.56,17.24,24.55,17.22,-17.23,-17.25,-18.17,7.33,7.32,7.32
133.79,24.51,17.19,24.51,17.19,-17.20,-17.24,-18.04,7.31,7.31,7.32
135.12,24.45,17.16,24.46,17.16,-17.16,-17.22,-17.89,7.28,7.29,7.29
136.48,24.41,17.12,24.40,17.12,-17.12,-17.19,-17.74,7.29,7.28,7.29
137.84,24.34,17.07,24.34,17.08,-17.07,-17.15,-17.58,7.26,7.27,7.27
139.22,24.28,17.04,24.27,17.03,-17.02,-17.09,-17.41,7.26,7.25,7.24
140.61,24.21,16.99,24.19,16.97,-16.96,-17.02,-17.23,7.24,7.23,7.22
142.02,24.09,16.88,24.10,16.90,-16.90,-16.94,-17.06,7.18,7.20,7.21
143.44,24.03,16.84,24.02,16.83,-16.84,-16.86,-16.88,7.19,7.18,7.19
144.87,23.92,16.75,23.93,16.76,-16.77,-16.76,-16.71,7.14,7.16,7.16
146.32,23.86,16.72,23.85,16.70,-16.70,-16.66,-16.54,7.16,7.15,7.14
147.78,23.75,16.62,23.75,16.63,-16.63,-16.56,-16.37,7.12,7.12,7.13
149.26,23.66,16.55,23.65,16.55,-16.55,-16.46,-16.20,7.11,7.10,7.11
150.75,23.53,16.47,23.54,16.47,-16.46,-16.36,-16.04,7.06,7.07,7.06
152.26,23.43,16.39,23.42,16.39,-16.38,-16.25,-15.89,7.05,7.05,7.04
153.78,23.30,16.28,23.30,16.29,-16.28,-16.15,-15.74,7.01,7.01,7.01
155.32,23.18,16.20,23.18,16.19,-16.18,-16.05,-15.60,6.99,6.99,6.98
156.88,23.03,16.07,23.03,16.08,-16.08,-15.95,-15.47,6.94,6.95,6.96
158.44,22.91,15.98,22.89,15.96,-15.97,-15.84,-15.35,6.93,6.91,6.92
160.03,22.72,15.83,22.75,15.86,-15.86,-15.74,-15.24,6.85,6.88,6.88
161.63,22.61,15.75,22.61,15.75,-15.75,-15.64,-15.13,6.86,6.86,6.85
163.24,22.49,15.66,22.46,15.63,-15.63,-15.54,-15.03,6.86,6.83,6.82
164.88,22.31,15.50,22.33,15.53,-15.51,-15.44,-14.94,6.80,6.82,6.80
166.53,22.17,15.39,22.17,15.40,-15.39,-15.34,-14.87,6.78,6.78,6.77
168.19,22.04,15.30,22.01,15.27,-15.27,-15.24,-14.80,6.77,6.74,6.73
169.87,21.85,15.13,21.87,15.16,-15.15,-15.15,-14.74,6.69,6.72,6.72
171.57,21.73,15.04,21.73,15.04,-15.05,-15.05,-14.68,6.68,6.68,6.69
173.29,21.62,14.96,21.59,14.92,-14.94,-14.96,-14.64,6.67,6.64,6.66
175.02,21.46,14.81,21.48,14.84,-14.85,-14.88,-14.61,6.60,6.62,6.64
176.77,21.37,14.76,21.38,14.77,-14.77,-14.80,-14.59,6.59,6.60,6.61
178.54,21.31,14.72,21.30,14.71,-14.71,-14.73,-14.58,6.60,6.59,6.58
180.32,21.24,14.67,21.23,14.66,-14.65,-14.67,-14.57,6.59,6.58,6.57
182.13,21.18,14.61,21.17,14.62,-14.61,-14.62,-14.58,6.57,6.56,6.56
183.95,21.11,14.57,21.12,14.58,-14.58,-14.58,-14.60,6.53,6.54,6.54
185.79,21.09,14.56,21.08,14.56,-14.56,-14.56,-14.62,6.52,6.52,6.53
187.65,21.07,14.55,21.06,14.55,-14.56,-14.55,-14.66,6.51,6.51,6.51
189.52,21.06,14.56,21.06,14.56,-14.56,-14.56,-14.70,6.49,6.50,6.50
191.42,21.07,14.58,21.07,14.58,-14.58,-14.59,-14.75,6.48,6.48,6.49
193.33,21.09,14.61,21.09,14.61,-14.61,-14.62,-14.81,6.47,6.47,6.47
195.27,21.12,14.65,21.12,14.66,-14.66,-14.67,-14.89,6.46,6.46,6.46
197.22,21.16,14.70,21.16,14.71,-14.71,-14.74,-14.97,6.45,6.45,6.45
199.19,21.21,14.79,21.21,14.78,-14.77,-14.81,-15.05,6.44,6.44,6.42
201.18,21.27,14.85,21.26,14.85,-14.84,-14.89,-15.15,6.42,6.42,6.42
203.19,21.33,14.92,21.33,14.92,-14.92,-14.97,-15.26,6.40,6.40,6.41
205.23,21.40,15.01,21.40,15.00,-15.01,-15.06,-15.37,6.38,6.39,6.39
207.28,21.48,15.09,21.48,15.09,-15.11,-15.15,-15.49,6.37,6.37,6.39
209.35,21.57,15.20,21.57,15.20,-15.20,-15.25,-15.61,6.36,6.36,6.37
211.44,21.67,15.31,21.67,15.30,-15.31,-15.34,-15.74,6.36,6.36,6.35
213.56,21.77,15.41,21.77,15.42,-15.41,-15.43,-15.88,6.36,6.36,6.35
215.69,21.87,15.51,21.87,15.52,-15.51,-15.52,-16.02,6.36,6.36,6.36
217.85,21.97,15.62,21.95,15.61,-15.60,-15.60,-16.16,6.36,6.35,6.35
220.03,22.03,15.70,22.03,15.70,-15.69,-15.69,-16.30,6.33,6.34,6.33
222.23,22.10,15.77,22.10,15.77,-15.77,-15.76,-16.44,6.32,6.33,6.32
224.45,22.18,15.84,22.18,15.85,-15.85,-15.83,-16.58,6.33,6.33,6.34
226.70,22.25,15.92,22.24,15.92,-15.92,-15.90,-16.72,6.33,6.33,6.33
228.96,22.31,15.98,22.30,15.97,-15.98,-15.96,-16.85,6.33,6.32,6.32
231.25,22.34,16.01,22.35,16.02,-16.03,-16.01,-16.96,6.31,6.32,6.33
233.57,22.38,16.06,22.38,16.07,-16.07,-16.05,-17.07,6.31,6.32,6.32
235.90,22.43,16.11,22.41,16.10,-16.10,-16.08,-17.16,6.33,6.32,6.31
238.26,22.43,16.13,22.43,16.13,-16.11,-16.11,-17.24,6.31,6.32,6.30
240.64,22.43,16.12,22.43,16.13,-16.12,-16.12,-17.29,6.31,6.31,6.30
243.05,22.42,16.12,22.41,16.12,-16.12,-16.13,-17.32,6.30,6.30,6.30
245.48,22.40,16.10,22.40,16.10,-16.10,-16.13,-17.33,6.29,6.29,6.30
247.93,22.37,16.07,22.37,16.08,-16.08,-16.11,-17.32,6.29,6.29,6.30
250.41,22.35,16.05,22.34,16.04,-16.05,-16.09,-17.27,6.30,6.30,6.29
252.92,22.31,16.00,22.31,16.00,-16.01,-16.06,-17.21,6.30,6.30,6.31
255.45,22.28,15.95,22.28,15.96,-15.96,-16.02,-17.11,6.32,6.32,6.32
258.00,22.24,15.91,22.24,15.91,-15.91,-15.97,-16.99,6.33,6.33,6.33
260.58,22.20,15.86,22.20,15.85,-15.85,-15.91,-16.85,6.35,6.35,6.33
263.19,22.15,15.79,22.14,15.79,-15.78,-15.84,-16.68,6.36,6.36,6.36
265.82,22.09,15.72,22.09,15.72,-15.72,-15.77,-16.50,6.37,6.37,6.37
268.48,22.03,15.64,22.03,15.65,-15.65,-15.70,-16.30,6.38,6.38,6.38
271.16,21.98,15.58,21.97,15.57,-15.58,-15.62,-16.08,6.39,6.39,6.40
273.87,21.91,15.49,21.91,15.50,-15.51,-15.53,-15.85,6.40,6.40,6.42
276.61,21.86,15.42,21.86,15.43,-15.44,-15.44,-15.62,6.42,6.42,6.43
279.38,21.80,15.36,21.80,15.36,-15.36,-15.35,-15.38,6.44,6.44,6.44
282.17,21.75,15.30,21.75,15.29,-15.28,-15.25,-15.13,6.47,6.47,6.45
284.99,21.69,15.21,21.68,15.21,-15.19,-15.15,-14.88,6.49,6.48,6.47
287.84,21.60,15.12,21.60,15.12,-15.10,-15.05,-14.63,6.49,6.50,6.48
290.72,21.51,15.01,21.51,15.01,-15.01,-14.95,-14.38,6.50,6.50,6.50
293.63,21.42,14.90,21.41,14.89,-14.90,-14.85,-14.13,6.51,6.51,6.52
296.57,21.32,14.77,21.32,14.79,-14.80,-14.74,-13.89,6.52,6.53,6.54
299.53,21.23,14.68,21.23,14.68,-14.68,-14.63,-13.65,6.54,6.55,6.55
302.53,21.15,14.58,21.14,14.57,-14.57,-14.52,-13.41,6.58,6.57,6.57
305.55,21.06,14.45,21.05,14.46,-14.45,-14.41,-13.18,6.60,6.60,6.61
308.61,20.97,14.34,20.96,14.34,-14.34,-14.29,-12.96,6.63,6.63,6.62
311.69,20.87,14.21,20.87,14.22,-14.22,-14.18,-12.74,6.65,6.66,6.65
314.81,20.79,14.10,20.79,14.10,-14.10,-14.06,-12.53,6.69,6.69,6.69
317.96,20.70,13.99,20.69,13.98,-13.98,-13.94,-12.33,6.72,6.72,6.71
321.14,20.60,13.86,20.59,13.85,-13.85,-13.82,-12.13,6.74,6.73,6.74
324.35,20.48,13.72,20.48,13.72,-13.73,-13.70,-11.94,6.74,6.75,6.75
327.59,20.37,13.58,20.38,13.60,-13.61,-13.57,-11.76,6.76,6.77,6.78
330.87,20.30,13.49,20.28,13.48,-13.48,-13.45,-11.59,6.81,6.80,6.81
334.18,20.20,13.37,20.19,13.36,-13.36,-13.32,-11.42,6.84,6.83,6.83
337.52,20.09,13.23,20.09,13.23,-13.23,-13.19,-11.26,6.86,6.86,6.86
340.90,19.99,13.10,19.99,13.10,-13.10,-13.05,-11.11,6.89,6.89,6.89
344.30,19.88,12.96,19.88,12.96,-12.96,-12.92,-10.96,6.92,6.91,6.92
347.75,19.77,12.83,19.76,12.82,-12.82,-12.78,-10.83,6.95,6.94,6.93
351.23,19.64,12.67,19.64,12.68,-12.67,-12.64,-10.70,6.96,6.97,6.96
354.74,19.52,12.52,19.51,12.53,-12.52,-12.49,-10.58,7.00,6.99,6.99
358.28,19.38,12.37,19.38,12.36,-12.36,-12.35,-10.46,7.01,7.02,7.01
361.87,19.25,12.21,19.24,12.20,-12.20,-12.20,-10.35,7.05,7.04,7.04
365.49,19.09,12.03,19.09,12.04,-12.04,-12.05,-10.25,7.05,7.06,7.06
369.14,18.95,11.87,18.95,11.87,-11.87,-11.89,-10.16,7.07,7.07,7.08
372.83,18.81,11.71,18.80,11.70,-11.71,-11.73,-10.07,7.10,7.09,7.10
376.56,18.66,11.54,18.66,11.54,-11.55,-11.57,-9.99,7.11,7.11,7.12
380.33,18.52,11.37,18.52,11.38,-11.39,-11.41,-9.92,7.13,7.13,7.14
384.13,18.38,11.22,18.38,11.23,-11.23,-11.24,-9.85,7.15,7.15,7.15
387.97,18.24,11.07,18.23,11.07,-11.06,-11.07,-9.78,7.17,7.17,7.16
391.85,18.09,10.91,18.08,10.91,-10.90,-10.90,-9.72,7.19,7.18,7.17
395.77,17.92,10.73,17.93,10.74,-10.73,-10.73,-9.67,7.18,7.19,7.19
