frequency,raw,error,smoothed,error_smoothed,equalization,parametric_eq,fixed_band_eq,equalized_raw,equalized_smoothed,target
20.00,1.77,-0.76,1.78,-0.76,0.80,0.67,0.25,2.57,2.57,2.53
20.20,1.77,-0.76,1.77,-0.77,0.78,0.67,0.26,2.55,2.55,2.53
20.40,1.77,-0.76,1.76,-0.77,0.77,0.67,0.27,2.54,2.53,2.53
20.61,1.77,-0.77,1.76,-0.77,0.75,0.67,0.28,2.52,2.51,2.54
20.81,1.77,-0.77,1.77,-0.77,0.73,0.67,0.28,2.50,2.50,2.54
21.02,1.77,-0.77,1.78,-0.76,0.71,0.66,0.29,2.48,2.50,2.54
21.23,1.82,-0.72,1.82,-0.73,0.69,0.66,0.30,2.51,2.51,2.54
21.44,1.87,-0.68,1.87,-0.68,0.67,0.66,0.31,2.54,2.54,2.55
21.66,1.92,-0.63,1.92,-0.63,0.64,0.65,0.32,2.56,2.57,2.55
21.87,1.97,-0.58,1.97,-0.59,0.61,0.65,0.32,2.58,2.58,2.55
22.09,2.00,-0.55,1.99,-0.56,0.59,0.65,0.33,2.59,2.58,2.55
22.31,2.00,-0.56,2.00,-0.55,0.57,0.64,0.34,2.57,2.57,2.56
22.54,2.00,-0.55,2.00,-0.55,0.55,0.64,0.35,2.55,2.56,2.55
22.76,2.00,-0.56,2.00,-0.56,0.55,0.64,0.36,2.55,2.55,2.56
22.99,2.00,-0.56,2.00,-0.56,0.55,0.63,0.37,2.55,2.55,2.56
23.22,2.00,-0.56,2.00,-0.56,0.55,0.63,0.38,2.55,2.55,2.56
23.45,2.00,-0.56,2.00,-0.56,0.56,0.63,0.39,2.56,2.56,2.56
23.69,2.00,-0.56,2.00,-0.56,0.56,0.62,0.40,2.56,2.56,2.56
23.92,2.00,-0.57,2.00,-0.56,0.56,0.62,0.41,2.56,2.56,2.57
24.16,2.00,-0.56,2.00,-0.56,0.56,0.61,0.42,2.56,2.56,2.56
24.40,2.00,-0.56,2.00,-0.56,0.56,0.61,0.43,2.56,2.56,2.56
24.65,2.00,-0.56,2.00,-0.55,0.55,0.61,0.44,2.55,2.55,2.56
24.89,2.00,-0.55,2.00,-0.55,0.55,0.60,0.46,2.55,2.55,2.55
25.14,2.00,-0.55,2.00,-0.54,0.54,0.60,0.47,2.54,2.54,2.55
25.39,2.00,-0.54,2.00,-0.54,0.54,0.59,0.48,2.54,2.54,2.53
25.65,2.00,-0.54,2.00,-0.53,0.53,0.59,0.49,2.53,2.53,2.53
25.91,2.00,-0.52,2.00,-0.53,0.53,0.58,0.50,2.53,2.53,2.52
26.16,2.00,-0.52,2.00,-0.52,0.52,0.58,0.51,2.52,2.52,2.52
26.43,2.00,-0.51,2.00,-0.52,0.52,0.57,0.52,2.52,2.52,2.51
26.69,2.00,-0.51,2.00,-0.51,0.51,0.57,0.53,2.51,2.51,2.51
26.96,2.00,-0.51,2.00,-0.51,0.51,0.56,0.54,2.51,2.51,2.51
27.23,2.00,-0.51,2.00,-0.51,0.51,0.56,0.55,2.51,2.51,2.51
27.50,2.00,-0.50,2.00,-0.50,0.51,0.55,0.56,2.51,2.51,2.50
27.77,2.00,-0.50,2.00,-0.50,0.51,0.54,0.56,2.51,2.51,2.50
28.05,2.00,-0.51,2.00,-0.50,0.51,0.54,0.57,2.51,2.51,2.51
28.33,2.00,-0.51,2.00,-0.51,0.51,0.53,0.58,2.51,2.51,2.51
28.62,2.00,-0.51,2.00,-0.51,0.52,0.53,0.58,2.52,2.52,2.51
28.90,2.00,-0.51,2.00,-0.51,0.52,0.52,0.59,2.52,2.52,2.51
29.19,2.00,-0.51,2.00,-0.51,0.51,0.51,0.59,2.51,2.51,2.51
29.48,2.00,-0.50,1.99,-0.51,0.49,0.51,0.60,2.49,2.48,2.50
29.78,2.00,-0.50,2.00,-0.50,0.46,0.50,0.60,2.46,2.46,2.50
30.08,2.02,-0.47,2.03,-0.46,0.43,0.49,0.60,2.45,2.46,2.49
30.38,2.09,-0.40,2.09,-0.40,0.39,0.49,0.60,2.48,2.48,2.49
30.68,2.16,-0.33,2.16,-0.33,0.35,0.48,0.60,2.51,2.51,2.49
30.99,2.23,-0.25,2.21,-0.27,0.31,0.47,0.60,2.54,2.52,2.48
31.30,2.23,-0.25,2.23,-0.24,0.28,0.47,0.59,2.51,2.51,2.48
31.61,2.23,-0.24,2.24,-0.23,0.25,0.46,0.59,2.48,2.48,2.47
31.93,2.23,-0.24,2.23,-0.23,0.23,0.45,0.58,2.46,2.46,2.46
32.24,2.23,-0.22,2.23,-0.22,0.21,0.44,0.58,2.44,2.44,2.45
32.57,2.23,-0.21,2.23,-0.22,0.21,0.44,0.57,2.44,2.44,2.44
32.89,2.23,-0.21,2.23,-0.21,0.21,0.43,0.56,2.43,2.43,2.44
33.22,2.23,-0.21,2.23,-0.21,0.20,0.42,0.55,2.43,2.43,2.44
33.55,2.23,-0.20,2.23,-0.20,0.20,0.41,0.54,2.43,2.43,2.43
33.89,2.23,-0.19,2.23,-0.19,0.19,0.41,0.53,2.42,2.42,2.42
34.23,2.23,-0.18,2.23,-0.18,0.18,0.40,0.52,2.41,2.41,2.41
34.57,2.23,-0.17,2.23,-0.18,0.18,0.39,0.50,2.41,2.41,2.40
34.92,2.23,-0.17,2.23,-0.17,0.17,0.38,0.49,2.40,2.40,2.40
35.27,2.23,-0.17,2.23,-0.17,0.17,0.37,0.48,2.40,2.40,2.40
35.62,2.23,-0.17,2.23,-0.16,0.16,0.37,0.46,2.39,2.39,2.40
35.97,2.23,-0.16,2.23,-0.16,0.16,0.36,0.45,2.39,2.39,2.38
36.33,2.23,-0.15,2.23,-0.15,0.16,0.35,0.43,2.38,2.38,2.38
36.70,2.23,-0.15,2.23,-0.15,0.15,0.34,0.41,2.38,2.38,2.38
37.06,2.23,-0.15,2.23,-0.15,0.15,0.33,0.40,2.38,2.38,2.38
37.43,2.23,-0.15,2.23,-0.15,0.15,0.32,0.38,2.38,2.38,2.38
37.81,2.23,-0.15,2.23,-0.15,0.15,0.31,0.36,2.38,2.38,2.38
38.19,2.23,-0.15,2.23,-0.15,0.15,0.30,0.34,2.38,2.38,2.38
38.57,2.23,-0.15,2.23,-0.15,0.15,0.30,0.33,2.38,2.38,2.38
38.95,2.23,-0.15,2.23,-0.15,0.15,0.29,0.31,2.38,2.38,2.37
39.34,2.23,-0.14,2.23,-0.14,0.14,0.28,0.29,2.37,2.37,2.37
39.74,2.23,-0.14,2.23,-0.14,0.14,0.27,0.27,2.37,2.37,2.37
40.14,2.23,-0.14,2.23,-0.14,0.14,0.26,0.25,2.37,2.37,2.37
40.54,2.23,-0.13,2.23,-0.13,0.13,0.25,0.24,2.36,2.36,2.36
40.94,2.23,-0.13,2.23,-0.13,0.12,0.24,0.22,2.35,2.35,2.36
41.35,2.23,-0.12,2.23,-0.12,0.11,0.23,0.20,2.34,2.34,2.34
41.76,2.23,-0.10,2.23,-0.10,0.10,0.22,0.18,2.33,2.33,2.33
42.18,2.23,-0.09,2.23,-0.09,0.09,0.21,0.16,2.32,2.32,2.32
42.60,2.23,-0.07,2.23,-0.07,0.07,0.20,0.15,2.30,2.30,2.30
43.03,2.23,-0.06,2.23,-0.06,0.06,0.19,0.13,2.29,2.29,2.29
43.46,2.23,-0.04,2.23,-0.04,0.04,0.18,0.11,2.27,2.27,2.26
43.90,2.23,-0.02,2.23,-0.02,0.02,0.17,0.09,2.25,2.25,2.25
44.33,2.23,-0.01,2.23,-0.00,0.01,0.16,0.08,2.23,2.23,2.24
44.78,2.23,0.01,2.23,0.01,-0.01,0.15,0.06,2.22,2.22,2.22
45.23,2.23,0.02,2.23,0.02,-0.02,0.14,0.04,2.21,2.21,2.21
45.68,2.23,0.04,2.23,0.04,-0.03,0.13,0.03,2.19,2.19,2.19
46.13,2.23,0.04,2.23,0.05,-0.04,0.12,0.01,2.18,2.18,2.18
46.60,2.23,0.05,2.23,0.05,-0.05,0.11,-0.01,2.18,2.18,2.18
47.06,2.23,0.06,2.23,0.06,-0.06,0.10,-0.03,2.17,2.17,2.17
47.53,2.23,0.06,2.23,0.06,-0.06,0.09,-0.04,2.17,2.17,2.17
48.01,2.23,0.06,2.23,0.06,-0.06,0.08,-0.06,2.17,2.17,2.17
48.49,2.23,0.06,2.23,0.06,-0.06,0.07,-0.07,2.17,2.17,2.17
48.97,2.23,0.05,2.23,0.05,-0.06,0.06,-0.09,2.17,2.17,2.18
49.46,2.23,0.05,2.23,0.05,-0.06,0.05,-0.11,2.17,2.17,2.18
49.96,2.23,0.05,2.23,0.04,-0.06,0.03,-0.12,2.17,2.17,2.18
50.46,2.23,0.03,2.23,0.04,-0.04,0.02,-0.14,2.19,2.19,2.19
50.96,2.23,0.03,2.24,0.04,-0.03,0.01,-0.15,2.20,2.21,2.20
51.47,2.23,0.03,2.23,0.04,-0.01,0.00,-0.17,2.22,2.23,2.20
51.99,2.23,0.04,2.18,-0.01,0.02,-0.01,-0.18,2.25,2.20,2.19
52.51,2.11,-0.07,2.11,-0.07,0.06,-0.02,-0.20,2.17,2.18,2.18
53.03,2.00,-0.17,2.05,-0.12,0.11,-0.03,-0.21,2.11,2.17,2.17
53.56,2.00,-0.16,1.99,-0.17,0.18,-0.04,-0.22,2.18,2.17,2.16
54.10,1.98,-0.17,1.94,-0.21,0.25,-0.05,-0.24,2.23,2.19,2.15
54.64,1.85,-0.28,1.85,-0.28,0.33,-0.06,-0.25,2.18,2.18,2.13
55.18,1.73,-0.38,1.73,-0.39,0.40,-0.08,-0.26,2.13,2.13,2.11
55.74,1.60,-0.49,1.62,-0.47,0.44,-0.09,-0.27,2.04,2.06,2.09
56.29,1.54,-0.52,1.55,-0.51,0.46,-0.10,-0.28,2.00,2.01,2.06
56.86,1.54,-0.50,1.52,-0.52,0.44,-0.11,-0.29,1.98,1.96,2.04
57.42,1.54,-0.47,1.53,-0.48,0.41,-0.12,-0.30,1.95,1.93,2.01
58.00,1.54,-0.44,1.58,-0.40,0.35,-0.13,-0.31,1.89,1.93,1.97
58.58,1.67,-0.27,1.68,-0.26,0.28,-0.15,-0.32,1.95,1.96,1.94
59.16,1.81,-0.10,1.81,-0.10,0.18,-0.16,-0.32,1.99,1.99,1.91
59.76,1.94,0.06,1.87,-0.00,0.09,-0.17,-0.33,2.02,1.96,1.88
60.35,1.91,0.07,1.88,0.04,-0.01,-0.18,-0.33,1.90,1.87,1.84
60.96,1.78,-0.03,1.88,0.07,-0.09,-0.20,-0.33,1.69,1.79,1.81
61.57,1.90,0.12,1.90,0.12,-0.17,-0.21,-0.33,1.73,1.73,1.78
62.18,2.00,0.25,1.95,0.20,-0.22,-0.22,-0.33,1.77,1.72,1.75
62.80,2.00,0.29,2.01,0.29,-0.27,-0.24,-0.33,1.73,1.73,1.71
63.43,2.00,0.33,2.01,0.34,-0.31,-0.26,-0.33,1.69,1.70,1.67
64.07,2.00,0.36,2.00,0.36,-0.36,-0.27,-0.33,1.64,1.64,1.64
64.71,2.00,0.40,2.00,0.40,-0.40,-0.29,-0.32,1.60,1.60,1.60
65.35,2.00,0.44,2.00,0.44,-0.44,-0.31,-0.32,1.56,1.56,1.56
66.01,2.00,0.47,2.00,0.47,-0.47,-0.33,-0.31,1.53,1.53,1.53
66.67,2.00,0.50,2.00,0.49,-0.50,-0.35,-0.31,1.50,1.50,1.50
67.33,2.00,0.52,2.00,0.52,-0.52,-0.37,-0.30,1.48,1.48,1.48
68.01,2.00,0.55,2.00,0.54,-0.54,-0.40,-0.29,1.46,1.46,1.45
68.69,2.00,0.57,2.00,0.56,-0.56,-0.42,-0.28,1.44,1.44,1.43
69.37,2.00,0.58,2.00,0.58,-0.58,-0.45,-0.26,1.42,1.42,1.42
70.07,2.00,0.59,2.00,0.59,-0.59,-0.48,-0.25,1.41,1.41,1.41
70.77,2.00,0.60,2.00,0.60,-0.60,-0.52,-0.24,1.40,1.40,1.40
71.48,2.00,0.61,2.00,0.61,-0.61,-0.56,-0.23,1.39,1.39,1.38
72.19,2.00,0.63,2.00,0.62,-0.63,-0.59,-0.21,1.37,1.37,1.37
72.91,2.00,0.63,2.00,0.64,-0.64,-0.63,-0.20,1.36,1.36,1.37
73.64,2.00,0.65,2.00,0.65,-0.65,-0.67,-0.18,1.35,1.35,1.35
74.38,2.00,0.66,2.00,0.66,-0.67,-0.71,-0.16,1.33,1.33,1.34
75.12,2.00,0.68,2.00,0.68,-0.69,-0.74,-0.15,1.31,1.31,1.32
75.87,2.00,0.71,2.00,0.70,-0.71,-0.77,-0.13,1.29,1.29,1.29
76.63,2.00,0.72,2.00,0.72,-0.74,-0.78,-0.11,1.26,1.26,1.28
77.40,2.00,0.74,2.00,0.74,-0.75,-0.79,-0.09,1.24,1.24,1.26
78.17,2.00,0.76,2.01,0.77,-0.76,-0.78,-0.08,1.24,1.24,1.24
78.95,2.00,0.79,2.00,0.79,-0.76,-0.75,-0.06,1.24,1.25,1.21
79.74,2.00,0.81,1.97,0.78,-0.74,-0.72,-0.04,1.26,1.23,1.19
80.54,1.92,0.75,1.92,0.75,-0.72,-0.67,-0.02,1.20,1.20,1.17
81.35,1.82,0.67,1.84,0.69,-0.68,-0.62,0.00,1.14,1.16,1.15
82.16,1.75,0.62,1.74,0.61,-0.63,-0.56,0.02,1.11,1.11,1.13
82.98,1.67,0.56,1.66,0.55,-0.58,-0.51,0.04,1.09,1.08,1.11
83.81,1.56,0.46,1.59,0.50,-0.53,-0.45,0.06,1.03,1.07,1.10
84.65,1.54,0.47,1.53,0.45,-0.46,-0.39,0.08,1.07,1.06,1.07
85.50,1.48,0.42,1.46,0.40,-0.40,-0.34,0.10,1.08,1.06,1.06
86.35,1.38,0.33,1.40,0.35,-0.33,-0.29,0.12,1.05,1.07,1.05
87.22,1.30,0.27,1.32,0.29,-0.25,-0.24,0.15,1.05,1.06,1.03
88.09,1.25,0.23,1.21,0.19,-0.17,-0.19,0.17,1.08,1.04,1.02
88.97,1.10,0.10,1.10,0.10,-0.09,-0.15,0.19,1.01,1.01,1.00
89.86,0.93,-0.05,0.96,-0.02,0.01,-0.10,0.21,0.94,0.97,0.98
90.76,0.85,-0.11,0.83,-0.13,0.11,-0.06,0.23,0.96,0.94,0.96
91.66,0.70,-0.24,0.72,-0.22,0.21,-0.02,0.26,0.90,0.93,0.94
92.58,0.63,-0.30,0.62,-0.30,0.30,0.02,0.28,0.93,0.92,0.93
93.51,0.53,-0.38,0.52,-0.39,0.38,0.07,0.30,0.91,0.91,0.91
94.44,0.42,-0.47,0.41,-0.48,0.47,0.11,0.32,0.89,0.88,0.89
95.39,0.31,-0.56,0.30,-0.57,0.55,0.15,0.35,0.86,0.85,0.87
96.34,0.18,-0.68,0.24,-0.62,0.63,0.18,0.37,0.81,0.87,0.85
97.30,0.18,-0.66,0.17,-0.67,0.72,0.22,0.39,0.90,0.88,0.84
98.28,0.13,-0.69,0.05,-0.76,0.80,0.26,0.41,0.93,0.85,0.82
99.26,-0.08,-0.88,-0.07,-0.87,0.88,0.30,0.44,0.80,0.81,0.80
100.25,-0.28,-1.05,-0.20,-0.97,0.95,0.34,0.46,0.67,0.76,0.77
101.25,-0.28,-1.03,-0.30,-1.05,1.02,0.38,0.48,0.74,0.72,0.75
102.27,-0.31,-1.03,-0.36,-1.09,1.07,0.42,0.50,0.76,0.70,0.72
103.29,-0.43,-1.12,-0.42,-1.11,1.11,0.46,0.52,0.68,0.69,0.69
104.32,-0.51,-1.16,-0.48,-1.14,1.13,0.50,0.54,0.62,0.65,0.65
105.37,-0.51,-1.12,-0.52,-1.13,1.12,0.54,0.56,0.61,0.61,0.61
106.42,-0.51,-1.08,-0.52,-1.09,1.10,0.58,0.58,0.59,0.58,0.57
107.48,-0.51,-1.04,-0.51,-1.03,1.05,0.61,0.60,0.54,0.54,0.52
108.56,-0.51,-0.98,-0.53,-1.00,0.98,0.65,0.62,0.47,0.45,0.47
109.64,-0.51,-0.93,-0.50,-0.92,0.89,0.69,0.63,0.38,0.39,0.42
110.74,-0.50,-0.87,-0.44,-0.81,0.79,0.72,0.65,0.29,0.34,0.37
111.85,-0.31,-0.63,-0.38,-0.69,0.67,0.75,0.66,0.36,0.29,0.32
112.97,-0.28,-0.54,-0.27,-0.54,0.55,0.79,0.67,0.27,0.28,0.26
114.10,-0.23,-0.44,-0.17,-0.38,0.42,0.82,0.68,0.18,0.24,0.21
115.24,-0.05,-0.21,-0.13,-0.29,0.28,0.84,0.69,0.23,0.15,0.16
116.39,-0.05,-0.17,-0.05,-0.16,0.15,0.87,0.69,0.09,0.10,0.11
117.55,-0.04,-0.11,0.03,-0.04,0.03,0.89,0.69,-0.01,0.06,0.07
118.73,0.12,0.09,0.09,0.06,-0.06,0.91,0.69,0.06,0.02,0.03
119.92,0.18,0.19,0.16,0.17,-0.14,0.93,0.69,0.04,0.02,-0.01
121.12,0.18,0.22,0.20,0.24,-0.19,0.94,0.69,-0.01,0.01,-0.04
122.33,0.18,0.26,0.15,0.23,-0.21,0.95,0.68,-0.03,-0.06,-0.08
123.55,0.08,0.19,0.08,0.19,-0.20,0.95,0.67,-0.12,-0.12,-0.11
124.79,-0.04,0.10,0.01,0.15,-0.16,0.95,0.66,-0.20,-0.15,-0.14
126.03,-0.05,0.12,-0.06,0.11,-0.09,0.95,0.64,-0.14,-0.15,-0.17
127.29,-0.13,0.06,-0.16,0.04,0.00,0.94,0.62,-0.13,-0.16,-0.19
128.57,-0.28,-0.05,-0.32,-0.10,0.11,0.93,0.60,-0.17,-0.21,-0.23
129.85,-0.54,-0.29,-0.51,-0.26,0.24,0.91,0.58,-0.31,-0.27,-0.25
131.15,-0.74,-0.47,-0.66,-0.38,0.36,0.89,0.55,-0.38,-0.29,-0.27
132.46,-0.74,-0.44,-0.80,-0.50,0.50,0.86,0.52,-0.24,-0.31,-0.30
133.79,-0.88,-0.54,-0.92,-0.59,0.62,0.83,0.49,-0.26,-0.30,-0.34
135.12,-1.12,-0.76,-1.08,-0.71,0.74,0.79,0.45,-0.38,-0.34,-0.36
136.48,-1.23,-0.84,-1.25,-0.86,0.82,0.75,0.42,-0.41,-0.43,-0.39
137.84,-1.40,-0.98,-1.37,-0.95,0.89,0.71,0.38,-0.52,-0.48,-0.42
139.22,-1.42,-0.98,-1.42,-0.97,0.93,0.66,0.34,-0.49,-0.49,-0.44
140.61,-1.42,-0.95,-1.44,-0.97,0.95,0.60,0.29,-0.47,-0.48,-0.47
142.02,-1.42,-0.92,-1.42,-0.93,0.96,0.55,0.25,-0.46,-0.46,-0.50
143.44,-1.42,-0.90,-1.42,-0.90,0.94,0.49,0.20,-0.48,-0.48,-0.52
144.87,-1.42,-0.87,-1.42,-0.87,0.89,0.42,0.15,-0.53,-0.53,-0.55
146.32,-1.42,-0.83,-1.43,-0.84,0.83,0.35,0.10,-0.59,-0.60,-0.59
147.78,-1.42,-0.80,-1.42,-0.80,0.76,0.28,0.05,-0.66,-0.67,-0.62
149.26,-1.42,-0.76,-1.39,-0.72,0.68,0.21,-0.00,-0.74,-0.71,-0.66
150.75,-1.32,-0.62,-1.32,-0.62,0.60,0.13,-0.06,-0.72,-0.72,-0.71
152.26,-1.23,-0.48,-1.25,-0.50,0.52,0.06,-0.12,-0.71,-0.73,-0.75
153.78,-1.19,-0.39,-1.20,-0.39,0.45,-0.02,-0.17,-0.74,-0.75,-0.80
155.32,-1.19,-0.33,-1.18,-0.33,0.39,-0.10,-0.23,-0.80,-0.79,-0.86
156.88,-1.19,-0.28,-1.19,-0.28,0.34,-0.18,-0.29,-0.85,-0.85,-0.91
158.44,-1.19,-0.24,-1.19,-0.24,0.29,-0.27,-0.35,-0.90,-0.90,-0.95
160.03,-1.19,-0.20,-1.19,-0.20,0.22,-0.35,-0.41,-0.97,-0.97,-0.99
161.63,-1.19,-0.16,-1.22,-0.19,0.13,-0.43,-0.47,-1.06,-1.09,-1.03
163.24,-1.19,-0.13,-1.21,-0.14,0.01,-0.51,-0.53,-1.18,-1.20,-1.06
164.88,-1.19,-0.10,-1.11,-0.01,-0.14,-0.60,-0.60,-1.33,-1.24,-1.09
166.53,-0.89,0.22,-0.88,0.23,-0.32,-0.68,-0.66,-1.21,-1.20,-1.11
168.19,-0.57,0.56,-0.59,0.54,-0.52,-0.76,-0.73,-1.09,-1.12,-1.13
169.87,-0.25,0.89,-0.29,0.85,-0.74,-0.85,-0.79,-0.99,-1.03,-1.14
171.57,-0.09,1.05,-0.08,1.06,-0.96,-0.93,-0.86,-1.05,-1.04,-1.14
173.29,0.09,1.22,0.07,1.21,-1.17,-1.01,-0.93,-1.08,-1.09,-1.13
175.02,0.18,1.31,0.22,1.35,-1.34,-1.09,-1.00,-1.17,-1.12,-1.13
176.77,0.37,1.49,0.39,1.51,-1.49,-1.17,-1.06,-1.12,-1.10,-1.12
178.54,0.57,1.67,0.51,1.62,-1.60,-1.24,-1.13,-1.03,-1.09,-1.10
180.32,0.63,1.72,0.61,1.70,-1.68,-1.32,-1.20,-1.06,-1.08,-1.09
182.13,0.63,1.70,0.68,1.76,-1.76,-1.39,-1.28,-1.13,-1.08,-1.07
183.95,0.72,1.79,0.72,1.79,-1.84,-1.47,-1.35,-1.12,-1.11,-1.07
185.79,0.85,1.91,0.81,1.87,-1.91,-1.54,-1.42,-1.06,-1.10,-1.06
187.65,0.86,1.91,0.92,1.98,-1.98,-1.61,-1.49,-1.12,-1.06,-1.05
189.52,1.04,2.10,1.00,2.06,-2.05,-1.68,-1.57,-1.01,-1.05,-1.06
191.42,1.09,2.15,1.06,2.12,-2.12,-1.75,-1.64,-1.03,-1.06,-1.06
193.33,1.09,2.16,1.14,2.21,-2.18,-1.82,-1.72,-1.10,-1.04,-1.07
195.27,1.19,2.26,1.19,2.27,-2.26,-1.88,-1.79,-1.07,-1.06,-1.07
197.22,1.29,2.36,1.25,2.33,-2.33,-1.95,-1.87,-1.04,-1.08,-1.07
199.19,1.31,2.39,1.30,2.38,-2.40,-2.01,-1.95,-1.09,-1.10,-1.09
201.18,1.31,2.41,1.33,2.43,-2.46,-2.07,-2.02,-1.15,-1.12,-1.10
203.19,1.36,2.47,1.39,2.49,-2.52,-2.13,-2.10,-1.16,-1.13,-1.11
205.23,1.48,2.59,1.46,2.58,-2.57,-2.19,-2.18,-1.09,-1.12,-1.12
207.28,1.54,2.67,1.52,2.65,-2.62,-2.25,-2.25,-1.08,-1.10,-1.14
209.35,1.54,2.69,1.55,2.70,-2.66,-2.30,-2.33,-1.12,-1.11,-1.15
211.44,1.54,2.70,1.55,2.71,-2.69,-2.36,-2.40,-1.15,-1.15,-1.16
213.56,1.54,2.72,1.54,2.72,-2.71,-2.41,-2.48,-1.17,-1.17,-1.18
215.69,1.54,2.73,1.54,2.73,-2.73,-2.46,-2.55,-1.19,-1.19,-1.19
217.85,1.54,2.75,1.54,2.75,-2.75,-2.51,-2.62,-1.21,-1.21,-1.21
220.03,1.54,2.76,1.54,2.76,-2.77,-2.56,-2.69,-1.23,-1.23,-1.22
222.23,1.54,2.77,1.52,2.76,-2.80,-2.61,-2.76,-1.26,-1.27,-1.23
224.45,1.54,2.78,1.54,2.78,-2.83,-2.66,-2.83,-1.30,-1.29,-1.24
226.70,1.54,2.80,1.59,2.85,-2.88,-2.70,-2.89,-1.34,-1.29,-1.26
228.96,1.70,2.96,1.66,2.93,-2.93,-2.75,-2.95,-1.23,-1.26,-1.26
231.25,1.75,3.03,1.73,3.01,-2.97,-2.79,-3.01,-1.22,-1.24,-1.28
233.57,1.77,3.06,1.78,3.06,-3.01,-2.83,-3.07,-1.24,-1.23,-1.29
235.90,1.77,3.06,1.77,3.07,-3.04,-2.87,-3.12,-1.27,-1.27,-1.29
238.26,1.77,3.08,1.77,3.08,-3.06,-2.91,-3.17,-1.29,-1.29,-1.31
240.64,1.77,3.08,1.77,3.08,-3.08,-2.95,-3.21,-1.31,-1.31,-1.31
243.05,1.77,3.09,1.77,3.09,-3.10,-2.99,-3.25,-1.34,-1.34,-1.32
245.48,1.77,3.09,1.76,3.09,-3.13,-3.03,-3.29,-1.36,-1.36,-1.32
247.93,1.77,3.10,1.76,3.09,-3.15,-3.06,-3.32,-1.38,-1.39,-1.33
250.41,1.77,3.10,1.79,3.12,-3.17,-3.10,-3.35,-1.40,-1.38,-1.33
252.92,1.82,3.16,1.87,3.21,-3.19,-3.13,-3.38,-1.37,-1.32,-1.34
255.45,1.97,3.31,1.93,3.27,-3.20,-3.17,-3.40,-1.24,-1.28,-1.34
258.00,2.00,3.35,1.94,3.29,-3.22,-3.20,-3.41,-1.22,-1.28,-1.35
260.58,1.86,3.21,1.89,3.25,-3.22,-3.23,-3.43,-1.37,-1.33,-1.35
263.19,1.78,3.15,1.81,3.17,-3.22,-3.26,-3.44,-1.44,-1.41,-1.37
265.82,1.77,3.14,1.77,3.14,-3.19,-3.29,-3.44,-1.42,-1.42,-1.37
268.48,1.77,3.14,1.77,3.15,-3.15,-3.32,-3.44,-1.38,-1.38,-1.37
271.16,1.77,3.16,1.74,3.12,-3.09,-3.35,-3.44,-1.32,-1.35,-1.39
273.87,1.69,3.08,1.69,3.08,-3.02,-3.37,-3.44,-1.33,-1.33,-1.39
276.61,1.56,2.95,1.60,2.99,-2.95,-3.40,-3.44,-1.39,-1.35,-1.39
279.38,1.54,2.95,1.48,2.89,-2.89,-3.43,-3.43,-1.35,-1.40,-1.41
282.17,1.37,2.78,1.39,2.80,-2.83,-3.45,-3.42,-1.46,-1.44,-1.41
284.99,1.31,2.72,1.34,2.75,-2.78,-3.48,-3.41,-1.48,-1.45,-1.41
287.84,1.31,2.72,1.30,2.71,-2.75,-3.50,-3.40,-1.44,-1.46,-1.42
290.72,1.31,2.73,1.29,2.70,-2.74,-3.52,-3.39,-1.43,-1.45,-1.42
293.63,1.31,2.73,1.31,2.73,-2.75,-3.54,-3.38,-1.44,-1.43,-1.42
296.57,1.31,2.73,1.37,2.80,-2.78,-3.57,-3.37,-1.47,-1.41,-1.42
299.53,1.49,2.91,1.44,2.87,-2.84,-3.59,-3.35,-1.35,-1.40,-1.43
302.53,1.54,2.98,1.50,2.94,-2.92,-3.61,-3.34,-1.38,-1.42,-1.44
305.55,1.54,2.98,1.57,3.00,-3.01,-3.63,-3.33,-1.47,-1.44,-1.44
308.61,1.60,3.04,1.63,3.08,-3.11,-3.65,-3.33,-1.51,-1.47,-1.44
311.69,1.75,3.20,1.75,3.20,-3.22,-3.66,-3.32,-1.47,-1.46,-1.45
314.81,1.91,3.38,1.87,3.33,-3.33,-3.68,-3.31,-1.42,-1.47,-1.47
317.96,1.99,3.47,1.98,3.46,-3.45,-3.70,-3.31,-1.46,-1.48,-1.48
321.14,2.01,3.51,2.06,3.56,-3.57,-3.72,-3.30,-1.56,-1.51,-1.50
324.35,2.18,3.69,2.16,3.67,-3.68,-3.73,-3.30,-1.50,-1.52,-1.51
327.59,2.26,3.78,2.28,3.80,-3.77,-3.75,-3.31,-1.52,-1.50,-1.52
330.87,2.40,3.93,2.38,3.92,-3.86,-3.77,-3.31,-1.46,-1.48,-1.53
334.18,2.45,4.00,2.43,3.98,-3.93,-3.78,-3.31,-1.48,-1.50,-1.55
337.52,2.45,4.01,2.45,4.01,-4.00,-3.80,-3.32,-1.55,-1.54,-1.56
340.90,2.45,4.01,2.44,4.01,-4.05,-3.81,-3.33,-1.60,-1.61,-1.56
344.30,2.45,4.02,2.47,4.04,-4.10,-3.83,-3.35,-1.65,-1.63,-1.57
347.75,2.51,4.08,2.53,4.11,-4.14,-3.84,-3.36,-1.63,-1.61,-1.57
351.23,2.64,4.21,2.61,4.18,-4.18,-3.85,-3.38,-1.54,-1.57,-1.57
354.74,2.68,4.25,2.67,4.24,-4.21,-3.87,-3.40,-1.53,-1.54,-1.57
358.28,2.68,4.25,2.69,4.26,-4.24,-3.88,-3.43,-1.56,-1.55,-1.58
361.87,2.68,4.25,2.68,4.25,-4.25,-3.89,-3.46,-1.57,-1.57,-1.57
365.49,2.68,4.25,2.68,4.25,-4.25,-3.91,-3.48,-1.57,-1.56,-1.57
369.14,2.68,4.25,2.69,4.26,-4.22,-3.92,-3.52,-1.55,-1.53,-1.57
372.83,2.68,4.25,2.66,4.22,-4.19,-3.93,-3.55,-1.51,-1.53,-1.57
376.56,2.63,4.19,2.59,4.16,-4.15,-3.94,-3.59,-1.52,-1.55,-1.56
380.33,2.48,4.04,2.52,4.08,-4.11,-3.96,-3.63,-1.63,-1.59,-1.56
384.13,2.45,4.01,2.46,4.02,-4.07,-3.97,-3.67,-1.62,-1.61,-1.56
387.97,2.45,4.01,2.44,4.00,-4.04,-3.98,-3.71,-1.59,-1.61,-1.56
391.85,2.45,4.01,2.45,4.01,-4.02,-4.00,-3.76,-1.57,-1.57,-1.56
395.77,2.45,4.01,2.45,4.01,-4.00,-4.01,-3.81,-1.55,-1.55,-1.56
399.73,2.45,4.00,2.45,4.01,-3.99,-4.03,-3.86,-1.54,-1.54,-1.56
403.72,2.45,4.01,2.45,4.01,-3.99,-4.04,-3.91,-1.54,-1.54,-1.56
407.76,2.45,4.01,2.45,4.01,-3.99,-4.06,-3.96,-1.54,-1.54,-1.56
411.84,2.45,4.01,2.45,4.01,-3.99,-4.08,-4.01,-1.54,-1.54,-1.56
415.96,2.45,4.01,2.45,4.01,-3.99,-4.10,-4.07,-1.54,-1.54,-1.56
420.12,2.45,4.01,2.44,4.00,-4.01,-4.12,-4.12,-1.56,-1.57,-1.56
424.32,2.45,4.01,2.44,4.00,-4.04,-4.14,-4.18,-1.59,-1.60,-1.56
428.56,2.45,4.01,2.48,4.04,-4.09,-4.17,-4.23,-1.64,-1.60,-1.56
432.85,2.54,4.10,2.53,4.10,-4.15,-4.19,-4.28,-1.61,-1.61,-1.56
437.18,2.66,4.22,2.62,4.19,-4.21,-4.22,-4.33,-1.55,-1.59,-1.56
441.55,2.68,4.25,2.73,4.30,-4.28,-4.25,-4.39,-1.60,-1.55,-1.57
445.96,2.84,4.41,2.82,4.39,-4.35,-4.29,-4.43,-1.51,-1.53,-1.57
450.42,2.91,4.48,2.88,4.46,-4.41,-4.32,-4.48,-1.50,-1.52,-1.57
454.93,2.91,4.48,2.92,4.50,-4.45,-4.36,-4.52,-1.54,-1.53,-1.57
459.48,2.91,4.49,2.92,4.49,-4.48,-4.39,-4.56,-1.57,-1.57,-1.58
464.07,2.91,4.48,2.91,4.49,-4.50,-4.43,-4.60,-1.59,-1.59,-1.57
468.71,2.91,4.48,2.91,4.49,-4.50,-4.46,-4.63,-1.59,-1.59,-1.57
473.40,2.91,4.48,2.91,4.48,-4.50,-4.48,-4.66,-1.59,-1.59,-1.57
478.13,2.91,4.48,2.91,4.48,-4.50,-4.49,-4.68,-1.59,-1.59,-1.57
482.91,2.91,4.47,2.91,4.48,-4.49,-4.49,-4.70,-1.58,-1.58,-1.57
487.74,2.91,4.47,2.91,4.47,-4.48,-4.48,-4.71,-1.57,-1.57,-1.57
492.62,2.91,4.47,2.91,4.47,-4.46,-4.46,-4.71,-1.55,-1.55,-1.56
497.55,2.91,4.47,2.93,4.48,-4.43,-4.43,-4.71,-1.52,-1.51,-1.56
502.52,2.91,4.46,2.91,4.45,-4.40,-4.40,-4.71,-1.49,-1.49,-1.55
507.55,2.91,4.45,2.85,4.39,-4.36,-4.36,-4.69,-1.45,-1.51,-1.54
512.62,2.74,4.28,2.78,4.31,-4.33,-4.31,-4.68,-1.59,-1.55,-1.54
