frequency,raw,error,smoothed,error_smoothed,equalization,parametric_eq,fixed_band_eq,equalized_raw,equalized_smoothed,target
20.00,5.10,3.56,5.09,3.55,-3.53,-4.13,-2.57,1.57,1.56,1.54
20.20,5.13,3.59,5.14,3.60,-3.60,-4.17,-2.65,1.53,1.54,1.54
20.40,5.19,3.65,5.20,3.66,-3.67,-4.21,-2.72,1.52,1.53,1.54
20.61,5.26,3.72,5.26,3.72,-3.74,-4.26,-2.80,1.52,1.52,1.54
20.81,5.34,3.80,5.34,3.80,-3.81,-4.30,-2.88,1.53,1.52,1.54
21.02,5.42,3.88,5.42,3.88,-3.88,-4.34,-2.96,1.54,1.53,1.54
21.23,5.49,3.95,5.49,3.96,-3.96,-4.39,-3.04,1.53,1.54,1.54
21.44,5.57,4.03,5.57,4.03,-4.03,-4.43,-3.13,1.54,1.54,1.54
21.66,5.65,4.11,5.65,4.11,-4.11,-4.47,-3.21,1.54,1.54,1.54
21.87,5.72,4.18,5.72,4.18,-4.18,-4.52,-3.31,1.54,1.54,1.54
22.09,5.79,4.25,5.79,4.25,-4.25,-4.56,-3.40,1.54,1.54,1.54
22.31,5.86,4.32,5.86,4.32,-4.32,-4.61,-3.49,1.54,1.54,1.54
22.54,5.93,4.39,5.93,4.39,-4.39,-4.65,-3.59,1.54,1.54,1.54
22.76,6.00,4.46,6.00,4.46,-4.46,-4.69,-3.69,1.54,1.54,1.54
22.99,6.06,4.52,6.06,4.52,-4.52,-4.74,-3.79,1.54,1.54,1.54
23.22,6.12,4.58,6.12,4.58,-4.59,-4.78,-3.90,1.53,1.53,1.54
23.45,6.18,4.64,6.18,4.64,-4.65,-4.82,-4.01,1.53,1.53,1.54
23.69,6.24,4.70,6.25,4.71,-4.70,-4.87,-4.12,1.53,1.54,1.54
23.92,6.31,4.77,6.31,4.77,-4.76,-4.91,-4.23,1.55,1.54,1.54
24.16,6.37,4.83,6.36,4.83,-4.82,-4.96,-4.35,1.55,1.54,1.54
24.40,6.41,4.87,6.41,4.87,-4.88,-5.00,-4.46,1.53,1.54,1.54
24.65,6.46,4.92,6.46,4.92,-4.93,-5.04,-4.58,1.52,1.53,1.54
24.89,6.51,4.97,6.52,4.98,-4.99,-5.09,-4.70,1.52,1.53,1.54
25.14,6.59,5.05,6.58,5.05,-5.05,-5.13,-4.82,1.54,1.54,1.54
25.39,6.65,5.11,6.65,5.11,-5.10,-5.17,-4.94,1.55,1.54,1.54
25.65,6.70,5.16,6.70,5.17,-5.16,-5.22,-5.07,1.54,1.55,1.54
25.91,6.76,5.22,6.75,5.22,-5.21,-5.26,-5.19,1.54,1.54,1.54
26.16,6.80,5.26,6.80,5.27,-5.27,-5.30,-5.31,1.53,1.53,1.54
26.43,6.86,5.32,6.86,5.32,-5.32,-5.34,-5.44,1.53,1.53,1.54
26.69,6.91,5.37,6.91,5.37,-5.38,-5.39,-5.56,1.53,1.53,1.54
26.96,6.97,5.43,6.97,5.43,-5.43,-5.43,-5.68,1.54,1.54,1.54
27.23,7.02,5.48,7.02,5.48,-5.48,-5.47,-5.80,1.54,1.54,1.54
27.50,7.07,5.53,7.07,5.53,-5.53,-5.51,-5.92,1.54,1.54,1.54
27.77,7.11,5.57,7.11,5.58,-5.58,-5.56,-6.04,1.54,1.54,1.54
28.05,7.16,5.62,7.16,5.62,-5.62,-5.60,-6.15,1.54,1.54,1.54
28.33,7.21,5.67,7.21,5.67,-5.67,-5.64,-6.26,1.54,1.54,1.54
28.62,7.25,5.71,7.25,5.72,-5.72,-5.68,-6.36,1.53,1.54,1.54
28.90,7.30,5.76,7.30,5.76,-5.76,-5.72,-6.46,1.54,1.54,1.54
29.19,7.35,5.81,7.34,5.81,-5.81,-5.77,-6.55,1.54,1.54,1.54
29.48,7.39,5.85,7.40,5.86,-5.86,-5.81,-6.63,1.53,1.54,1.54
29.78,7.44,5.90,7.44,5.90,-5.90,-5.85,-6.71,1.54,1.54,1.54
30.08,7.50,5.96,7.49,5.95,-5.95,-5.89,-6.78,1.55,1.54,1.54
30.38,7.53,5.99,7.54,6.00,-6.00,-5.93,-6.85,1.53,1.54,1.54
30.68,7.58,6.04,7.59,6.05,-6.05,-5.97,-6.90,1.53,1.54,1.54
30.99,7.64,6.10,7.63,6.09,-6.09,-6.01,-6.95,1.54,1.54,1.54
31.30,7.69,6.15,7.68,6.15,-6.14,-6.05,-6.99,1.55,1.54,1.54
31.61,7.72,6.18,7.73,6.19,-6.19,-6.09,-7.03,1.53,1.54,1.54
31.93,7.78,6.24,7.77,6.23,-6.24,-6.13,-7.05,1.54,1.53,1.54
32.24,7.81,6.27,7.82,6.28,-6.28,-6.16,-7.06,1.53,1.53,1.54
32.57,7.86,6.32,7.86,6.33,-6.33,-6.20,-7.07,1.53,1.54,1.54
32.89,7.92,6.38,7.91,6.37,-6.37,-6.24,-7.07,1.55,1.54,1.54
33.22,7.95,6.41,7.96,6.42,-6.41,-6.28,-7.06,1.54,1.54,1.54
33.55,8.00,6.46,7.99,6.46,-6.46,-6.32,-7.05,1.54,1.54,1.54
33.89,8.03,6.49,8.03,6.50,-6.50,-6.35,-7.03,1.53,1.54,1.54
34.23,8.07,6.53,8.08,6.54,-6.54,-6.39,-7.01,1.53,1.54,1.54
34.57,8.12,6.58,8.11,6.57,-6.57,-6.43,-6.98,1.55,1.54,1.54
34.92,8.15,6.61,8.15,6.61,-6.61,-6.46,-6.95,1.54,1.54,1.54
35.27,8.18,6.64,8.18,6.65,-6.64,-6.50,-6.91,1.54,1.54,1.54
35.62,8.21,6.67,8.21,6.68,-6.68,-6.53,-6.88,1.53,1.53,1.54
35.97,8.26,6.72,8.25,6.71,-6.72,-6.57,-6.84,1.54,1.54,1.54
36.33,8.28,6.74,8.29,6.75,-6.75,-6.60,-6.80,1.53,1.54,1.54
36.70,8.33,6.79,8.33,6.79,-6.79,-6.64,-6.76,1.54,1.54,1.54
37.06,8.36,6.82,8.36,6.82,-6.83,-6.67,-6.72,1.54,1.54,1.54
37.43,8.40,6.86,8.40,6.86,-6.86,-6.70,-6.68,1.54,1.54,1.54
37.81,8.44,6.90,8.44,6.90,-6.90,-6.74,-6.64,1.54,1.54,1.54
38.19,8.48,6.94,8.48,6.94,-6.94,-6.77,-6.60,1.54,1.54,1.54
38.57,8.51,6.97,8.52,6.98,-6.98,-6.80,-6.57,1.53,1.54,1.54
38.95,8.56,7.02,8.55,7.02,-7.01,-6.83,-6.54,1.55,1.54,1.54
39.34,8.59,7.05,8.59,7.05,-7.05,-6.86,-6.51,1.54,1.54,1.54
39.74,8.62,7.08,8.63,7.09,-7.09,-6.89,-6.48,1.53,1.54,1.54
40.14,8.66,7.12,8.65,7.12,-7.12,-6.92,-6.46,1.54,1.53,1.54
40.54,8.69,7.15,8.69,7.15,-7.16,-6.95,-6.44,1.53,1.54,1.54
40.94,8.72,7.18,8.73,7.19,-7.19,-6.98,-6.43,1.53,1.54,1.54
41.35,8.77,7.23,8.76,7.22,-7.22,-7.01,-6.42,1.55,1.54,1.54
41.76,8.78,7.24,8.79,7.25,-7.25,-7.04,-6.41,1.54,1.54,1.54
42.18,8.82,7.28,8.81,7.28,-7.27,-7.07,-6.41,1.55,1.54,1.54
42.60,8.82,7.28,8.83,7.29,-7.29,-7.10,-6.41,1.53,1.54,1.54
43.03,8.86,7.32,8.85,7.31,-7.31,-7.12,-6.42,1.55,1.53,1.54
43.46,8.86,7.32,8.86,7.32,-7.33,-7.15,-6.43,1.53,1.53,1.54
43.90,8.86,7.32,8.88,7.34,-7.34,-7.17,-6.45,1.52,1.54,1.54
44.33,8.91,7.37,8.89,7.36,-7.35,-7.20,-6.47,1.56,1.54,1.54
44.78,8.91,7.37,8.90,7.37,-7.37,-7.22,-6.49,1.54,1.54,1.54
45.23,8.91,7.37,8.92,7.38,-7.38,-7.25,-6.53,1.53,1.54,1.54
45.68,8.91,7.37,8.93,7.39,-7.39,-7.27,-6.56,1.52,1.53,1.54
46.13,8.96,7.42,8.94,7.40,-7.41,-7.29,-6.60,1.55,1.53,1.54
46.60,8.96,7.42,8.96,7.42,-7.42,-7.32,-6.65,1.54,1.54,1.54
47.06,8.96,7.42,8.98,7.44,-7.43,-7.34,-6.70,1.53,1.54,1.54
47.53,9.00,7.46,8.98,7.45,-7.45,-7.36,-6.75,1.55,1.53,1.54
48.01,9.00,7.46,9.00,7.46,-7.46,-7.38,-6.81,1.54,1.54,1.54
48.49,9.00,7.46,9.02,7.48,-7.48,-7.40,-6.88,1.52,1.54,1.54
48.97,9.04,7.50,9.03,7.49,-7.49,-7.42,-6.94,1.55,1.54,1.54
49.46,9.05,7.51,9.04,7.50,-7.51,-7.44,-7.01,1.54,1.53,1.54
49.96,9.05,7.51,9.06,7.52,-7.52,-7.46,-7.09,1.53,1.54,1.54
50.46,9.05,7.51,9.07,7.53,-7.53,-7.48,-7.17,1.52,1.54,1.54
50.96,9.10,7.56,9.08,7.55,-7.54,-7.49,-7.25,1.56,1.54,1.54
51.47,9.10,7.56,9.09,7.56,-7.55,-7.51,-7.33,1.55,1.54,1.54
51.99,9.10,7.56,9.11,7.57,-7.56,-7.52,-7.41,1.54,1.54,1.54
52.51,9.10,7.56,9.11,7.57,-7.58,-7.54,-7.50,1.52,1.53,1.54
53.03,9.13,7.59,9.12,7.58,-7.59,-7.55,-7.59,1.54,1.53,1.54
53.56,9.14,7.60,9.14,7.60,-7.60,-7.57,-7.68,1.54,1.53,1.54
54.10,9.14,7.60,9.16,7.62,-7.62,-7.58,-7.76,1.52,1.54,1.54
54.64,9.18,7.64,9.17,7.63,-7.63,-7.60,-7.85,1.55,1.53,1.54
55.18,9.19,7.65,9.19,7.65,-7.65,-7.61,-7.94,1.54,1.54,1.54
55.74,9.19,7.65,9.21,7.67,-7.67,-7.62,-8.02,1.52,1.54,1.54
56.29,9.24,7.70,9.22,7.68,-7.68,-7.63,-8.10,1.56,1.54,1.54
56.86,9.24,7.70,9.24,7.70,-7.70,-7.64,-8.17,1.54,1.54,1.54
57.42,9.24,7.70,9.25,7.71,-7.71,-7.65,-8.25,1.53,1.54,1.54
58.00,9.26,7.72,9.26,7.72,-7.72,-7.66,-8.31,1.54,1.54,1.54
58.58,9.28,7.74,9.27,7.73,-7.73,-7.67,-8.37,1.55,1.54,1.54
59.16,9.28,7.74,9.28,7.74,-7.74,-7.68,-8.42,1.54,1.54,1.54
59.76,9.28,7.74,9.28,7.74,-7.74,-7.68,-8.47,1.54,1.54,1.54
60.35,9.28,7.74,9.28,7.74,-7.74,-7.69,-8.51,1.54,1.54,1.54
60.96,9.28,7.74,9.28,7.75,-7.74,-7.69,-8.53,1.54,1.55,1.54
61.57,9.28,7.74,9.28,7.74,-7.73,-7.70,-8.55,1.55,1.55,1.54
62.18,9.28,7.74,9.27,7.73,-7.73,-7.70,-8.56,1.55,1.54,1.54
62.80,9.24,7.70,9.25,7.71,-7.72,-7.71,-8.57,1.52,1.53,1.54
63.43,9.24,7.70,9.24,7.70,-7.72,-7.71,-8.56,1.52,1.52,1.54
64.07,9.24,7.70,9.24,7.70,-7.72,-7.71,-8.54,1.52,1.52,1.54
64.71,9.26,7.72,9.26,7.72,-7.72,-7.72,-8.51,1.54,1.53,1.54
65.35,9.27,7.73,9.27,7.73,-7.73,-7.72,-8.48,1.54,1.54,1.54
66.01,9.28,7.74,9.28,7.74,-7.73,-7.72,-8.43,1.55,1.55,1.54
66.67,9.28,7.74,9.28,7.74,-7.74,-7.72,-8.38,1.54,1.54,1.54
67.33,9.28,7.74,9.28,7.74,-7.74,-7.72,-8.32,1.54,1.54,1.54
68.01,9.28,7.74,9.28,7.74,-7.74,-7.72,-8.26,1.54,1.54,1.54
68.69,9.28,7.74,9.28,7.75,-7.74,-7.72,-8.19,1.54,1.54,1.54
69.37,9.28,7.74,9.28,7.74,-7.74,-7.71,-8.11,1.54,1.54,1.54
70.07,9.28,7.74,9.27,7.73,-7.73,-7.71,-8.03,1.55,1.54,1.54
70.77,9.24,7.70,9.25,7.72,-7.72,-7.71,-7.95,1.52,1.53,1.54
71.48,9.24,7.70,9.24,7.70,-7.71,-7.70,-7.87,1.53,1.53,1.54
72.19,9.24,7.70,9.24,7.70,-7.70,-7.70,-7.78,1.54,1.54,1.54
72.91,9.24,7.70,9.24,7.70,-7.69,-7.69,-7.70,1.55,1.55,1.54
73.64,9.24,7.70,9.22,7.69,-7.68,-7.69,-7.61,1.56,1.54,1.54
74.38,9.19,7.65,9.21,7.67,-7.67,-7.68,-7.52,1.52,1.53,1.54
75.12,9.19,7.65,9.19,7.65,-7.67,-7.67,-7.44,1.52,1.53,1.54
75.87,9.19,7.65,9.19,7.65,-7.66,-7.66,-7.35,1.53,1.53,1.54
76.63,9.19,7.65,9.19,7.65,-7.65,-7.65,-7.27,1.54,1.54,1.54
77.40,9.19,7.65,9.18,7.64,-7.63,-7.65,-7.19,1.56,1.55,1.54
78.17,9.16,7.62,9.17,7.63,-7.62,-7.64,-7.11,1.54,1.54,1.54
78.95,9.14,7.60,9.15,7.61,-7.61,-7.63,-7.04,1.53,1.54,1.54
79.74,9.14,7.60,9.13,7.59,-7.60,-7.61,-6.97,1.54,1.53,1.54
80.54,9.11,7.57,9.12,7.58,-7.58,-7.60,-6.91,1.53,1.54,1.54
81.35,9.10,7.56,9.10,7.57,-7.57,-7.59,-6.84,1.53,1.54,1.54
82.16,9.10,7.56,9.08,7.55,-7.55,-7.58,-6.79,1.55,1.54,1.54
82.98,9.06,7.52,9.07,7.54,-7.53,-7.56,-6.73,1.53,1.54,1.54
83.81,9.05,7.51,9.05,7.52,-7.51,-7.55,-6.68,1.54,1.54,1.54
84.65,9.05,7.51,9.03,7.49,-7.50,-7.54,-6.64,1.55,1.53,1.54
85.50,9.00,7.46,9.02,7.48,-7.48,-7.52,-6.60,1.52,1.54,1.54
86.35,9.00,7.46,9.00,7.46,-7.46,-7.51,-6.56,1.54,1.53,1.54
87.22,8.99,7.45,8.98,7.44,-7.45,-7.49,-6.53,1.54,1.54,1.54
88.09,8.96,7.42,8.97,7.43,-7.43,-7.47,-6.51,1.53,1.54,1.54
88.97,8.96,7.42,8.95,7.41,-7.41,-7.46,-6.49,1.55,1.54,1.54
89.86,8.92,7.38,8.93,7.39,-7.39,-7.44,-6.47,1.53,1.54,1.54
90.76,8.91,7.37,8.91,7.38,-7.37,-7.42,-6.46,1.54,1.54,1.54
91.66,8.91,7.37,8.89,7.35,-7.35,-7.40,-6.45,1.56,1.54,1.54
92.58,8.86,7.32,8.87,7.33,-7.33,-7.38,-6.45,1.53,1.54,1.54
93.51,8.85,7.31,8.85,7.31,-7.31,-7.36,-6.45,1.54,1.54,1.54
94.44,8.82,7.28,8.82,7.28,-7.29,-7.34,-6.46,1.53,1.53,1.54
95.39,8.81,7.27,8.80,7.27,-7.27,-7.32,-6.47,1.54,1.54,1.54
96.34,8.77,7.23,8.78,7.24,-7.24,-7.30,-6.49,1.53,1.54,1.54
97.30,8.77,7.23,8.76,7.22,-7.22,-7.28,-6.51,1.55,1.54,1.54
98.28,8.74,7.20,8.74,7.20,-7.20,-7.25,-6.54,1.54,1.54,1.54
99.26,8.72,7.18,8.72,7.18,-7.18,-7.23,-6.56,1.54,1.54,1.54
100.25,8.70,7.16,8.70,7.17,-7.17,-7.21,-6.59,1.53,1.54,1.54
101.25,8.68,7.14,8.68,7.15,-7.14,-7.18,-6.63,1.54,1.54,1.54
102.27,8.68,7.14,8.67,7.13,-7.12,-7.16,-6.66,1.56,1.54,1.54
103.29,8.63,7.09,8.64,7.10,-7.10,-7.14,-6.70,1.53,1.54,1.54
104.32,8.62,7.08,8.61,7.08,-7.08,-7.11,-6.74,1.54,1.54,1.54
105.37,8.58,7.04,8.59,7.05,-7.05,-7.08,-6.79,1.53,1.53,1.54
106.42,8.56,7.02,8.56,7.02,-7.02,-7.06,-6.83,1.54,1.54,1.54
107.48,8.54,7.00,8.53,6.99,-6.99,-7.03,-6.87,1.55,1.54,1.54
108.56,8.50,6.96,8.50,6.97,-6.96,-7.00,-6.92,1.54,1.54,1.54
109.64,8.47,6.93,8.47,6.93,-6.93,-6.98,-6.96,1.54,1.54,1.54
110.74,8.44,6.90,8.43,6.90,-6.90,-6.95,-7.00,1.54,1.53,1.54
111.85,8.40,6.86,8.40,6.87,-6.87,-6.92,-7.04,1.53,1.54,1.54
112.97,8.37,6.83,8.37,6.84,-6.84,-6.89,-7.08,1.53,1.53,1.54
114.10,8.35,6.81,8.34,6.80,-6.81,-6.86,-7.11,1.54,1.53,1.54
115.24,8.31,6.77,8.31,6.78,-6.78,-6.83,-7.14,1.54,1.54,1.54
116.39,8.28,6.74,8.29,6.75,-6.74,-6.80,-7.17,1.54,1.54,1.54
117.55,8.26,6.72,8.25,6.71,-6.71,-6.77,-7.19,1.55,1.54,1.54
118.73,8.22,6.68,8.22,6.68,-6.68,-6.74,-7.21,1.54,1.54,1.54
119.92,8.18,6.64,8.18,6.65,-6.65,-6.71,-7.21,1.53,1.54,1.54
121.12,8.15,6.61,8.15,6.61,-6.62,-6.68,-7.22,1.53,1.54,1.54
122.33,8.12,6.58,8.12,6.58,-6.58,-6.65,-7.21,1.54,1.54,1.54
123.55,8.09,6.55,8.09,6.55,-6.55,-6.61,-7.20,1.54,1.54,1.54
124.79,8.05,6.51,8.05,6.52,-6.51,-6.58,-7.18,1.54,1.54,1.54
126.03,8.02,6.48,8.01,6.48,-6.48,-6.55,-7.16,1.54,1.54,1.54
127.29,7.98,6.44,7.98,6.44,-6.45,-6.51,-7.12,1.53,1.54,1.54
128.57,7.94,6.40,7.95,6.41,-6.41,-6.48,-7.09,1.53,1.54,1.54
129.85,7.93,6.39,7.91,6.38,-6.38,-6.45,-7.04,1.55,1.53,1.54
131.15,7.88,6.34,7.89,6.35,-6.35,-6.41,-6.99,1.53,1.54,1.54
132.46,7.85,6.31,7.86,6.32,-6.32,-6.38,-6.92,1.53,1.54,1.54
133.79,7.84,6.30,7.83,6.29,-6.29,-6.34,-6.86,1.55,1.54,1.54
135.12,7.79,6.25,7.80,6.27,-6.26,-6.30,-6.79,1.53,1.54,1.54
136.48,7.78,6.24,7.77,6.23,-6.23,-6.27,-6.71,1.55,1.54,1.54
137.84,7.74,6.20,7.74,6.20,-6.20,-6.23,-6.63,1.54,1.54,1.54
139.22,7.70,6.16,7.71,6.18,-6.17,-6.20,-6.55,1.53,1.54,1.54
140.61,7.69,6.15,7.68,6.14,-6.14,-6.16,-6.46,1.55,1.54,1.54
142.02,7.65,6.11,7.65,6.11,-6.10,-6.12,-6.37,1.55,1.54,1.54
143.44,7.60,6.06,7.61,6.07,-6.07,-6.08,-6.28,1.53,1.54,1.54
144.87,7.57,6.03,7.57,6.03,-6.03,-6.05,-6.19,1.54,1.54,1.54
146.32,7.53,5.99,7.53,5.99,-5.99,-6.01,-6.09,1.54,1.53,1.54
147.78,7.49,5.95,7.49,5.95,-5.96,-5.97,-6.00,1.53,1.54,1.54
149.26,7.45,5.91,7.45,5.91,-5.92,-5.93,-5.90,1.53,1.54,1.54
150.75,7.42,5.88,7.41,5.88,-5.88,-5.89,-5.81,1.54,1.54,1.54
152.26,7.37,5.83,7.38,5.84,-5.84,-5.85,-5.72,1.53,1.54,1.54
153.78,7.34,5.80,7.34,5.80,-5.80,-5.81,-5.63,1.54,1.54,1.54
155.32,7.30,5.76,7.30,5.76,-5.76,-5.77,-5.54,1.54,1.54,1.54
156.88,7.25,5.71,7.26,5.72,-5.72,-5.73,-5.45,1.53,1.54,1.54
158.44,7.22,5.68,7.21,5.67,-5.67,-5.69,-5.36,1.55,1.54,1.54
160.03,7.16,5.62,7.17,5.63,-5.63,-5.65,-5.28,1.53,1.53,1.54
161.63,7.13,5.59,7.13,5.59,-5.59,-5.61,-5.20,1.54,1.54,1.54
163.24,7.08,5.54,7.08,5.54,-5.55,-5.56,-5.12,1.53,1.54,1.54
164.88,7.05,5.51,7.04,5.51,-5.50,-5.52,-5.05,1.55,1.54,1.54
166.53,6.99,5.45,7.00,5.46,-5.46,-5.48,-4.97,1.53,1.54,1.54
168.19,6.96,5.42,6.96,5.42,-5.42,-5.44,-4.91,1.54,1.54,1.54
169.87,6.91,5.37,6.91,5.37,-5.37,-5.39,-4.84,1.54,1.54,1.54
171.57,6.87,5.33,6.87,5.33,-5.33,-5.35,-4.78,1.54,1.54,1.54
173.29,6.82,5.28,6.82,5.28,-5.29,-5.31,-4.72,1.53,1.54,1.54
175.02,6.77,5.23,6.78,5.24,-5.24,-5.26,-4.67,1.53,1.54,1.54
176.77,6.74,5.20,6.73,5.20,-5.20,-5.22,-4.62,1.54,1.54,1.54
178.54,6.69,5.15,6.69,5.15,-5.15,-5.18,-4.57,1.54,1.54,1.54
180.32,6.65,5.11,6.65,5.11,-5.11,-5.13,-4.53,1.54,1.54,1.54
182.13,6.60,5.06,6.60,5.06,-5.06,-5.09,-4.49,1.54,1.54,1.54
183.95,6.55,5.01,6.55,5.01,-5.02,-5.04,-4.45,1.53,1.53,1.54
185.79,6.51,4.97,6.51,4.97,-4.97,-5.00,-4.41,1.54,1.54,1.54
187.65,6.46,4.92,6.46,4.93,-4.93,-4.95,-4.38,1.53,1.54,1.54
189.52,6.43,4.89,6.42,4.89,-4.88,-4.91,-4.36,1.55,1.54,1.54
191.42,6.37,4.83,6.38,4.84,-4.84,-4.86,-4.33,1.53,1.54,1.54
193.33,6.34,4.80,6.33,4.79,-4.79,-4.82,-4.31,1.55,1.54,1.54
195.27,6.28,4.74,6.28,4.75,-4.75,-4.77,-4.29,1.53,1.54,1.54
197.22,6.23,4.69,6.24,4.70,-4.70,-4.72,-4.27,1.53,1.54,1.54
199.19,6.20,4.66,6.19,4.65,-4.65,-4.68,-4.26,1.55,1.54,1.54
201.18,6.14,4.60,6.14,4.60,-4.60,-4.63,-4.25,1.54,1.54,1.54
203.19,6.09,4.55,6.09,4.55,-4.55,-4.58,-4.24,1.54,1.54,1.54
205.23,6.04,4.50,6.04,4.50,-4.50,-4.53,-4.23,1.54,1.54,1.54
207.28,5.99,4.45,5.99,4.46,-4.45,-4.49,-4.22,1.54,1.54,1.54
209.35,5.95,4.41,5.94,4.41,-4.40,-4.44,-4.22,1.55,1.54,1.54
211.44,5.89,4.35,5.89,4.35,-4.35,-4.39,-4.21,1.54,1.54,1.54
213.56,5.83,4.29,5.83,4.29,-4.30,-4.34,-4.21,1.53,1.54,1.54
215.69,5.77,4.23,5.78,4.24,-4.24,-4.29,-4.21,1.53,1.53,1.54
217.85,5.73,4.19,5.73,4.19,-4.19,-4.25,-4.21,1.54,1.53,1.54
220.03,5.68,4.14,5.67,4.14,-4.14,-4.20,-4.20,1.54,1.54,1.54
222.23,5.62,4.08,5.62,4.09,-4.09,-4.15,-4.20,1.53,1.54,1.54
224.45,5.57,4.03,5.57,4.04,-4.04,-4.10,-4.19,1.53,1.54,1.54
226.70,5.53,3.99,5.53,3.99,-3.99,-4.05,-4.19,1.54,1.54,1.54
228.96,5.48,3.94,5.48,3.94,-3.94,-4.00,-4.18,1.54,1.54,1.54
231.25,5.42,3.88,5.42,3.89,-3.88,-3.95,-4.17,1.54,1.54,1.54
233.57,5.37,3.83,5.37,3.83,-3.83,-3.90,-4.16,1.54,1.54,1.54
235.90,5.32,3.78,5.32,3.78,-3.78,-3.85,-4.15,1.54,1.54,1.54
238.26,5.27,3.73,5.27,3.73,-3.73,-3.80,-4.13,1.54,1.54,1.54
240.64,5.21,3.67,5.21,3.67,-3.67,-3.75,-4.11,1.54,1.54,1.54
243.05,5.16,3.62,5.16,3.62,-3.62,-3.70,-4.09,1.54,1.53,1.54
245.48,5.10,3.56,5.10,3.56,-3.57,-3.65,-4.06,1.53,1.53,1.54
247.93,5.05,3.51,5.05,3.52,-3.52,-3.60,-4.03,1.53,1.54,1.54
250.41,5.01,3.47,5.01,3.47,-3.47,-3.55,-3.99,1.54,1.54,1.54
252.92,4.96,3.42,4.96,3.42,-3.42,-3.50,-3.96,1.54,1.54,1.54
255.45,4.91,3.37,4.91,3.37,-3.37,-3.45,-3.91,1.54,1.54,1.54
258.00,4.85,3.31,4.86,3.32,-3.33,-3.39,-3.87,1.52,1.53,1.54
260.58,4.82,3.28,4.81,3.28,-3.28,-3.34,-3.82,1.54,1.53,1.54
263.19,4.77,3.23,4.77,3.24,-3.24,-3.29,-3.77,1.53,1.54,1.54
265.82,4.74,3.20,4.74,3.20,-3.19,-3.24,-3.71,1.55,1.54,1.54
268.48,4.69,3.15,4.69,3.15,-3.15,-3.19,-3.65,1.54,1.54,1.54
271.16,4.65,3.11,4.65,3.11,-3.11,-3.14,-3.59,1.54,1.54,1.54
273.87,4.60,3.06,4.60,3.06,-3.06,-3.08,-3.52,1.54,1.54,1.54
276.61,4.55,3.01,4.55,3.01,-3.02,-3.03,-3.46,1.53,1.54,1.54
279.38,4.50,2.96,4.50,2.96,-2.97,-2.98,-3.39,1.53,1.53,1.54
282.17,4.46,2.92,4.45,2.92,-2.92,-2.93,-3.32,1.54,1.53,1.54
284.99,4.40,2.86,4.41,2.87,-2.87,-2.88,-3.24,1.53,1.54,1.54
287.84,4.36,2.82,4.36,2.82,-2.82,-2.82,-3.17,1.54,1.54,1.54
290.72,4.31,2.77,4.31,2.77,-2.76,-2.77,-3.09,1.55,1.54,1.54
293.63,4.26,2.72,4.25,2.71,-2.71,-2.72,-3.02,1.55,1.54,1.54
296.57,4.19,2.65,4.20,2.66,-2.66,-2.67,-2.94,1.53,1.54,1.54
299.53,4.13,2.59,4.14,2.60,-2.61,-2.61,-2.86,1.52,1.53,1.54
302.53,4.10,2.56,4.09,2.55,-2.56,-2.56,-2.78,1.54,1.53,1.54
305.55,4.04,2.50,4.04,2.51,-2.51,-2.51,-2.71,1.53,1.54,1.54
308.61,3.99,2.45,4.00,2.46,-2.46,-2.46,-2.63,1.53,1.54,1.54
311.69,3.96,2.42,3.95,2.41,-2.41,-2.40,-2.55,1.55,1.54,1.54
314.81,3.90,2.36,3.90,2.36,-2.36,-2.35,-2.48,1.54,1.54,1.54
317.96,3.85,2.31,3.85,2.31,-2.31,-2.30,-2.40,1.54,1.54,1.54
321.14,3.80,2.26,3.80,2.26,-2.26,-2.25,-2.33,1.54,1.54,1.54
324.35,3.75,2.21,3.75,2.21,-2.22,-2.19,-2.25,1.53,1.54,1.54
327.59,3.71,2.17,3.70,2.16,-2.17,-2.14,-2.18,1.54,1.54,1.54
330.87,3.65,2.11,3.66,2.12,-2.12,-2.09,-2.11,1.53,1.54,1.54
334.18,3.61,2.07,3.61,2.07,-2.07,-2.04,-2.04,1.54,1.54,1.54
337.52,3.57,2.03,3.56,2.02,-2.03,-1.98,-1.97,1.54,1.54,1.54
340.90,3.51,1.97,3.52,1.98,-1.98,-1.93,-1.90,1.53,1.54,1.54
344.30,3.47,1.93,3.47,1.93,-1.93,-1.88,-1.83,1.54,1.54,1.54
347.75,3.43,1.89,3.42,1.88,-1.89,-1.82,-1.76,1.54,1.54,1.54
351.23,3.37,1.83,3.38,1.84,-1.84,-1.77,-1.70,1.53,1.54,1.54
354.74,3.33,1.79,3.33,1.79,-1.79,-1.72,-1.63,1.54,1.54,1.54
358.28,3.29,1.75,3.28,1.74,-1.74,-1.67,-1.57,1.55,1.54,1.54
361.87,3.23,1.69,3.23,1.69,-1.69,-1.62,-1.51,1.54,1.54,1.54
365.49,3.17,1.63,3.18,1.64,-1.64,-1.56,-1.45,1.53,1.54,1.54
369.14,3.13,1.59,3.13,1.59,-1.59,-1.51,-1.39,1.54,1.54,1.54
372.83,3.07,1.53,3.07,1.54,-1.54,-1.46,-1.33,1.53,1.54,1.54
376.56,3.03,1.49,3.02,1.48,-1.49,-1.41,-1.28,1.54,1.54,1.54
380.33,2.96,1.42,2.97,1.43,-1.43,-1.36,-1.22,1.53,1.54,1.54
384.13,2.92,1.38,2.92,1.38,-1.38,-1.30,-1.17,1.54,1.54,1.54
387.97,2.87,1.33,2.87,1.33,-1.33,-1.25,-1.11,1.54,1.54,1.54
391.85,2.82,1.28,2.82,1.28,-1.27,-1.20,-1.06,1.55,1.55,1.54
395.77,2.76,1.22,2.76,1.22,-1.22,-1.15,-1.01,1.54,1.54,1.54
399.73,2.70,1.16,2.70,1.16,-1.16,-1.10,-0.96,1.54,1.54,1.54
403.72,2.64,1.10,2.64,1.10,-1.11,-1.05,-0.91,1.53,1.53,1.54
407.76,2.59,1.05,2.59,1.05,-1.06,-1.00,-0.86,1.53,1.53,1.54
411.84,2.54,1.00,2.54,1.00,-1.01,-0.94,-0.81,1.53,1.53,1.54
415.96,2.50,0.96,2.49,0.96,-0.96,-0.89,-0.77,1.54,1.54,1.54
420.12,2.44,0.90,2.45,0.91,-0.91,-0.84,-0.72,1.53,1.54,1.54
424.32,2.40,0.86,2.40,0.86,-0.86,-0.79,-0.68,1.54,1.54,1.54
428.56,2.36,0.82,2.35,0.81,-0.81,-0.74,-0.63,1.55,1.54,1.54
432.85,2.30,0.76,2.31,0.77,-0.77,-0.69,-0.59,1.53,1.54,1.54
437.18,2.26,0.72,2.26,0.72,-0.72,-0.64,-0.55,1.54,1.54,1.54
441.55,2.22,0.68,2.21,0.67,-0.68,-0.59,-0.50,1.54,1.53,1.54
445.96,2.16,0.62,2.17,0.63,-0.63,-0.55,-0.46,1.53,1.54,1.54
450.42,2.12,0.58,2.12,0.58,-0.58,-0.50,-0.42,1.54,1.54,1.54
454.93,2.08,0.54,2.07,0.54,-0.54,-0.45,-0.38,1.54,1.54,1.54
459.48,2.03,0.49,2.03,0.49,-0.49,-0.40,-0.35,1.54,1.54,1.54
464.07,1.98,0.44,1.98,0.45,-0.44,-0.35,-0.31,1.54,1.54,1.54
468.71,1.94,0.40,1.93,0.40,-0.39,-0.30,-0.27,1.55,1.54,1.54
473.40,1.88,0.34,1.88,0.34,-0.34,-0.26,-0.23,1.54,1.54,1.54
478.13,1.83,0.29,1.83,0.29,-0.29,-0.21,-0.20,1.54,1.54,1.54
482.91,1.77,0.23,1.78,0.24,-0.24,-0.16,-0.16,1.53,1.53,1.54
487.74,1.73,0.19,1.73,0.19,-0.20,-0.11,-0.13,1.53,1.53,1.54
492.62,1.69,0.15,1.68,0.15,-0.15,-0.07,-0.09,1.54,1.54,1.54
497.55,1.63,0.09,1.64,0.10,-0.10,-0.02,-0.06,1.53,1.54,1.54
502.52,1.60,0.06,1.60,0.06,-0.06,0.03,-0.03,1.54,1.54,1.54
507.55,1.55,0.01,1.55,0.01,-0.01,0.07,0.00,1.54,1.54,1.54
512.62,1.51,-0.03,1.51,-0.03,0.03,0.12,0.04,1.54,1.54,1.54
517.75,1.46,-0.08,1.46,-0.08,0.08,0.16,0.07,1.54,1.54,1.54
522.93,1.42,-0.12,1.42,-0.12,0.12,0.21,0.10,1.54,1.54,1.54
528.16,1.37,-0.17,1.37,-0.16,0.16,0.25,0.13,1.53,1.54,1.54
533.44,1.33,-0.21,1.33,-0.21,0.21,0.30,0.16,1.54,1.54,1.54
538.77,1.29,-0.25,1.29,-0.25,0.25,0.34,0.19,1.54,1.54,1.54
544.16,1.24,-0.30,1.24,-0.29,0.30,0.38,0.22,1.54,1.54,1.54
549.60,1.20,-0.34,1.20,-0.34,0.34,0.43,0.25,1.54,1.54,1.54
