frequency,raw
20.00,1.02
20.20,1.08
20.40,1.12
20.61,1.18
20.81,1.24
21.02,1.29
21.23,1.35
21.44,1.40
21.66,1.45
21.87,1.50
22.09,1.55
22.31,1.60
22.54,1.65
22.76,1.71
22.99,1.75
23.22,1.80
23.45,1.85
23.69,1.90
23.92,1.95
24.16,2.00
24.40,2.04
24.65,2.09
24.89,2.14
25.14,2.19
25.39,2.24
25.65,2.29
25.91,2.33
26.16,2.39
26.43,2.44
26.69,2.48
26.96,2.53
27.23,2.58
27.50,2.62
27.77,2.66
28.05,2.71
28.33,2.75
28.62,2.80
28.90,2.83
29.19,2.87
29.48,2.90
29.78,2.95
30.08,2.99
30.38,3.02
30.68,3.06
30.99,3.11
31.30,3.14
31.61,3.17
31.93,3.20
32.24,3.22
32.57,3.25
32.89,3.28
33.22,3.31
33.55,3.33
33.89,3.36
34.23,3.37
34.57,3.40
34.92,3.42
35.27,3.44
35.62,3.46
35.97,3.47
36.33,3.50
36.70,3.52
37.06,3.54
37.43,3.56
37.81,3.58
38.19,3.60
38.57,3.62
38.95,3.65
39.34,3.67
39.74,3.70
40.14,3.72
40.54,3.74
40.94,3.77
41.35,3.80
41.76,3.82
42.18,3.85
42.60,3.88
43.03,3.90
43.46,3.93
43.90,3.95
44.33,3.98
44.78,3.99
45.23,4.02
45.68,4.03
46.13,4.06
46.60,4.07
47.06,4.10
47.53,4.11
48.01,4.12
48.49,4.13
48.97,4.15
49.46,4.16
49.96,4.17
50.46,4.18
50.96,4.20
51.47,4.21
51.99,4.22
52.51,4.23
53.03,4.24
53.56,4.26
54.10,4.27
54.64,4.27
55.18,4.28
55.74,4.29
56.29,4.29
56.86,4.30
57.42,4.31
58.00,4.31
58.58,4.31
59.16,4.32
59.76,4.32
60.35,4.32
60.96,4.32
61.57,4.33
62.18,4.34
62.80,4.35
63.43,4.36
64.07,4.36
64.71,4.37
65.35,4.37
66.01,4.37
66.67,4.38
67.33,4.39
68.01,4.39
68.69,4.41
69.37,4.41
70.07,4.41
70.77,4.42
71.48,4.42
72.19,4.43
72.91,4.44
73.64,4.43
74.38,4.44
75.12,4.45
75.87,4.46
76.63,4.46
77.40,4.47
78.17,4.49
78.95,4.50
79.74,4.51
80.54,4.53
81.35,4.55
82.16,4.56
82.98,4.57
83.81,4.59
84.65,4.59
85.50,4.60
86.35,4.61
87.22,4.61
88.09,4.62
88.97,4.63
89.86,4.63
90.76,4.64
91.66,4.63
92.58,4.63
93.51,4.63
94.44,4.63
95.39,4.63
96.34,4.62
97.30,4.62
98.28,4.62
99.26,4.62
100.25,4.61
101.25,4.61
102.27,4.61
103.29,4.60
104.32,4.59
105.37,4.59
106.42,4.57
107.48,4.58
108.56,4.57
109.64,4.56
110.74,4.56
111.85,4.56
112.97,4.54
114.10,4.53
115.24,4.52
116.39,4.51
117.55,4.49
118.73,4.48
119.92,4.46
121.12,4.44
122.33,4.42
123.55,4.40
124.79,4.37
126.03,4.35
127.29,4.32
128.57,4.29
129.85,4.27
131.15,4.23
132.46,4.21
133.79,4.18
135.12,4.14
136.48,4.10
137.84,4.06
139.22,4.03
140.61,3.99
142.02,3.96
143.44,3.92
144.87,3.88
146.32,3.85
147.78,3.80
149.26,3.77
150.75,3.72
152.26,3.68
153.78,3.65
155.32,3.60
156.88,3.56
158.44,3.51
160.03,3.47
161.63,3.42
163.24,3.38
164.88,3.33
166.53,3.28
168.19,3.23
169.87,3.17
171.57,3.12
173.29,3.06
175.02,3.02
176.77,2.95
178.54,2.90
180.32,2.84
182.13,2.78
183.95,2.72
185.79,2.67
187.65,2.61
189.52,2.53
191.42,2.47
193.33,2.42
195.27,2.34
197.22,2.28
199.19,2.21
201.18,2.15
203.19,2.07
205.23,2.00
207.28,1.93
209.35,1.86
211.44,1.80
213.56,1.72
215.69,1.64
217.85,1.57
220.03,1.49
222.23,1.42
224.45,1.34
226.70,1.25
228.96,1.17
231.25,1.08
233.57,1.00
235.90,0.91
238.26,0.84
240.64,0.74
243.05,0.66
245.48,0.56
247.93,0.47
250.41,0.38
252.92,0.27
255.45,0.14
258.00,-0.00
260.58,-0.16
263.19,-0.36
265.82,-0.57
268.48,-0.81
271.16,-1.06
273.87,-1.32
276.61,-1.57
279.38,-1.79
282.17,-1.98
284.99,-2.14
287.84,-2.26
290.72,-2.32
293.63,-2.36
296.57,-2.38
299.53,-2.38
302.53,-2.37
305.55,-2.38
308.61,-2.38
311.69,-2.41
314.81,-2.43
317.96,-2.49
321.14,-2.55
324.35,-2.63
327.59,-2.70
330.87,-2.78
334.18,-2.86
337.52,-2.94
340.90,-3.02
344.30,-3.10
347.75,-3.17
351.23,-3.24
354.74,-3.31
358.28,-3.42
361.87,-3.52
365.49,-3.62
369.14,-3.72
372.83,-3.80
376.56,-3.87
380.33,-3.97
384.13,-4.02
387.97,-4.08
391.85,-4.13
395.77,-4.15
399.73,-4.15
403.72,-4.15
407.76,-4.13
411.84,-4.10
415.96,-4.05
420.12,-4.01
424.32,-3.98
428.56,-3.93
432.85,-3.90
437.18,-3.88
441.55,-3.85
445.96,-3.84
450.42,-3.83
454.93,-3.82
459.48,-3.82
464.07,-3.82
468.71,-3.81
473.40,-3.81
478.13,-3.80
482.91,-3.80
487.74,-3.80
492.62,-3.79
497.55,-3.79
502.52,-3.78
507.55,-3.78
512.62,-3.76
517.75,-3.75
522.93,-3.74
528.16,-3.72
533.44,-3.69
538.77,-3.67
544.16,-3.65
549.60,-3.61
555.10,-3.58
560.65,-3.55
566.25,-3.50
571.92,-3.46
577.64,-3.42
583.41,-3.38
589.25,-3.32
595.14,-3.29
601.09,-3.24
607.10,-3.19
613.17,-3.15
619.30,-3.10
625.50,-3.04
631.75,-3.00
638.07,-2.94
644.45,-2.88
650.89,-2.83
657.40,-2.77
663.98,-2.71
670.62,-2.63
677.32,-2.57
684.10,-2.51
690.94,-2.43
697.85,-2.36
704.83,-2.29
711.87,-2.23
718.99,-2.16
726.18,-2.11
733.44,-2.04
740.78,-1.98
748.19,-1.92
755.67,-1.85
763.23,-1.79
770.86,-1.73
778.57,-1.67
786.35,-1.61
794.22,-1.55
802.16,-1.49
810.18,-1.44
818.28,-1.37
826.46,-1.31
834.73,-1.24
843.08,-1.16
851.51,-1.10
860.02,-1.04
868.62,-0.95
877.31,-0.89
886.08,-0.82
894.94,-0.74
903.89,-0.67
912.93,-0.60
922.06,-0.53
931.28,-0.47
940.59,-0.39
950.00,-0.32
959.50,-0.26
969.09,-0.20
978.78,-0.13
988.57,-0.07
998.46,-0.02
1008.44,0.05
1018.53,0.10
1028.71,0.15
1039.00,0.22
1049.39,0.27
1059.88,0.31
1070.48,0.35
1081.19,0.38
1092.00,0.42
1102.92,0.44
1113.95,0.46
1125.09,0.48
1136.34,0.48
1147.70,0.49
1159.18,0.49
1170.77,0.49
1182.48,0.48
1194.30,0.49
1206.25,0.48
1218.31,0.47
1230.49,0.45
1242.80,0.43
1255.22,0.42
1267.78,0.40
1280.45,0.37
1293.26,0.34
1306.19,0.32
1319.25,0.28
1332.45,0.25
1345.77,0.20
1359.23,0.17
1372.82,0.14
1386.55,0.11
1400.41,0.09
1414.42,0.05
1428.56,0.03
1442.85,0.02
1457.28,0.00
1471.85,-0.01
1486.57,-0.02
1501.43,-0.02
1516.45,-0.03
1531.61,-0.05
1546.93,-0.05
1562.40,-0.05
1578.02,-0.06
1593.80,-0.06
1609.74,-0.06
1625.84,-0.05
1642.10,-0.06
1658.52,-0.06
1675.10,-0.05
1691.85,-0.05
1708.77,-0.03
1725.86,-0.03
1743.12,-0.02
1760.55,-0.00
1778.15,0.02
1795.94,0.03
1813.90,0.07
1832.03,0.11
1850.36,0.16
1868.86,0.21
1887.55,0.26
1906.42,0.33
1925.49,0.41
1944.74,0.49
1964.19,0.57
1983.83,0.65
2003.67,0.75
2023.71,0.85
2043.94,0.96
2064.38,1.07
2085.03,1.20
2105.88,1.33
2126.94,1.49
2148.20,1.66
2169.69,1.83
2191.38,2.04
2213.30,2.24
2235.43,2.46
2257.78,2.70
2280.36,2.94
2303.17,3.18
2326.20,3.42
2349.46,3.64
2372.95,3.88
2396.68,4.10
2420.65,4.32
2444.86,4.55
2469.31,4.77
2494.00,4.98
2518.94,5.17
2544.13,5.34
2569.57,5.46
2595.27,5.55
2621.22,5.61
2647.43,5.64
2673.90,5.67
2700.64,5.70
2727.65,5.76
2754.93,5.83
2782.48,5.93
2810.30,6.05
2838.40,6.19
2866.79,6.35
2895.46,6.48
2924.41,6.61
2953.65,6.71
2983.19,6.78
3013.02,6.84
3043.15,6.89
3073.58,6.90
3104.32,6.92
3135.36,6.92
3166.72,6.94
3198.38,6.98
3230.37,7.02
3262.67,7.08
3295.30,7.15
3328.25,7.24
3361.53,7.35
3395.15,7.46
3429.10,7.58
3463.39,7.70
3498.03,7.80
3533.01,7.88
3568.34,7.96
3604.02,7.99
3640.06,8.00
3676.46,7.98
3713.22,7.91
3750.36,7.80
3787.86,7.66
3825.74,7.47
3864.00,7.26
3902.64,7.01
3941.66,6.71
3981.08,6.40
4020.89,6.05
4061.10,5.69
4101.71,5.30
4142.73,4.90
4184.15,4.48
4226.00,4.04
4268.26,3.59
4310.94,3.13
4354.05,2.68
4397.59,2.23
4441.56,1.79
4485.98,1.39
4530.84,0.98
4576.15,0.60
4621.91,0.25
4668.13,-0.09
4714.81,-0.42
4761.96,-0.74
4809.58,-1.03
4857.67,-1.32
4906.25,-1.60
4955.31,-1.84
5004.87,-2.03
5054.91,-2.21
5105.46,-2.34
5156.52,-2.45
5208.08,-2.53
5260.16,-2.59
5312.77,-2.63
5365.89,-2.66
5419.55,-2.69
5473.75,-2.71
5528.49,-2.72
5583.77,-2.75
5639.61,-2.75
5696.00,-2.73
5752.96,-2.74
5810.49,-2.73
5868.60,-2.74
5927.28,-2.77
5986.56,-2.82
6046.42,-2.90
6106.89,-3.00
6167.96,-3.14
6229.64,-3.31
6291.93,-3.52
6354.85,-3.75
6418.40,-4.04
6482.58,-4.33
6547.41,-4.66
6612.88,-5.00
6679.01,-5.33
6745.80,-5.66
6813.26,-5.95
6881.39,-6.22
6950.21,-6.46
7019.71,-6.67
7089.91,-6.85
7160.81,-7.02
7232.41,-7.19
7304.74,-7.38
7377.79,-7.60
7451.56,-7.81
7526.08,-8.02
7601.34,-8.18
7677.35,-8.33
7754.13,-8.34
7831.67,-8.25
7909.98,-8.08
7989.08,-7.78
8068.98,-7.35
8149.67,-6.92
8231.16,-6.45
8313.47,-6.04
8396.61,-5.73
8480.57,-5.51
8565.38,-5.53
8651.03,-5.64
8737.54,-5.85
8824.92,-6.25
8913.17,-6.65
9002.30,-7.03
9092.32,-7.41
9183.25,-7.70
9275.08,-7.88
9367.83,-7.93
9461.51,-7.83
9556.12,-7.61
9651.68,-7.24
9748.20,-6.76
9845.68,-6.17
9944.14,-5.54
10043.58,-4.87
10144.02,-4.20
10245.46,-3.58
10347.91,-3.09
10451.39,-2.72
10555.91,-2.48
10661.46,-2.44
10768.08,-2.53
10875.76,-2.75
10984.52,-3.07
11094.36,-3.43
11205.31,-3.80
11317.36,-4.15
11430.53,-4.45
11544.84,-4.71
11660.29,-4.92
11776.89,-5.14
11894.66,-5.38
12013.60,-5.65
12133.74,-6.06
12255.08,-6.56
12377.63,-7.09
12501.41,-7.67
12626.42,-8.25
12752.68,-8.83
12880.21,-9.41
13009.01,-10.04
13139.10,-10.77
13270.49,-11.65
13403.20,-12.74
13537.23,-13.98
13672.60,-15.37
13809.33,-16.80
13947.42,-18.13
14086.90,-19.37
14227.77,-20.25
14370.04,-20.77
14513.74,-21.00
14658.88,-20.84
14805.47,-20.44
14953.52,-19.92
15103.06,-19.31
15254.09,-18.84
15406.63,-18.49
15560.70,-18.33
15716.30,-18.60
15873.47,-19.03
16032.20,-19.63
16192.52,-20.32
16354.45,-20.89
16517.99,-21.38
16683.17,-21.56
16850.01,-21.54
17018.51,-21.38
17188.69,-21.07
17360.58,-20.75
17534.18,-20.52
17709.53,-20.42
17886.62,-20.68
18065.49,-20.99
18246.14,-21.52
18428.60,-22.33
18612.89,-23.18
18799.02,-24.08
18987.01,-24.97
19176.88,-25.77
19368.65,-26.44
19562.33,-26.93
19757.96,-27.17
19955.54,-27.27
