frequency,raw,error,smoothed,error_smoothed,equalization,parametric_eq,fixed_band_eq,equalized_raw,equalized_smoothed,target
20.00,4.82,-2.97,4.82,-2.97,2.97,2.67,0.69,7.79,7.79,7.80
20.20,4.87,-2.92,4.87,-2.92,2.92,2.64,0.71,7.80,7.79,7.80
20.40,4.91,-2.87,4.91,-2.88,2.88,2.61,0.73,7.79,7.79,7.79
20.61,4.95,-2.83,4.95,-2.83,2.84,2.58,0.75,7.79,7.79,7.79
20.81,4.99,-2.78,4.99,-2.79,2.79,2.54,0.78,7.79,7.78,7.78
21.02,5.03,-2.74,5.03,-2.74,2.75,2.51,0.80,7.78,7.78,7.78
21.23,5.06,-2.70,5.07,-2.70,2.70,2.48,0.83,7.76,7.77,7.77
21.44,5.10,-2.66,5.10,-2.66,2.66,2.44,0.85,7.76,7.76,7.77
21.66,5.14,-2.61,5.14,-2.61,2.61,2.41,0.88,7.75,7.75,7.75
21.87,5.18,-2.57,5.19,-2.57,2.56,2.38,0.91,7.75,7.75,7.75
22.09,5.23,-2.51,5.23,-2.52,2.52,2.34,0.94,7.75,7.75,7.74
22.31,5.27,-2.47,5.28,-2.47,2.47,2.31,0.97,7.74,7.74,7.74
22.54,5.32,-2.42,5.32,-2.42,2.42,2.27,1.00,7.74,7.74,7.74
22.76,5.36,-2.37,5.37,-2.37,2.37,2.24,1.03,7.73,7.73,7.73
22.99,5.41,-2.32,5.41,-2.32,2.32,2.21,1.06,7.73,7.73,7.73
23.22,5.45,-2.27,5.45,-2.27,2.27,2.17,1.09,7.73,7.73,7.72
23.45,5.49,-2.23,5.49,-2.23,2.23,2.14,1.12,7.72,7.72,7.72
23.69,5.53,-2.19,5.53,-2.18,2.19,2.10,1.16,7.72,7.72,7.72
23.92,5.57,-2.14,5.57,-2.14,2.14,2.07,1.19,7.72,7.72,7.71
24.16,5.61,-2.10,5.61,-2.10,2.10,2.03,1.23,7.71,7.71,7.71
24.40,5.64,-2.06,5.64,-2.06,2.06,2.00,1.26,7.70,7.70,7.71
24.65,5.67,-2.03,5.68,-2.03,2.02,1.97,1.30,7.70,7.70,7.71
24.89,5.71,-1.98,5.71,-1.99,1.98,1.93,1.33,7.70,7.70,7.70
25.14,5.75,-1.94,5.75,-1.94,1.95,1.90,1.37,7.70,7.70,7.70
25.39,5.79,-1.90,5.79,-1.90,1.91,1.86,1.41,7.70,7.70,7.70
25.65,5.82,-1.87,5.83,-1.87,1.87,1.83,1.44,7.69,7.69,7.69
25.91,5.86,-1.83,5.86,-1.83,1.83,1.80,1.48,7.69,7.69,7.69
26.16,5.90,-1.79,5.90,-1.79,1.79,1.76,1.51,7.69,7.69,7.69
26.43,5.94,-1.75,5.94,-1.75,1.75,1.73,1.55,7.69,7.69,7.69
26.69,5.97,-1.71,5.98,-1.71,1.71,1.70,1.58,7.68,7.69,7.68
26.96,6.01,-1.67,6.01,-1.67,1.67,1.66,1.62,7.69,7.68,7.68
27.23,6.04,-1.64,6.04,-1.64,1.64,1.63,1.65,7.68,7.68,7.68
27.50,6.07,-1.60,6.07,-1.60,1.60,1.60,1.68,7.67,7.67,7.68
27.77,6.10,-1.57,6.11,-1.57,1.56,1.56,1.71,7.67,7.67,7.68
28.05,6.14,-1.52,6.14,-1.53,1.53,1.53,1.73,7.67,7.67,7.66
28.33,6.17,-1.49,6.17,-1.49,1.49,1.50,1.76,7.67,7.66,7.66
28.62,6.20,-1.46,6.20,-1.46,1.46,1.47,1.78,7.66,7.66,7.66
28.90,6.22,-1.43,6.23,-1.43,1.42,1.44,1.80,7.65,7.65,7.65
29.19,6.26,-1.39,6.26,-1.39,1.39,1.40,1.82,7.65,7.65,7.65
29.48,6.28,-1.36,6.28,-1.36,1.36,1.37,1.84,7.64,7.64,7.65
29.78,6.31,-1.32,6.31,-1.33,1.33,1.34,1.85,7.64,7.64,7.64
30.08,6.33,-1.30,6.33,-1.30,1.30,1.31,1.86,7.63,7.64,7.64
30.38,6.36,-1.27,6.36,-1.27,1.27,1.28,1.86,7.64,7.63,7.63
30.68,6.38,-1.25,6.38,-1.25,1.25,1.25,1.87,7.63,7.63,7.63
30.99,6.41,-1.22,6.41,-1.22,1.22,1.21,1.86,7.63,7.63,7.63
31.30,6.43,-1.20,6.44,-1.20,1.19,1.18,1.86,7.63,7.63,7.63
31.61,6.46,-1.17,6.46,-1.17,1.17,1.15,1.85,7.63,7.63,7.64
31.93,6.49,-1.14,6.49,-1.14,1.14,1.12,1.84,7.64,7.63,7.63
32.24,6.51,-1.12,6.52,-1.12,1.12,1.09,1.82,7.63,7.63,7.63
32.57,6.54,-1.09,6.54,-1.09,1.09,1.06,1.81,7.64,7.63,7.63
32.89,6.56,-1.06,6.56,-1.07,1.07,1.03,1.78,7.63,7.63,7.63
33.22,6.58,-1.04,6.58,-1.04,1.04,1.00,1.76,7.62,7.62,7.62
33.55,6.60,-1.02,6.61,-1.02,1.01,0.97,1.73,7.62,7.62,7.62
33.89,6.63,-0.99,6.63,-0.99,0.99,0.94,1.70,7.62,7.61,7.62
34.23,6.65,-0.95,6.65,-0.96,0.96,0.91,1.67,7.61,7.61,7.61
34.57,6.67,-0.93,6.67,-0.93,0.93,0.89,1.63,7.60,7.60,7.60
34.92,6.69,-0.90,6.69,-0.90,0.90,0.86,1.59,7.59,7.59,7.59
35.27,6.71,-0.87,6.71,-0.87,0.87,0.83,1.55,7.58,7.58,7.58
35.62,6.73,-0.83,6.73,-0.84,0.84,0.80,1.51,7.57,7.57,7.57
35.97,6.74,-0.82,6.75,-0.81,0.81,0.77,1.47,7.55,7.55,7.56
36.33,6.76,-0.79,6.76,-0.78,0.78,0.74,1.43,7.54,7.54,7.55
36.70,6.78,-0.74,6.78,-0.75,0.75,0.71,1.38,7.53,7.53,7.53
37.06,6.80,-0.71,6.80,-0.71,0.71,0.69,1.33,7.52,7.51,7.51
37.43,6.81,-0.68,6.82,-0.68,0.68,0.66,1.29,7.50,7.50,7.50
37.81,6.83,-0.65,6.83,-0.65,0.65,0.63,1.24,7.48,7.49,7.48
38.19,6.85,-0.62,6.85,-0.62,0.62,0.60,1.19,7.47,7.47,7.47
38.57,6.87,-0.59,6.87,-0.59,0.59,0.57,1.14,7.46,7.46,7.47
38.95,6.88,-0.57,6.89,-0.56,0.56,0.55,1.09,7.45,7.45,7.45
39.34,6.90,-0.53,6.90,-0.54,0.54,0.52,1.04,7.44,7.44,7.44
39.74,6.91,-0.52,6.91,-0.51,0.51,0.49,0.99,7.43,7.43,7.43
40.14,6.93,-0.48,6.93,-0.49,0.49,0.46,0.95,7.42,7.42,7.42
40.54,6.94,-0.47,6.94,-0.47,0.47,0.44,0.90,7.41,7.41,7.41
40.94,6.96,-0.44,6.96,-0.44,0.44,0.41,0.85,7.41,7.41,7.41
41.35,6.97,-0.43,6.98,-0.42,0.42,0.38,0.80,7.40,7.40,7.40
41.76,6.99,-0.40,6.99,-0.40,0.40,0.36,0.75,7.40,7.39,7.39
42.18,7.00,-0.38,7.00,-0.38,0.38,0.33,0.70,7.39,7.39,7.39
42.60,7.01,-0.37,7.02,-0.36,0.37,0.30,0.66,7.38,7.38,7.38
43.03,7.03,-0.34,7.03,-0.34,0.35,0.28,0.61,7.38,7.38,7.38
43.46,7.04,-0.33,7.04,-0.33,0.33,0.25,0.56,7.37,7.37,7.37
43.90,7.05,-0.31,7.05,-0.31,0.31,0.22,0.52,7.37,7.37,7.36
44.33,7.06,-0.30,7.06,-0.30,0.29,0.20,0.47,7.36,7.36,7.36
44.78,7.07,-0.28,7.08,-0.28,0.28,0.17,0.43,7.35,7.35,7.36
45.23,7.09,-0.26,7.09,-0.26,0.26,0.14,0.38,7.35,7.35,7.35
45.68,7.10,-0.25,7.11,-0.24,0.24,0.12,0.34,7.35,7.35,7.35
46.13,7.12,-0.22,7.12,-0.22,0.22,0.09,0.30,7.35,7.34,7.34
46.60,7.13,-0.20,7.13,-0.20,0.20,0.06,0.25,7.34,7.34,7.33
47.06,7.14,-0.18,7.14,-0.18,0.18,0.04,0.21,7.32,7.32,7.32
47.53,7.15,-0.16,7.15,-0.16,0.16,0.01,0.17,7.31,7.31,7.31
48.01,7.16,-0.14,7.17,-0.13,0.13,-0.02,0.13,7.30,7.30,7.30
48.49,7.18,-0.10,7.18,-0.11,0.11,-0.04,0.09,7.29,7.29,7.28
48.97,7.19,-0.08,7.19,-0.08,0.08,-0.07,0.05,7.28,7.28,7.27
49.46,7.20,-0.06,7.21,-0.05,0.05,-0.10,0.01,7.26,7.26,7.26
49.96,7.22,-0.02,7.22,-0.03,0.03,-0.12,-0.04,7.25,7.24,7.24
50.46,7.22,-0.01,7.23,0.00,-0.00,-0.15,-0.07,7.22,7.22,7.23
50.96,7.24,0.04,7.24,0.03,-0.03,-0.18,-0.11,7.21,7.21,7.21
51.47,7.25,0.06,7.25,0.06,-0.06,-0.20,-0.15,7.19,7.19,7.19
51.99,7.27,0.10,7.27,0.10,-0.09,-0.23,-0.19,7.18,7.18,7.17
52.51,7.28,0.12,7.28,0.12,-0.12,-0.26,-0.23,7.16,7.16,7.16
53.03,7.29,0.15,7.29,0.15,-0.15,-0.29,-0.27,7.14,7.14,7.14
53.56,7.29,0.17,7.30,0.18,-0.18,-0.31,-0.30,7.12,7.12,7.12
54.10,7.31,0.21,7.31,0.21,-0.20,-0.34,-0.34,7.11,7.11,7.10
54.64,7.32,0.23,7.32,0.23,-0.23,-0.37,-0.38,7.09,7.09,7.09
55.18,7.33,0.26,7.34,0.26,-0.26,-0.39,-0.41,7.08,7.08,7.07
55.74,7.34,0.28,7.34,0.28,-0.28,-0.42,-0.45,7.06,7.06,7.07
56.29,7.36,0.31,7.36,0.31,-0.31,-0.45,-0.48,7.05,7.04,7.05
56.86,7.36,0.33,7.37,0.34,-0.34,-0.48,-0.52,7.02,7.03,7.03
57.42,7.38,0.37,7.38,0.37,-0.37,-0.51,-0.55,7.01,7.01,7.01
58.00,7.39,0.40,7.39,0.40,-0.40,-0.53,-0.58,6.99,7.00,6.99
58.58,7.41,0.44,7.41,0.43,-0.43,-0.56,-0.61,6.98,6.98,6.97
59.16,7.41,0.46,7.42,0.46,-0.46,-0.59,-0.65,6.95,6.96,6.95
59.76,7.42,0.49,7.42,0.49,-0.49,-0.62,-0.68,6.93,6.93,6.93
60.35,7.43,0.52,7.43,0.52,-0.53,-0.65,-0.71,6.91,6.91,6.91
60.96,7.44,0.56,7.44,0.56,-0.56,-0.68,-0.74,6.88,6.88,6.88
61.57,7.45,0.60,7.45,0.59,-0.59,-0.70,-0.77,6.86,6.86,6.86
62.18,7.45,0.62,7.46,0.63,-0.63,-0.73,-0.79,6.82,6.83,6.83
62.80,7.47,0.67,7.47,0.67,-0.67,-0.76,-0.82,6.81,6.80,6.80
63.43,7.47,0.70,7.47,0.70,-0.71,-0.79,-0.85,6.77,6.77,6.77
64.07,7.48,0.75,7.48,0.74,-0.74,-0.82,-0.87,6.74,6.74,6.74
64.71,7.49,0.78,7.49,0.78,-0.78,-0.85,-0.90,6.71,6.71,6.71
65.35,7.50,0.82,7.50,0.82,-0.82,-0.88,-0.93,6.69,6.69,6.68
66.01,7.51,0.86,7.51,0.86,-0.85,-0.91,-0.95,6.66,6.66,6.66
66.67,7.52,0.90,7.52,0.89,-0.89,-0.94,-0.98,6.63,6.63,6.63
67.33,7.52,0.93,7.52,0.93,-0.93,-0.97,-1.00,6.60,6.60,6.60
68.01,7.52,0.96,7.53,0.96,-0.96,-1.00,-1.03,6.56,6.56,6.57
68.69,7.53,1.00,7.53,1.00,-1.00,-1.04,-1.05,6.53,6.53,6.53
69.37,7.53,1.03,7.53,1.03,-1.04,-1.07,-1.07,6.50,6.50,6.50
70.07,7.54,1.07,7.54,1.07,-1.08,-1.10,-1.10,6.47,6.47,6.47
70.77,7.54,1.11,7.55,1.11,-1.11,-1.13,-1.12,6.43,6.43,6.44
71.48,7.55,1.16,7.55,1.16,-1.15,-1.16,-1.15,6.40,6.40,6.39
72.19,7.55,1.20,7.55,1.20,-1.19,-1.19,-1.17,6.36,6.36,6.36
72.91,7.55,1.23,7.55,1.24,-1.23,-1.23,-1.20,6.32,6.32,6.32
73.64,7.55,1.27,7.55,1.27,-1.27,-1.26,-1.23,6.29,6.29,6.28
74.38,7.55,1.30,7.55,1.30,-1.31,-1.29,-1.25,6.25,6.25,6.25
75.12,7.55,1.34,7.55,1.34,-1.34,-1.33,-1.28,6.21,6.21,6.21
75.87,7.55,1.38,7.55,1.38,-1.38,-1.36,-1.31,6.17,6.17,6.17
76.63,7.55,1.42,7.55,1.42,-1.42,-1.39,-1.34,6.13,6.13,6.13
77.40,7.55,1.46,7.55,1.46,-1.46,-1.43,-1.37,6.09,6.09,6.09
78.17,7.55,1.50,7.55,1.50,-1.50,-1.46,-1.40,6.06,6.05,6.05
78.95,7.54,1.54,7.55,1.54,-1.54,-1.49,-1.43,6.01,6.01,6.01
79.74,7.54,1.58,7.54,1.58,-1.58,-1.53,-1.46,5.97,5.96,5.96
80.54,7.53,1.61,7.53,1.61,-1.62,-1.56,-1.50,5.92,5.92,5.92
81.35,7.53,1.65,7.53,1.65,-1.65,-1.60,-1.53,5.88,5.88,5.88
82.16,7.52,1.69,7.53,1.69,-1.69,-1.63,-1.57,5.83,5.83,5.84
82.98,7.52,1.73,7.52,1.73,-1.73,-1.67,-1.61,5.79,5.79,5.79
83.81,7.52,1.77,7.52,1.77,-1.77,-1.71,-1.65,5.75,5.75,5.75
84.65,7.51,1.81,7.51,1.81,-1.81,-1.74,-1.69,5.71,5.71,5.70
85.50,7.49,1.84,7.50,1.84,-1.84,-1.78,-1.73,5.65,5.66,5.65
86.35,7.49,1.88,7.49,1.88,-1.88,-1.81,-1.77,5.61,5.61,5.61
87.22,7.47,1.91,7.48,1.92,-1.92,-1.85,-1.82,5.55,5.56,5.56
88.09,7.47,1.96,7.47,1.96,-1.96,-1.89,-1.86,5.52,5.51,5.51
88.97,7.45,1.99,7.46,1.99,-1.99,-1.92,-1.91,5.46,5.46,5.47
89.86,7.45,2.04,7.45,2.03,-2.03,-1.96,-1.96,5.42,5.42,5.41
90.76,7.44,2.07,7.44,2.07,-2.07,-2.00,-2.01,5.37,5.37,5.37
91.66,7.42,2.11,7.43,2.11,-2.11,-2.04,-2.06,5.32,5.32,5.32
92.58,7.41,2.15,7.41,2.15,-2.15,-2.07,-2.12,5.27,5.27,5.26
93.51,7.40,2.18,7.40,2.18,-2.18,-2.11,-2.17,5.22,5.21,5.22
94.44,7.38,2.22,7.38,2.22,-2.22,-2.15,-2.23,5.16,5.16,5.16
95.39,7.36,2.26,7.37,2.26,-2.26,-2.19,-2.29,5.10,5.10,5.11
96.34,7.35,2.30,7.35,2.30,-2.30,-2.22,-2.35,5.05,5.05,5.05
97.30,7.33,2.34,7.33,2.34,-2.34,-2.26,-2.41,4.99,4.99,4.99
98.28,7.32,2.39,7.32,2.38,-2.38,-2.30,-2.47,4.94,4.93,4.94
99.26,7.29,2.42,7.30,2.42,-2.43,-2.34,-2.53,4.87,4.87,4.87
100.25,7.28,2.47,7.28,2.47,-2.47,-2.38,-2.59,4.81,4.81,4.81
101.25,7.26,2.51,7.26,2.51,-2.51,-2.42,-2.66,4.75,4.75,4.76
102.27,7.24,2.56,7.24,2.55,-2.55,-2.45,-2.72,4.69,4.69,4.69
103.29,7.22,2.59,7.22,2.60,-2.59,-2.49,-2.78,4.63,4.63,4.63
104.32,7.20,2.64,7.20,2.64,-2.63,-2.53,-2.85,4.57,4.57,4.56
105.37,7.18,2.68,7.18,2.67,-2.67,-2.57,-2.91,4.51,4.51,4.50
106.42,7.15,2.71,7.16,2.71,-2.71,-2.61,-2.97,4.44,4.44,4.45
107.48,7.13,2.74,7.13,2.75,-2.75,-2.65,-3.04,4.38,4.38,4.39
108.56,7.11,2.79,7.11,2.78,-2.79,-2.68,-3.10,4.33,4.32,4.32
109.64,7.08,2.82,7.09,2.82,-2.82,-2.72,-3.16,4.26,4.26,4.26
110.74,7.06,2.86,7.06,2.86,-2.86,-2.76,-3.22,4.20,4.20,4.21
111.85,7.04,2.90,7.04,2.90,-2.89,-2.80,-3.27,4.15,4.14,4.14
112.97,7.01,2.93,7.01,2.93,-2.93,-2.83,-3.32,4.08,4.08,4.08
114.10,6.98,2.97,6.98,2.97,-2.97,-2.87,-3.38,4.02,4.02,4.02
115.24,6.95,2.99,6.95,3.00,-3.00,-2.91,-3.42,3.95,3.95,3.96
116.39,6.92,3.04,6.92,3.04,-3.04,-2.94,-3.47,3.88,3.88,3.88
117.55,6.89,3.08,6.89,3.07,-3.08,-2.98,-3.51,3.82,3.82,3.82
118.73,6.86,3.11,6.86,3.11,-3.12,-3.01,-3.55,3.75,3.75,3.75
119.92,6.83,3.16,6.83,3.15,-3.16,-3.05,-3.58,3.68,3.68,3.68
121.12,6.80,3.20,6.80,3.20,-3.20,-3.08,-3.61,3.60,3.60,3.60
122.33,6.77,3.24,6.77,3.24,-3.25,-3.12,-3.63,3.53,3.53,3.53
123.55,6.74,3.29,6.75,3.29,-3.29,-3.15,-3.65,3.45,3.45,3.46
124.79,6.72,3.34,6.72,3.33,-3.34,-3.18,-3.67,3.39,3.38,3.38
126.03,6.68,3.38,6.69,3.38,-3.38,-3.21,-3.68,3.30,3.31,3.30
127.29,6.65,3.42,6.65,3.42,-3.42,-3.25,-3.68,3.24,3.24,3.23
128.57,6.62,3.46,6.62,3.46,-3.45,-3.28,-3.68,3.17,3.17,3.16
129.85,6.58,3.49,6.59,3.49,-3.49,-3.31,-3.68,3.10,3.10,3.09
131.15,6.55,3.52,6.55,3.52,-3.52,-3.34,-3.67,3.04,3.03,3.03
132.46,6.51,3.54,6.51,3.54,-3.54,-3.36,-3.66,2.97,2.97,2.97
133.79,6.47,3.56,6.48,3.56,-3.56,-3.39,-3.64,2.91,2.91,2.92
135.12,6.44,3.58,6.44,3.58,-3.58,-3.42,-3.62,2.86,2.86,2.86
136.48,6.40,3.59,6.41,3.60,-3.59,-3.44,-3.60,2.81,2.81,2.81
137.84,6.37,3.61,6.37,3.61,-3.61,-3.47,-3.58,2.77,2.76,2.76
139.22,6.33,3.62,6.33,3.62,-3.61,-3.49,-3.55,2.72,2.72,2.71
140.61,6.28,3.61,6.29,3.62,-3.62,-3.51,-3.52,2.66,2.67,2.67
142.02,6.25,3.62,6.25,3.62,-3.62,-3.54,-3.49,2.63,2.63,2.63
143.44,6.20,3.62,6.20,3.62,-3.62,-3.56,-3.45,2.58,2.58,2.59
144.87,6.16,3.62,6.17,3.62,-3.62,-3.57,-3.42,2.55,2.55,2.55
146.32,6.12,3.62,6.12,3.61,-3.61,-3.59,-3.38,2.51,2.51,2.51
147.78,6.08,3.61,6.08,3.61,-3.60,-3.61,-3.35,2.48,2.47,2.48
149.26,6.03,3.59,6.03,3.60,-3.60,-3.62,-3.31,2.44,2.44,2.44
150.75,5.98,3.58,5.99,3.58,-3.59,-3.64,-3.27,2.39,2.40,2.40
152.26,5.94,3.58,5.94,3.58,-3.58,-3.65,-3.24,2.36,2.36,2.36
153.78,5.89,3.56,5.89,3.57,-3.57,-3.66,-3.20,2.33,2.33,2.33
155.32,5.85,3.56,5.85,3.56,-3.56,-3.67,-3.17,2.30,2.29,2.29
156.88,5.80,3.54,5.81,3.55,-3.55,-3.68,-3.14,2.26,2.26,2.26
158.44,5.76,3.54,5.76,3.53,-3.53,-3.69,-3.11,2.23,2.23,2.23
160.03,5.71,3.52,5.71,3.52,-3.52,-3.69,-3.08,2.19,2.19,2.19
161.63,5.66,3.50,5.67,3.51,-3.51,-3.70,-3.05,2.16,2.16,2.16
163.24,5.62,3.49,5.62,3.49,-3.49,-3.70,-3.02,2.13,2.13,2.13
164.88,5.58,3.48,5.58,3.48,-3.47,-3.70,-3.00,2.11,2.11,2.10
166.53,5.54,3.46,5.54,3.46,-3.46,-3.70,-2.97,2.08,2.08,2.08
168.19,5.49,3.44,5.49,3.44,-3.44,-3.70,-2.95,2.05,2.05,2.05
169.87,5.45,3.43,5.45,3.42,-3.43,-3.70,-2.93,2.02,2.03,2.03
171.57,5.41,3.40,5.42,3.41,-3.41,-3.69,-2.92,2.00,2.00,2.01
173.29,5.39,3.41,5.39,3.40,-3.40,-3.69,-2.90,1.99,1.98,1.98
175.02,5.35,3.40,5.35,3.39,-3.39,-3.68,-2.89,1.96,1.96,1.96
176.77,5.32,3.38,5.33,3.38,-3.38,-3.67,-2.88,1.94,1.94,1.94
178.54,5.29,3.37,5.30,3.37,-3.38,-3.66,-2.88,1.92,1.92,1.92
180.32,5.28,3.38,5.28,3.37,-3.38,-3.65,-2.87,1.91,1.90,1.91
182.13,5.25,3.37,5.26,3.37,-3.38,-3.63,-2.87,1.88,1.88,1.88
183.95,5.24,3.38,5.24,3.38,-3.38,-3.62,-2.87,1.86,1.86,1.86
185.79,5.23,3.38,5.23,3.38,-3.39,-3.60,-2.87,1.85,1.84,1.85
187.65,5.22,3.39,5.22,3.39,-3.39,-3.58,-2.87,1.83,1.83,1.83
189.52,5.21,3.40,5.22,3.40,-3.40,-3.56,-2.88,1.81,1.81,1.81
191.42,5.21,3.41,5.21,3.41,-3.41,-3.54,-2.89,1.80,1.80,1.80
193.33,5.21,3.43,5.21,3.43,-3.42,-3.52,-2.90,1.79,1.78,1.78
195.27,5.20,3.44,5.20,3.44,-3.43,-3.50,-2.91,1.77,1.77,1.77
197.22,5.19,3.45,5.19,3.44,-3.44,-3.47,-2.92,1.75,1.75,1.75
199.19,5.18,3.44,5.18,3.45,-3.45,-3.45,-2.94,1.74,1.74,1.74
201.18,5.17,3.45,5.17,3.45,-3.45,-3.42,-2.95,1.73,1.72,1.72
203.19,5.15,3.44,5.16,3.45,-3.44,-3.39,-2.97,1.71,1.71,1.71
205.23,5.13,3.44,5.13,3.44,-3.44,-3.36,-2.99,1.70,1.70,1.69
207.28,5.11,3.43,5.11,3.43,-3.43,-3.33,-3.01,1.69,1.68,1.68
209.35,5.07,3.41,5.08,3.41,-3.41,-3.30,-3.03,1.66,1.67,1.66
211.44,5.04,3.39,5.05,3.39,-3.39,-3.27,-3.05,1.65,1.65,1.65
213.56,5.01,3.38,5.01,3.37,-3.37,-3.23,-3.07,1.64,1.64,1.64
215.69,4.97,3.35,4.97,3.35,-3.34,-3.20,-3.08,1.63,1.63,1.63
217.85,4.92,3.31,4.93,3.31,-3.31,-3.16,-3.10,1.61,1.61,1.61
220.03,4.88,3.28,4.88,3.28,-3.28,-3.12,-3.12,1.60,1.60,1.60
222.23,4.83,3.24,4.83,3.24,-3.24,-3.09,-3.14,1.59,1.59,1.59
224.45,4.78,3.20,4.78,3.20,-3.20,-3.05,-3.15,1.58,1.58,1.58
226.70,4.72,3.16,4.73,3.16,-3.16,-3.01,-3.16,1.56,1.57,1.57
228.96,4.67,3.12,4.67,3.12,-3.12,-2.97,-3.17,1.55,1.55,1.56
231.25,4.62,3.08,4.62,3.07,-3.08,-2.93,-3.18,1.55,1.54,1.55
233.57,4.56,3.04,4.56,3.03,-3.03,-2.89,-3.18,1.53,1.53,1.53
235.90,4.50,2.98,4.51,2.99,-2.99,-2.85,-3.18,1.51,1.52,1.52
238.26,4.45,2.94,4.45,2.95,-2.94,-2.80,-3.18,1.51,1.51,1.51
240.64,4.39,2.90,4.40,2.90,-2.90,-2.76,-3.17,1.50,1.50,1.49
243.05,4.34,2.86,4.34,2.85,-2.85,-2.72,-3.16,1.49,1.49,1.48
245.48,4.27,2.80,4.28,2.80,-2.80,-2.67,-3.15,1.47,1.47,1.47
247.93,4.21,2.75,4.22,2.75,-2.75,-2.63,-3.13,1.46,1.46,1.47
250.41,4.16,2.70,4.16,2.70,-2.71,-2.58,-3.10,1.46,1.45,1.46
252.92,4.10,2.66,4.10,2.66,-2.66,-2.54,-3.08,1.45,1.45,1.44
255.45,4.04,2.61,4.04,2.61,-2.61,-2.49,-3.04,1.44,1.44,1.44
258.00,3.98,2.55,3.98,2.56,-2.56,-2.44,-3.01,1.43,1.43,1.43
260.58,3.92,2.51,3.92,2.51,-2.51,-2.40,-2.97,1.41,1.41,1.41
263.19,3.86,2.46,3.86,2.46,-2.46,-2.35,-2.92,1.40,1.40,1.41
265.82,3.80,2.41,3.80,2.41,-2.41,-2.30,-2.87,1.39,1.39,1.39
268.48,3.74,2.36,3.74,2.36,-2.36,-2.26,-2.82,1.38,1.38,1.38
271.16,3.68,2.31,3.68,2.31,-2.31,-2.21,-2.76,1.37,1.37,1.37
273.87,3.62,2.26,3.62,2.26,-2.26,-2.16,-2.70,1.36,1.36,1.36
276.61,3.56,2.21,3.56,2.21,-2.21,-2.11,-2.64,1.35,1.35,1.35
279.38,3.49,2.15,3.50,2.16,-2.16,-2.06,-2.57,1.33,1.34,1.34
282.17,3.44,2.11,3.44,2.11,-2.11,-2.01,-2.50,1.33,1.33,1.33
284.99,3.37,2.06,3.38,2.06,-2.06,-1.96,-2.43,1.31,1.31,1.31
287.84,3.31,2.01,3.31,2.01,-2.01,-1.92,-2.36,1.30,1.30,1.30
290.72,3.25,1.97,3.25,1.96,-1.96,-1.87,-2.29,1.29,1.29,1.29
293.63,3.18,1.90,3.19,1.91,-1.91,-1.82,-2.21,1.28,1.28,1.28
296.57,3.12,1.85,3.12,1.85,-1.85,-1.77,-2.13,1.27,1.27,1.27
299.53,3.05,1.80,3.06,1.80,-1.80,-1.72,-2.06,1.26,1.26,1.25
302.53,2.99,1.74,2.99,1.74,-1.74,-1.67,-1.98,1.25,1.25,1.25
305.55,2.92,1.69,2.92,1.68,-1.68,-1.62,-1.90,1.24,1.24,1.24
308.61,2.85,1.62,2.86,1.62,-1.63,-1.57,-1.82,1.23,1.23,1.23
311.69,2.79,1.56,2.79,1.57,-1.57,-1.52,-1.74,1.23,1.23,1.23
314.81,2.73,1.51,2.73,1.51,-1.51,-1.47,-1.66,1.23,1.22,1.22
317.96,2.66,1.45,2.67,1.45,-1.45,-1.42,-1.58,1.22,1.22,1.22
321.14,2.60,1.39,2.60,1.39,-1.39,-1.37,-1.50,1.22,1.21,1.21
324.35,2.52,1.32,2.53,1.33,-1.33,-1.32,-1.42,1.20,1.20,1.20
327.59,2.46,1.27,2.46,1.27,-1.27,-1.27,-1.34,1.20,1.19,1.20
330.87,2.39,1.21,2.39,1.21,-1.21,-1.21,-1.26,1.19,1.19,1.18
334.18,2.33,1.15,2.33,1.15,-1.15,-1.16,-1.18,1.19,1.18,1.18
337.52,2.26,1.08,2.27,1.09,-1.09,-1.11,-1.11,1.17,1.18,1.18
340.90,2.20,1.04,2.20,1.03,-1.03,-1.06,-1.03,1.17,1.17,1.17
344.30,2.13,0.97,2.13,0.97,-0.97,-1.01,-0.95,1.16,1.16,1.17
347.75,2.06,0.91,2.07,0.92,-0.92,-0.96,-0.88,1.15,1.15,1.15
351.23,2.00,0.86,2.00,0.86,-0.86,-0.91,-0.80,1.14,1.14,1.14
354.74,1.94,0.81,1.94,0.81,-0.80,-0.86,-0.72,1.14,1.14,1.13
358.28,1.87,0.75,1.88,0.75,-0.75,-0.81,-0.65,1.12,1.13,1.13
361.87,1.81,0.70,1.81,0.69,-0.70,-0.76,-0.58,1.12,1.11,1.12
365.49,1.74,0.64,1.74,0.64,-0.64,-0.70,-0.50,1.10,1.10,1.10
369.14,1.67,0.58,1.68,0.59,-0.59,-0.65,-0.43,1.08,1.09,1.09
372.83,1.62,0.54,1.62,0.54,-0.54,-0.60,-0.36,1.09,1.08,1.08
376.56,1.55,0.48,1.55,0.48,-0.48,-0.55,-0.29,1.07,1.07,1.07
380.33,1.49,0.43,1.49,0.43,-0.43,-0.50,-0.22,1.06,1.06,1.06
384.13,1.42,0.38,1.42,0.38,-0.38,-0.44,-0.15,1.04,1.05,1.05
387.97,1.36,0.33,1.36,0.32,-0.33,-0.39,-0.08,1.04,1.03,1.04
391.85,1.29,0.27,1.30,0.27,-0.27,-0.34,-0.01,1.02,1.02,1.02
395.77,1.23,0.22,1.23,0.22,-0.22,-0.29,0.06,1.01,1.02,1.01
399.73,1.17,0.17,1.17,0.17,-0.17,-0.24,0.13,1.01,1.01,1.00
403.72,1.11,0.11,1.11,0.11,-0.11,-0.18,0.20,1.00,1.00,1.00
407.76,1.04,0.05,1.05,0.06,-0.06,-0.13,0.26,0.98,0.99,0.99
411.84,0.98,0.00,0.98,0.00,-0.01,-0.08,0.33,0.98,0.98,0.98
415.96,0.92,-0.04,0.92,-0.05,0.05,-0.02,0.39,0.97,0.97,0.97
420.12,0.85,-0.10,0.86,-0.10,0.10,0.03,0.46,0.95,0.96,0.96
424.32,0.79,-0.15,0.79,-0.15,0.15,0.08,0.52,0.94,0.95,0.95
428.56,0.73,-0.20,0.73,-0.20,0.20,0.14,0.58,0.94,0.94,0.93
432.85,0.67,-0.25,0.67,-0.25,0.26,0.19,0.64,0.93,0.93,0.92
437.18,0.60,-0.31,0.61,-0.31,0.31,0.25,0.70,0.91,0.91,0.91
441.55,0.54,-0.36,0.54,-0.36,0.36,0.30,0.76,0.90,0.90,0.90
445.96,0.47,-0.41,0.47,-0.41,0.41,0.36,0.82,0.89,0.89,0.88
450.42,0.40,-0.47,0.41,-0.46,0.46,0.41,0.87,0.87,0.87,0.87
454.93,0.34,-0.52,0.34,-0.52,0.52,0.47,0.93,0.86,0.86,0.86
459.48,0.27,-0.57,0.27,-0.57,0.57,0.52,0.98,0.84,0.84,0.84
464.07,0.20,-0.63,0.21,-0.62,0.62,0.58,1.03,0.82,0.83,0.83
468.71,0.14,-0.68,0.14,-0.67,0.67,0.63,1.08,0.82,0.81,0.82
473.40,0.08,-0.72,0.08,-0.72,0.73,0.69,1.13,0.81,0.80,0.81
478.13,0.01,-0.77,0.02,-0.77,0.78,0.75,1.17,0.79,0.79,0.79
482.91,-0.05,-0.82,-0.05,-0.83,0.83,0.80,1.21,0.78,0.78,0.78
487.74,-0.12,-0.88,-0.12,-0.88,0.88,0.86,1.25,0.77,0.77,0.77
492.62,-0.19,-0.94,-0.18,-0.94,0.94,0.92,1.29,0.75,0.75,0.76
497.55,-0.25,-0.99,-0.25,-1.00,0.99,0.97,1.33,0.74,0.74,0.74
502.52,-0.32,-1.05,-0.32,-1.05,1.05,1.03,1.36,0.73,0.73,0.73
507.55,-0.39,-1.10,-0.38,-1.10,1.10,1.09,1.39,0.71,0.72,0.71
512.62,-0.45,-1.15,-0.45,-1.16,1.16,1.15,1.42,0.71,0.70,0.70
517.75,-0.52,-1.21,-0.52,-1.21,1.21,1.20,1.45,0.69,0.69,0.69
522.93,-0.59,-1.27,-0.58,-1.27,1.27,1.26,1.48,0.68,0.68,0.68
528.16,-0.65,-1.32,-0.65,-1.32,1.32,1.32,1.50,0.68,0.67,0.67
533.44,-0.72,-1.38,-0.72,-1.38,1.38,1.38,1.52,0.66,0.66,0.66
538.77,-0.79,-1.44,-0.79,-1.44,1.44,1.44,1.54,0.65,0.65,0.65
544.16,-0.86,-1.50,-0.86,-1.50,1.50,1.50,1.56,0.64,0.64,0.64
549.60,-0.93,-1.57,-0.92,-1.56,1.56,1.56,1.58,0.63,0.64,0.64
555.10,-0.99,-1.62,-0.99,-1.62,1.62,1.61,1.60,0.63,0.63,0.63
