frequency,raw
20.00,6.72
20.20,6.77
20.40,6.81
20.61,6.85
20.81,6.88
21.02,6.92
21.23,6.96
21.44,7.00
21.66,7.04
21.87,7.07
22.09,7.11
22.31,7.14
22.54,7.16
22.76,7.19
22.99,7.22
23.22,7.25
23.45,7.28
23.69,7.31
23.92,7.32
24.16,7.35
24.40,7.37
24.65,7.40
24.89,7.41
25.14,7.44
25.39,7.47
25.65,7.49
25.91,7.51
26.16,7.53
26.43,7.55
26.69,7.57
26.96,7.59
27.23,7.61
27.50,7.63
27.77,7.65
28.05,7.67
28.33,7.69
28.62,7.70
28.90,7.73
29.19,7.74
29.48,7.75
29.78,7.77
30.08,7.78
30.38,7.80
30.68,7.81
30.99,7.82
31.30,7.83
31.61,7.85
31.93,7.86
32.24,7.87
32.57,7.89
32.89,7.90
33.22,7.90
33.55,7.92
33.89,7.93
34.23,7.93
34.57,7.95
34.92,7.96
35.27,7.97
35.62,7.99
35.97,8.00
36.33,8.01
36.70,8.02
37.06,8.03
37.43,8.05
37.81,8.06
38.19,8.06
38.57,8.08
38.95,8.08
39.34,8.09
39.74,8.10
40.14,8.11
40.54,8.11
40.94,8.11
41.35,8.11
41.76,8.11
42.18,8.11
42.60,8.11
43.03,8.10
43.46,8.10
43.90,8.10
44.33,8.10
44.78,8.09
45.23,8.09
45.68,8.08
46.13,8.07
46.60,8.06
47.06,8.05
47.53,8.05
48.01,8.04
48.49,8.03
48.97,8.01
49.46,8.00
49.96,7.98
50.46,7.96
50.96,7.94
51.47,7.92
51.99,7.90
52.51,7.88
53.03,7.86
53.56,7.84
54.10,7.82
54.64,7.80
55.18,7.78
55.74,7.77
56.29,7.74
56.86,7.73
57.42,7.73
58.00,7.71
58.58,7.72
59.16,7.72
59.76,7.71
60.35,7.71
60.96,7.71
61.57,7.71
62.18,7.71
62.80,7.69
63.43,7.68
64.07,7.67
64.71,7.65
65.35,7.63
66.01,7.61
66.67,7.58
67.33,7.56
68.01,7.54
68.69,7.52
69.37,7.50
70.07,7.49
70.77,7.47
71.48,7.44
72.19,7.41
72.91,7.39
73.64,7.37
74.38,7.34
75.12,7.32
75.87,7.28
76.63,7.26
77.40,7.25
78.17,7.23
78.95,7.22
79.74,7.19
80.54,7.15
81.35,7.12
82.16,7.08
82.98,7.04
83.81,7.00
84.65,6.95
85.50,6.91
86.35,6.87
87.22,6.83
88.09,6.80
88.97,6.78
89.86,6.76
90.76,6.74
91.66,6.73
92.58,6.71
93.51,6.69
94.44,6.67
95.39,6.66
96.34,6.64
97.30,6.61
98.28,6.59
99.26,6.57
100.25,6.54
101.25,6.50
102.27,6.48
103.29,6.46
104.32,6.43
105.37,6.39
106.42,6.36
107.48,6.33
108.56,6.31
109.64,6.30
110.74,6.30
111.85,6.31
112.97,6.30
114.10,6.31
115.24,6.32
116.39,6.33
117.55,6.32
118.73,6.32
119.92,6.30
121.12,6.29
122.33,6.26
123.55,6.23
124.79,6.19
126.03,6.16
127.29,6.14
128.57,6.11
129.85,6.06
131.15,6.00
132.46,5.96
133.79,5.91
135.12,5.85
136.48,5.82
137.84,5.78
139.22,5.77
140.61,5.74
142.02,5.69
143.44,5.65
144.87,5.60
146.32,5.55
147.78,5.50
149.26,5.46
150.75,5.42
152.26,5.41
153.78,5.38
155.32,5.33
156.88,5.28
158.44,5.23
160.03,5.17
161.63,5.14
163.24,5.10
164.88,5.06
166.53,5.04
168.19,5.03
169.87,4.98
171.57,4.95
173.29,4.91
175.02,4.86
176.77,4.81
178.54,4.78
180.32,4.76
182.13,4.74
183.95,4.72
185.79,4.68
187.65,4.65
189.52,4.61
191.42,4.56
193.33,4.52
195.27,4.48
197.22,4.45
199.19,4.43
201.18,4.39
203.19,4.36
205.23,4.31
207.28,4.26
209.35,4.21
211.44,4.16
213.56,4.12
215.69,4.07
217.85,4.02
220.03,3.98
222.23,3.94
224.45,3.88
226.70,3.83
228.96,3.76
231.25,3.72
233.57,3.67
235.90,3.59
238.26,3.56
240.64,3.51
243.05,3.46
245.48,3.41
247.93,3.35
250.41,3.30
252.92,3.24
255.45,3.20
258.00,3.16
260.58,3.10
263.19,3.05
265.82,2.99
268.48,2.93
271.16,2.88
273.87,2.83
276.61,2.79
279.38,2.75
282.17,2.69
284.99,2.63
287.84,2.55
290.72,2.50
293.63,2.46
296.57,2.42
299.53,2.37
302.53,2.32
305.55,2.28
308.61,2.22
311.69,2.17
314.81,2.13
317.96,2.10
321.14,2.04
324.35,1.99
327.59,1.93
330.87,1.87
334.18,1.82
337.52,1.78
340.90,1.72
344.30,1.66
347.75,1.62
351.23,1.56
354.74,1.49
358.28,1.43
361.87,1.38
365.49,1.35
369.14,1.31
372.83,1.27
376.56,1.22
380.33,1.18
384.13,1.14
387.97,1.09
391.85,1.03
395.77,0.99
399.73,0.93
403.72,0.90
407.76,0.86
411.84,0.84
415.96,0.79
420.12,0.75
424.32,0.71
428.56,0.66
432.85,0.62
437.18,0.59
441.55,0.57
445.96,0.54
450.42,0.50
454.93,0.45
459.48,0.39
464.07,0.34
468.71,0.29
473.40,0.25
478.13,0.21
482.91,0.17
487.74,0.14
492.62,0.10
497.55,0.05
502.52,-0.00
507.55,-0.04
512.62,-0.07
517.75,-0.12
522.93,-0.15
528.16,-0.19
533.44,-0.24
538.77,-0.30
544.16,-0.36
549.60,-0.40
555.10,-0.44
560.65,-0.48
566.25,-0.51
571.92,-0.56
577.64,-0.60
583.41,-0.64
589.25,-0.69
595.14,-0.74
601.09,-0.78
607.10,-0.82
613.17,-0.84
619.30,-0.86
625.50,-0.90
631.75,-0.94
638.07,-0.99
644.45,-1.04
650.89,-1.08
657.40,-1.12
663.98,-1.16
670.62,-1.19
677.32,-1.21
684.10,-1.22
690.94,-1.25
697.85,-1.29
704.83,-1.33
711.87,-1.37
718.99,-1.40
726.18,-1.43
733.44,-1.46
740.78,-1.49
748.19,-1.52
755.67,-1.54
763.23,-1.57
770.86,-1.60
778.57,-1.64
786.35,-1.68
794.22,-1.70
802.16,-1.74
810.18,-1.77
818.28,-1.80
826.46,-1.80
834.73,-1.81
843.08,-1.84
851.51,-1.86
860.02,-1.90
868.62,-1.93
877.31,-1.97
886.08,-1.99
894.94,-2.01
903.89,-2.02
912.93,-2.03
922.06,-2.03
931.28,-2.02
940.59,-2.01
950.00,-1.99
959.50,-1.99
969.09,-1.99
978.78,-1.98
988.57,-1.96
998.46,-1.93
1008.44,-1.91
1018.53,-1.88
1028.71,-1.85
1039.00,-1.81
1049.39,-1.77
1059.88,-1.73
1070.48,-1.69
1081.19,-1.63
1092.00,-1.56
1102.92,-1.47
1113.95,-1.38
1125.09,-1.30
1136.34,-1.22
1147.70,-1.15
1159.18,-1.08
1170.77,-1.01
1182.48,-0.96
1194.30,-0.91
1206.25,-0.87
1218.31,-0.82
1230.49,-0.76
1242.80,-0.70
1255.22,-0.65
1267.78,-0.59
1280.45,-0.54
1293.26,-0.49
1306.19,-0.46
1319.25,-0.41
1332.45,-0.38
1345.77,-0.35
1359.23,-0.33
1372.82,-0.32
1386.55,-0.30
1400.41,-0.28
1414.42,-0.27
1428.56,-0.27
1442.85,-0.28
1457.28,-0.29
1471.85,-0.30
1486.57,-0.31
1501.43,-0.31
1516.45,-0.32
1531.61,-0.33
1546.93,-0.35
1562.40,-0.38
1578.02,-0.41
1593.80,-0.46
1609.74,-0.51
1625.84,-0.55
1642.10,-0.59
1658.52,-0.64
1675.10,-0.70
1691.85,-0.76
1708.77,-0.84
1725.86,-0.91
1743.12,-0.99
1760.55,-1.06
1778.15,-1.11
1795.94,-1.14
1813.90,-1.15
1832.03,-1.12
1850.36,-1.08
1868.86,-0.99
1887.55,-0.87
1906.42,-0.72
1925.49,-0.57
1944.74,-0.39
1964.19,-0.20
1983.83,0.02
2003.67,0.25
2023.71,0.49
2043.94,0.71
2064.38,0.92
2085.03,1.13
2105.88,1.33
2126.94,1.53
2148.20,1.72
2169.69,1.91
2191.38,2.09
2213.30,2.25
2235.43,2.41
2257.78,2.55
2280.36,2.69
2303.17,2.79
2326.20,2.86
2349.46,2.93
2372.95,2.98
2396.68,3.02
2420.65,3.04
2444.86,3.07
2469.31,3.10
2494.00,3.12
2518.94,3.16
2544.13,3.19
2569.57,3.23
2595.27,3.26
2621.22,3.32
2647.43,3.38
2673.90,3.44
2700.64,3.50
2727.65,3.56
2754.93,3.63
2782.48,3.70
2810.30,3.74
2838.40,3.77
2866.79,3.79
2895.46,3.79
2924.41,3.79
2953.65,3.81
2983.19,3.83
3013.02,3.85
3043.15,3.88
3073.58,3.92
3104.32,3.97
3135.36,4.03
3166.72,4.10
3198.38,4.18
3230.37,4.27
3262.67,4.38
3295.30,4.49
3328.25,4.61
3361.53,4.75
3395.15,4.89
3429.10,5.02
3463.39,5.18
3498.03,5.31
3533.01,5.45
3568.34,5.60
3604.02,5.75
3640.06,5.90
3676.46,6.05
3713.22,6.18
3750.36,6.32
3787.86,6.43
3825.74,6.53
3864.00,6.61
3902.64,6.67
3941.66,6.71
3981.08,6.72
4020.89,6.72
4061.10,6.70
4101.71,6.68
4142.73,6.65
4184.15,6.60
4226.00,6.54
4268.26,6.45
4310.94,6.36
4354.05,6.27
4397.59,6.18
4441.56,6.08
4485.98,5.99
4530.84,5.89
4576.15,5.77
4621.91,5.64
4668.13,5.53
4714.81,5.40
4761.96,5.26
4809.58,5.13
4857.67,4.97
4906.25,4.83
4955.31,4.70
5004.87,4.57
5054.91,4.44
5105.46,4.30
5156.52,4.18
5208.08,4.03
5260.16,3.89
5312.77,3.75
5365.89,3.60
5419.55,3.46
5473.75,3.31
5528.49,3.15
5583.77,2.99
5639.61,2.85
5696.00,2.69
5752.96,2.53
5810.49,2.38
5868.60,2.21
5927.28,2.03
5986.56,1.86
6046.42,1.69
6106.89,1.51
6167.96,1.33
6229.64,1.13
6291.93,0.91
6354.85,0.68
6418.40,0.45
6482.58,0.21
6547.41,-0.03
6612.88,-0.28
6679.01,-0.54
6745.80,-0.81
6813.26,-1.09
6881.39,-1.34
6950.21,-1.59
7019.71,-1.83
7089.91,-2.03
7160.81,-2.21
7232.41,-2.38
7304.74,-2.51
7377.79,-2.62
7451.56,-2.73
7526.08,-2.81
7601.34,-2.90
7677.35,-2.99
7754.13,-3.09
7831.67,-3.21
7909.98,-3.36
7989.08,-3.53
8068.98,-3.75
8149.67,-3.99
8231.16,-4.23
8313.47,-4.48
8396.61,-4.69
8480.57,-4.87
8565.38,-5.01
8651.03,-5.10
8737.54,-5.15
8824.92,-5.13
8913.17,-5.04
9002.30,-4.92
9092.32,-4.78
9183.25,-4.60
9275.08,-4.39
9367.83,-4.18
9461.51,-4.04
9556.12,-3.92
9651.68,-3.85
9748.20,-3.82
9845.68,-3.85
9944.14,-3.90
10043.58,-3.97
10144.02,-4.06
10245.46,-4.14
10347.91,-4.24
10451.39,-4.34
10555.91,-4.42
10661.46,-4.50
10768.08,-4.56
10875.76,-4.63
10984.52,-4.71
11094.36,-4.76
11205.31,-4.81
11317.36,-4.83
11430.53,-4.84
11544.84,-4.85
11660.29,-4.83
11776.89,-4.80
11894.66,-4.73
12013.60,-4.63
12133.74,-4.49
12255.08,-4.33
12377.63,-4.13
12501.41,-3.92
12626.42,-3.70
12752.68,-3.48
12880.21,-3.27
13009.01,-3.08
13139.10,-2.91
13270.49,-2.79
13403.20,-2.69
13537.23,-2.62
13672.60,-2.57
13809.33,-2.54
13947.42,-2.54
14086.90,-2.54
14227.77,-2.59
14370.04,-2.68
14513.74,-2.84
14658.88,-3.09
14805.47,-3.44
14953.52,-3.91
15103.06,-4.52
15254.09,-5.28
15406.63,-6.14
15560.70,-7.10
15716.30,-8.12
15873.47,-9.19
16032.20,-10.27
16192.52,-11.33
16354.45,-12.35
16517.99,-13.29
16683.17,-14.11
16850.01,-14.77
17018.51,-15.28
17188.69,-15.61
17360.58,-15.79
17534.18,-15.86
17709.53,-15.87
17886.62,-15.83
18065.49,-15.83
18246.14,-15.91
18428.60,-15.99
18612.89,-16.04
18799.02,-16.07
18987.01,-16.07
19176.88,-16.07
19368.65,-16.05
19562.33,-15.99
19757.96,-15.92
19955.54,-15.83
