frequency,raw,error,smoothed,error_smoothed,equalization,parametric_eq,fixed_band_eq,equalized_raw,equalized_smoothed,target
20.00,-4.40,-6.71,-4.40,-6.70,5.97,6.04,1.45,1.57,1.57,2.31
20.20,-4.29,-6.60,-4.30,-6.61,6.00,5.98,1.50,1.71,1.71,2.30
20.40,-4.19,-6.51,-4.19,-6.51,6.02,5.92,1.54,1.83,1.83,2.31
20.61,-4.09,-6.41,-4.09,-6.41,6.03,5.86,1.59,1.94,1.94,2.32
20.81,-3.98,-6.31,-3.98,-6.31,6.02,5.79,1.64,2.04,2.04,2.32
21.02,-3.87,-6.21,-3.87,-6.21,6.01,5.73,1.69,2.13,2.13,2.33
21.23,-3.76,-6.10,-3.77,-6.11,5.98,5.66,1.74,2.21,2.21,2.33
21.44,-3.66,-6.01,-3.66,-6.00,5.93,5.59,1.80,2.27,2.27,2.34
21.66,-3.56,-5.91,-3.55,-5.90,5.88,5.52,1.85,2.32,2.32,2.35
21.87,-3.44,-5.80,-3.45,-5.80,5.80,5.44,1.91,2.36,2.36,2.35
22.09,-3.34,-5.71,-3.34,-5.70,5.72,5.37,1.97,2.38,2.38,2.36
22.31,-3.23,-5.61,-3.24,-5.60,5.63,5.29,2.03,2.39,2.39,2.37
22.54,-3.14,-5.51,-3.13,-5.51,5.52,5.22,2.09,2.39,2.39,2.37
22.76,-3.02,-5.41,-3.02,-5.41,5.41,5.14,2.15,2.39,2.39,2.38
22.99,-2.91,-5.31,-2.92,-5.31,5.31,5.06,2.22,2.39,2.39,2.39
23.22,-2.81,-5.22,-2.81,-5.21,5.21,4.99,2.28,2.40,2.40,2.40
23.45,-2.70,-5.11,-2.70,-5.11,5.11,4.91,2.35,2.41,2.41,2.41
23.69,-2.60,-5.02,-2.60,-5.02,5.02,4.83,2.42,2.42,2.42,2.42
23.92,-2.48,-4.91,-2.49,-4.92,4.92,4.75,2.49,2.44,2.43,2.43
24.16,-2.38,-4.82,-2.38,-4.82,4.82,4.67,2.56,2.44,2.44,2.44
24.40,-2.27,-4.72,-2.28,-4.73,4.73,4.59,2.64,2.46,2.45,2.45
24.65,-2.18,-4.64,-2.17,-4.64,4.63,4.52,2.71,2.46,2.46,2.47
24.89,-2.06,-4.54,-2.07,-4.54,4.54,4.44,2.78,2.48,2.48,2.48
25.14,-1.96,-4.45,-1.96,-4.45,4.45,4.36,2.86,2.49,2.49,2.49
25.39,-1.86,-4.36,-1.86,-4.36,4.36,4.28,2.94,2.50,2.50,2.50
25.65,-1.76,-4.26,-1.76,-4.27,4.27,4.21,3.01,2.51,2.51,2.51
25.91,-1.66,-4.18,-1.66,-4.18,4.18,4.13,3.09,2.52,2.52,2.53
26.16,-1.55,-4.09,-1.55,-4.09,4.09,4.05,3.16,2.54,2.53,2.54
26.43,-1.46,-4.00,-1.46,-4.00,4.00,3.98,3.24,2.54,2.54,2.54
26.69,-1.35,-3.91,-1.35,-3.91,3.91,3.90,3.31,2.55,2.55,2.55
26.96,-1.26,-3.83,-1.25,-3.82,3.82,3.83,3.38,2.57,2.57,2.57
27.23,-1.15,-3.73,-1.15,-3.73,3.73,3.75,3.45,2.59,2.59,2.58
27.50,-1.05,-3.65,-1.04,-3.64,3.65,3.68,3.52,2.60,2.60,2.60
27.77,-0.94,-3.56,-0.94,-3.56,3.56,3.61,3.59,2.62,2.62,2.61
28.05,-0.84,-3.47,-0.85,-3.48,3.48,3.53,3.65,2.63,2.63,2.63
28.33,-0.75,-3.39,-0.75,-3.39,3.39,3.46,3.71,2.64,2.64,2.64
28.62,-0.66,-3.31,-0.65,-3.31,3.31,3.39,3.76,2.65,2.65,2.66
28.90,-0.55,-3.22,-0.56,-3.23,3.23,3.32,3.81,2.67,2.67,2.67
29.19,-0.46,-3.15,-0.46,-3.15,3.15,3.25,3.86,2.68,2.69,2.69
29.48,-0.36,-3.06,-0.37,-3.06,3.07,3.18,3.90,2.70,2.70,2.70
29.78,-0.28,-2.99,-0.28,-2.99,2.99,3.12,3.93,2.72,2.72,2.72
30.08,-0.19,-2.91,-0.19,-2.91,2.92,3.05,3.96,2.73,2.73,2.72
30.38,-0.11,-2.85,-0.11,-2.85,2.85,2.98,3.98,2.74,2.74,2.74
30.68,-0.02,-2.78,-0.02,-2.78,2.78,2.92,4.00,2.75,2.75,2.75
30.99,0.05,-2.72,0.05,-2.71,2.71,2.85,4.00,2.76,2.77,2.77
31.30,0.13,-2.65,0.13,-2.65,2.64,2.79,4.00,2.78,2.78,2.78
31.61,0.22,-2.58,0.21,-2.58,2.58,2.73,4.00,2.79,2.79,2.80
31.93,0.29,-2.51,0.30,-2.51,2.51,2.66,3.98,2.81,2.81,2.81
32.24,0.38,-2.45,0.37,-2.45,2.45,2.60,3.96,2.83,2.82,2.83
32.57,0.45,-2.38,0.45,-2.38,2.39,2.54,3.93,2.84,2.84,2.83
32.89,0.53,-2.33,0.53,-2.32,2.32,2.48,3.90,2.85,2.85,2.85
33.22,0.61,-2.26,0.61,-2.26,2.26,2.42,3.86,2.86,2.86,2.86
33.55,0.69,-2.19,0.68,-2.20,2.20,2.36,3.81,2.88,2.88,2.88
33.89,0.76,-2.13,0.76,-2.13,2.13,2.31,3.76,2.89,2.89,2.89
34.23,0.83,-2.07,0.83,-2.07,2.07,2.25,3.71,2.91,2.90,2.91
34.57,0.91,-2.01,0.90,-2.01,2.01,2.19,3.64,2.92,2.91,2.91
34.92,0.97,-1.95,0.98,-1.95,1.95,2.14,3.58,2.92,2.93,2.92
35.27,1.05,-1.89,1.05,-1.89,1.88,2.08,3.51,2.94,2.93,2.94
35.62,1.12,-1.82,1.13,-1.82,1.82,2.03,3.44,2.95,2.95,2.95
35.97,1.20,-1.76,1.20,-1.76,1.76,1.98,3.36,2.95,2.96,2.96
36.33,1.28,-1.69,1.27,-1.69,1.69,1.92,3.28,2.97,2.96,2.96
36.70,1.34,-1.63,1.35,-1.63,1.63,1.87,3.20,2.97,2.97,2.97
37.06,1.42,-1.56,1.42,-1.56,1.57,1.82,3.12,2.98,2.98,2.98
37.43,1.49,-1.50,1.49,-1.50,1.50,1.77,3.04,2.99,2.99,2.99
37.81,1.56,-1.44,1.55,-1.44,1.44,1.72,2.96,3.00,3.00,2.99
38.19,1.61,-1.39,1.62,-1.38,1.38,1.67,2.87,3.00,3.00,3.00
38.57,1.69,-1.32,1.68,-1.33,1.33,1.62,2.79,3.01,3.01,3.01
38.95,1.75,-1.27,1.75,-1.27,1.27,1.57,2.71,3.01,3.01,3.02
39.34,1.81,-1.22,1.81,-1.22,1.21,1.52,2.62,3.02,3.02,3.02
39.74,1.87,-1.17,1.87,-1.16,1.16,1.48,2.54,3.02,3.02,3.03
40.14,1.92,-1.10,1.93,-1.11,1.11,1.43,2.46,3.03,3.03,3.03
40.54,1.98,-1.05,1.98,-1.05,1.05,1.38,2.38,3.04,3.04,3.03
40.94,2.04,-1.01,2.04,-1.00,1.01,1.34,2.30,3.04,3.04,3.04
41.35,2.09,-0.96,2.09,-0.96,0.96,1.29,2.22,3.05,3.05,3.05
41.76,2.14,-0.92,2.13,-0.92,0.92,1.25,2.14,3.06,3.06,3.05
42.18,2.18,-0.88,2.18,-0.88,0.89,1.20,2.06,3.06,3.06,3.06
42.60,2.22,-0.85,2.21,-0.85,0.85,1.16,1.98,3.07,3.07,3.07
43.03,2.25,-0.83,2.25,-0.82,0.82,1.12,1.91,3.07,3.07,3.07
43.46,2.28,-0.80,2.28,-0.80,0.80,1.07,1.84,3.07,3.07,3.08
43.90,2.31,-0.78,2.31,-0.78,0.78,1.03,1.76,3.08,3.08,3.08
44.33,2.34,-0.76,2.34,-0.76,0.76,0.99,1.69,3.09,3.09,3.10
44.78,2.37,-0.74,2.36,-0.74,0.74,0.95,1.62,3.11,3.10,3.10
45.23,2.39,-0.72,2.39,-0.73,0.73,0.91,1.56,3.11,3.11,3.11
45.68,2.41,-0.72,2.40,-0.72,0.72,0.86,1.49,3.12,3.12,3.12
46.13,2.42,-0.71,2.42,-0.71,0.71,0.82,1.42,3.12,3.13,3.13
46.60,2.44,-0.71,2.43,-0.71,0.70,0.78,1.36,3.14,3.14,3.14
47.06,2.45,-0.70,2.45,-0.70,0.70,0.74,1.30,3.15,3.15,3.15
47.53,2.46,-0.70,2.45,-0.70,0.71,0.70,1.24,3.16,3.16,3.16
48.01,2.46,-0.71,2.46,-0.71,0.71,0.66,1.18,3.17,3.17,3.16
48.49,2.46,-0.72,2.45,-0.72,0.72,0.62,1.12,3.18,3.17,3.18
48.97,2.45,-0.73,2.45,-0.73,0.73,0.59,1.06,3.18,3.18,3.18
49.46,2.45,-0.75,2.45,-0.74,0.74,0.55,1.00,3.18,3.18,3.19
49.96,2.45,-0.75,2.44,-0.75,0.75,0.51,0.95,3.19,3.19,3.19
50.46,2.45,-0.75,2.44,-0.76,0.75,0.47,0.89,3.20,3.20,3.20
50.96,2.45,-0.76,2.45,-0.76,0.76,0.43,0.84,3.20,3.20,3.21
51.47,2.45,-0.77,2.45,-0.76,0.76,0.39,0.79,3.21,3.21,3.21
51.99,2.46,-0.76,2.45,-0.76,0.77,0.36,0.74,3.22,3.22,3.21
52.51,2.46,-0.76,2.45,-0.76,0.77,0.32,0.68,3.22,3.22,3.21
53.03,2.46,-0.76,2.46,-0.76,0.77,0.28,0.63,3.22,3.22,3.21
53.56,2.46,-0.77,2.45,-0.77,0.76,0.25,0.59,3.22,3.22,3.23
54.10,2.46,-0.77,2.46,-0.77,0.76,0.21,0.54,3.21,3.22,3.23
54.64,2.47,-0.76,2.47,-0.76,0.75,0.17,0.49,3.21,3.21,3.23
55.18,2.49,-0.73,2.48,-0.74,0.73,0.13,0.44,3.22,3.22,3.22
55.74,2.51,-0.71,2.50,-0.71,0.71,0.10,0.40,3.22,3.22,3.21
56.29,2.53,-0.69,2.52,-0.68,0.69,0.06,0.35,3.21,3.21,3.21
56.86,2.55,-0.66,2.55,-0.66,0.66,0.02,0.31,3.20,3.21,3.20
57.42,2.58,-0.62,2.57,-0.62,0.62,-0.01,0.26,3.20,3.20,3.20
58.00,2.61,-0.58,2.60,-0.59,0.59,-0.05,0.22,3.19,3.19,3.19
58.58,2.64,-0.55,2.64,-0.55,0.55,-0.09,0.18,3.18,3.18,3.18
59.16,2.67,-0.51,2.66,-0.51,0.51,-0.12,0.14,3.17,3.17,3.17
59.76,2.70,-0.46,2.69,-0.46,0.46,-0.16,0.09,3.16,3.16,3.16
60.35,2.73,-0.42,2.73,-0.42,0.41,-0.20,0.05,3.14,3.14,3.14
60.96,2.77,-0.36,2.76,-0.37,0.36,-0.23,0.01,3.13,3.13,3.13
61.57,2.81,-0.31,2.80,-0.31,0.31,-0.27,-0.03,3.11,3.11,3.11
62.18,2.85,-0.25,2.85,-0.25,0.25,-0.31,-0.07,3.09,3.09,3.10
62.80,2.90,-0.19,2.89,-0.19,0.18,-0.34,-0.11,3.08,3.08,3.08
63.43,2.94,-0.13,2.94,-0.12,0.12,-0.38,-0.15,3.06,3.06,3.07
64.07,2.99,-0.05,2.99,-0.06,0.06,-0.42,-0.18,3.05,3.05,3.04
64.71,3.04,0.01,3.03,0.01,0.00,-0.45,-0.22,3.04,3.03,3.02
65.35,3.08,0.07,3.07,0.07,-0.06,-0.49,-0.26,3.02,3.01,3.00
66.01,3.11,0.12,3.11,0.12,-0.12,-0.53,-0.30,2.99,2.99,2.99
66.67,3.14,0.17,3.14,0.17,-0.17,-0.56,-0.34,2.96,2.96,2.97
67.33,3.17,0.22,3.16,0.22,-0.23,-0.60,-0.38,2.94,2.94,2.95
68.01,3.20,0.28,3.19,0.28,-0.28,-0.64,-0.42,2.91,2.91,2.92
68.69,3.23,0.33,3.23,0.33,-0.34,-0.68,-0.45,2.89,2.89,2.90
69.37,3.27,0.39,3.27,0.39,-0.39,-0.71,-0.49,2.87,2.87,2.87
70.07,3.31,0.45,3.30,0.45,-0.45,-0.75,-0.53,2.85,2.85,2.85
70.77,3.35,0.52,3.34,0.51,-0.51,-0.79,-0.57,2.83,2.83,2.83
71.48,3.38,0.57,3.38,0.57,-0.57,-0.83,-0.61,2.81,2.81,2.81
72.19,3.42,0.63,3.42,0.63,-0.63,-0.87,-0.65,2.79,2.79,2.78
72.91,3.46,0.69,3.45,0.69,-0.69,-0.91,-0.69,2.77,2.77,2.77
73.64,3.49,0.74,3.49,0.74,-0.74,-0.95,-0.73,2.75,2.75,2.74
74.38,3.52,0.79,3.52,0.79,-0.79,-0.98,-0.77,2.72,2.73,2.73
75.12,3.55,0.84,3.55,0.84,-0.84,-1.02,-0.81,2.71,2.71,2.70
75.87,3.58,0.89,3.58,0.89,-0.88,-1.06,-0.85,2.69,2.69,2.69
76.63,3.61,0.94,3.60,0.93,-0.93,-1.10,-0.90,2.68,2.68,2.67
77.40,3.63,0.97,3.62,0.97,-0.97,-1.14,-0.94,2.66,2.65,2.65
78.17,3.64,1.00,3.64,1.01,-1.01,-1.18,-0.99,2.63,2.63,2.63
78.95,3.66,1.04,3.66,1.04,-1.05,-1.22,-1.03,2.60,2.60,2.61
79.74,3.69,1.09,3.68,1.09,-1.10,-1.26,-1.08,2.59,2.58,2.59
80.54,3.72,1.14,3.71,1.14,-1.15,-1.31,-1.13,2.57,2.57,2.57
81.35,3.75,1.19,3.75,1.19,-1.20,-1.35,-1.18,2.55,2.55,2.55
82.16,3.79,1.25,3.78,1.25,-1.25,-1.39,-1.23,2.54,2.53,2.53
82.98,3.82,1.30,3.82,1.31,-1.30,-1.43,-1.28,2.52,2.52,2.51
83.81,3.85,1.36,3.85,1.36,-1.35,-1.47,-1.33,2.49,2.50,2.49
84.65,3.88,1.41,3.87,1.41,-1.40,-1.51,-1.38,2.47,2.47,2.47
85.50,3.90,1.45,3.90,1.45,-1.45,-1.56,-1.44,2.44,2.44,2.44
86.35,3.92,1.50,3.92,1.50,-1.50,-1.60,-1.49,2.42,2.42,2.42
87.22,3.94,1.54,3.94,1.54,-1.54,-1.64,-1.55,2.39,2.39,2.39
88.09,3.96,1.59,3.96,1.59,-1.59,-1.69,-1.61,2.37,2.37,2.37
88.97,3.99,1.63,3.98,1.63,-1.63,-1.73,-1.67,2.35,2.35,2.35
89.86,4.01,1.68,4.00,1.68,-1.68,-1.77,-1.73,2.33,2.33,2.33
90.76,4.03,1.72,4.03,1.72,-1.72,-1.82,-1.79,2.30,2.30,2.30
91.66,4.05,1.76,4.05,1.76,-1.76,-1.86,-1.85,2.28,2.28,2.29
92.58,4.07,1.81,4.07,1.81,-1.81,-1.91,-1.92,2.26,2.26,2.26
93.51,4.10,1.86,4.09,1.86,-1.85,-1.95,-1.98,2.24,2.24,2.23
94.44,4.12,1.90,4.11,1.90,-1.90,-1.99,-2.05,2.21,2.21,2.21
95.39,4.14,1.95,4.14,1.95,-1.95,-2.04,-2.12,2.19,2.19,2.19
96.34,4.16,1.99,4.16,1.99,-2.00,-2.08,-2.19,2.15,2.16,2.17
97.30,4.19,2.05,4.18,2.05,-2.05,-2.13,-2.26,2.13,2.13,2.14
98.28,4.22,2.11,4.21,2.10,-2.11,-2.17,-2.33,2.11,2.11,2.11
99.26,4.25,2.16,4.25,2.17,-2.16,-2.22,-2.40,2.08,2.09,2.08
100.25,4.29,2.22,4.28,2.22,-2.22,-2.27,-2.48,2.07,2.06,2.06
101.25,4.32,2.28,4.31,2.28,-2.27,-2.31,-2.55,2.04,2.04,2.03
102.27,4.34,2.33,4.33,2.33,-2.33,-2.36,-2.62,2.01,2.01,2.00
103.29,4.35,2.38,4.35,2.38,-2.38,-2.40,-2.70,1.97,1.97,1.96
104.32,4.37,2.43,4.36,2.43,-2.42,-2.45,-2.77,1.94,1.94,1.94
105.37,4.38,2.47,4.37,2.47,-2.47,-2.49,-2.84,1.91,1.91,1.91
106.42,4.38,2.51,4.38,2.51,-2.51,-2.54,-2.91,1.87,1.87,1.87
107.48,4.39,2.56,4.38,2.55,-2.56,-2.58,-2.98,1.83,1.83,1.83
108.56,4.39,2.60,4.38,2.60,-2.60,-2.63,-3.05,1.78,1.78,1.79
109.64,4.40,2.65,4.40,2.65,-2.66,-2.67,-3.12,1.74,1.74,1.75
110.74,4.41,2.70,4.41,2.70,-2.72,-2.72,-3.19,1.69,1.70,1.71
111.85,4.45,2.77,4.44,2.77,-2.78,-2.76,-3.25,1.66,1.66,1.67
112.97,4.48,2.85,4.48,2.85,-2.85,-2.81,-3.31,1.62,1.63,1.62
114.10,4.52,2.93,4.51,2.93,-2.92,-2.85,-3.37,1.59,1.59,1.58
115.24,4.55,3.01,4.54,3.00,-3.00,-2.89,-3.43,1.54,1.54,1.53
116.39,4.57,3.07,4.57,3.07,-3.08,-2.94,-3.48,1.49,1.49,1.50
117.55,4.60,3.15,4.60,3.15,-3.15,-2.98,-3.52,1.44,1.45,1.45
118.73,4.64,3.22,4.64,3.23,-3.22,-3.02,-3.57,1.41,1.41,1.41
119.92,4.68,3.31,4.67,3.30,-3.29,-3.06,-3.61,1.39,1.38,1.36
121.12,4.70,3.37,4.69,3.36,-3.35,-3.10,-3.64,1.35,1.34,1.33
122.33,4.71,3.41,4.70,3.41,-3.40,-3.14,-3.67,1.30,1.30,1.29
123.55,4.71,3.45,4.71,3.45,-3.46,-3.18,-3.69,1.25,1.25,1.26
124.79,4.72,3.50,4.72,3.50,-3.50,-3.22,-3.71,1.21,1.21,1.22
126.03,4.73,3.54,4.72,3.54,-3.55,-3.26,-3.72,1.18,1.17,1.19
127.29,4.74,3.58,4.74,3.59,-3.59,-3.29,-3.73,1.14,1.14,1.15
128.57,4.75,3.63,4.75,3.63,-3.64,-3.33,-3.74,1.11,1.11,1.12
129.85,4.77,3.68,4.76,3.68,-3.68,-3.36,-3.73,1.09,1.08,1.08
131.15,4.78,3.73,4.78,3.73,-3.72,-3.40,-3.73,1.06,1.06,1.05
132.46,4.79,3.77,4.79,3.77,-3.76,-3.43,-3.72,1.02,1.03,1.02
133.79,4.80,3.80,4.79,3.80,-3.80,-3.46,-3.70,1.00,0.99,1.00
135.12,4.80,3.83,4.80,3.83,-3.83,-3.49,-3.68,0.96,0.96,0.96
136.48,4.80,3.86,4.80,3.86,-3.86,-3.52,-3.66,0.93,0.93,0.93
137.84,4.80,3.89,4.80,3.89,-3.89,-3.54,-3.64,0.90,0.90,0.90
139.22,4.80,3.92,4.79,3.92,-3.92,-3.57,-3.61,0.88,0.87,0.87
140.61,4.79,3.94,4.79,3.94,-3.94,-3.59,-3.58,0.85,0.85,0.84
142.02,4.78,3.95,4.78,3.96,-3.96,-3.62,-3.54,0.82,0.82,0.83
143.44,4.78,3.98,4.77,3.98,-3.98,-3.64,-3.51,0.80,0.79,0.80
144.87,4.77,3.99,4.77,4.00,-4.00,-3.66,-3.47,0.77,0.77,0.77
146.32,4.76,4.02,4.75,4.02,-4.01,-3.67,-3.44,0.74,0.74,0.73
147.78,4.74,4.03,4.73,4.03,-4.03,-3.69,-3.40,0.71,0.71,0.71
149.26,4.72,4.03,4.72,4.03,-4.04,-3.70,-3.36,0.67,0.67,0.68
150.75,4.70,4.04,4.70,4.04,-4.05,-3.72,-3.33,0.64,0.65,0.66
152.26,4.69,4.05,4.69,4.06,-4.06,-3.73,-3.29,0.62,0.63,0.63
153.78,4.68,4.08,4.67,4.07,-4.06,-3.74,-3.25,0.61,0.61,0.60
155.32,4.66,4.08,4.65,4.07,-4.06,-3.74,-3.22,0.60,0.59,0.58
156.88,4.61,4.05,4.61,4.06,-4.05,-3.75,-3.18,0.55,0.56,0.55
158.44,4.58,4.04,4.56,4.04,-4.04,-3.75,-3.15,0.54,0.53,0.53
160.03,4.51,4.01,4.51,4.01,-4.02,-3.75,-3.12,0.49,0.49,0.50
161.63,4.46,3.98,4.46,3.98,-3.99,-3.75,-3.09,0.47,0.47,0.48
163.24,4.41,3.96,4.40,3.95,-3.95,-3.75,-3.06,0.45,0.45,0.45
164.88,4.34,3.91,4.34,3.91,-3.90,-3.74,-3.04,0.43,0.43,0.43
166.53,4.26,3.86,4.26,3.86,-3.85,-3.74,-3.02,0.41,0.41,0.40
168.19,4.19,3.81,4.17,3.79,-3.79,-3.73,-2.99,0.40,0.38,0.37
169.87,4.06,3.71,4.07,3.73,-3.72,-3.72,-2.98,0.33,0.35,0.34
171.57,3.96,3.64,3.96,3.65,-3.65,-3.70,-2.96,0.31,0.31,0.31
173.29,3.87,3.58,3.85,3.56,-3.57,-3.69,-2.94,0.29,0.28,0.29
175.02,3.73,3.46,3.74,3.48,-3.49,-3.67,-2.93,0.24,0.25,0.26
176.77,3.62,3.39,3.62,3.39,-3.40,-3.66,-2.92,0.22,0.22,0.23
178.54,3.51,3.31,3.50,3.31,-3.30,-3.64,-2.92,0.21,0.20,0.20
180.32,3.39,3.22,3.39,3.22,-3.20,-3.62,-2.91,0.18,0.19,0.16
182.13,3.28,3.14,3.26,3.12,-3.10,-3.59,-2.91,0.17,0.15,0.14
183.95,3.11,3.00,3.12,3.01,-3.00,-3.57,-2.91,0.10,0.11,0.11
185.79,2.97,2.89,2.97,2.90,-2.91,-3.54,-2.91,0.06,0.07,0.07
187.65,2.85,2.80,2.84,2.80,-2.81,-3.52,-2.91,0.04,0.03,0.05
189.52,2.73,2.71,2.72,2.71,-2.72,-3.49,-2.92,0.01,0.01,0.02
191.42,2.62,2.63,2.62,2.63,-2.64,-3.46,-2.93,-0.02,-0.02,-0.02
193.33,2.52,2.56,2.51,2.56,-2.56,-3.42,-2.94,-0.05,-0.05,-0.05
195.27,2.43,2.50,2.43,2.50,-2.50,-3.39,-2.95,-0.08,-0.07,-0.07
197.22,2.35,2.45,2.35,2.45,-2.45,-3.36,-2.96,-0.11,-0.10,-0.10
199.19,2.29,2.42,2.28,2.41,-2.41,-3.32,-2.98,-0.13,-0.13,-0.13
201.18,2.22,2.39,2.22,2.39,-2.38,-3.28,-2.99,-0.17,-0.16,-0.17
203.19,2.17,2.37,2.17,2.37,-2.37,-3.25,-3.01,-0.20,-0.20,-0.20
205.23,2.13,2.36,2.12,2.36,-2.36,-3.21,-3.03,-0.24,-0.24,-0.23
207.28,2.10,2.36,2.10,2.36,-2.37,-3.17,-3.04,-0.28,-0.28,-0.26
209.35,2.09,2.38,2.09,2.38,-2.40,-3.13,-3.06,-0.31,-0.31,-0.29
211.44,2.10,2.43,2.09,2.42,-2.43,-3.08,-3.08,-0.34,-0.34,-0.33
213.56,2.12,2.48,2.12,2.48,-2.48,-3.04,-3.10,-0.37,-0.36,-0.36
215.69,2.15,2.54,2.15,2.55,-2.54,-3.00,-3.11,-0.39,-0.39,-0.40
217.85,2.19,2.62,2.18,2.61,-2.60,-2.95,-3.13,-0.42,-0.43,-0.44
220.03,2.22,2.68,2.21,2.68,-2.68,-2.91,-3.14,-0.46,-0.46,-0.46
222.23,2.25,2.74,2.25,2.75,-2.75,-2.86,-3.15,-0.51,-0.50,-0.49
224.45,2.30,2.82,2.29,2.82,-2.83,-2.81,-3.16,-0.53,-0.53,-0.53
226.70,2.34,2.89,2.34,2.89,-2.90,-2.77,-3.16,-0.56,-0.56,-0.56
228.96,2.39,2.97,2.38,2.96,-2.96,-2.72,-3.17,-0.58,-0.58,-0.58
231.25,2.42,3.02,2.42,3.02,-3.02,-2.67,-3.16,-0.60,-0.60,-0.61
233.57,2.45,3.07,2.45,3.08,-3.07,-2.62,-3.16,-0.62,-0.62,-0.62
235.90,2.47,3.12,2.46,3.11,-3.10,-2.57,-3.15,-0.64,-0.64,-0.65
238.26,2.47,3.13,2.46,3.13,-3.12,-2.52,-3.13,-0.66,-0.66,-0.67
240.64,2.45,3.13,2.45,3.14,-3.13,-2.47,-3.11,-0.68,-0.67,-0.68
243.05,2.44,3.13,2.42,3.12,-3.12,-2.42,-3.08,-0.68,-0.69,-0.70
245.48,2.39,3.10,2.38,3.10,-3.09,-2.37,-3.05,-0.71,-0.71,-0.71
247.93,2.32,3.04,2.33,3.05,-3.06,-2.32,-3.01,-0.74,-0.73,-0.73
250.41,2.27,3.01,2.25,3.00,-3.01,-2.27,-2.97,-0.74,-0.75,-0.74
252.92,2.18,2.93,2.19,2.94,-2.94,-2.21,-2.92,-0.77,-0.76,-0.76
255.45,2.11,2.88,2.11,2.88,-2.87,-2.16,-2.86,-0.77,-0.77,-0.77
258.00,2.04,2.82,2.02,2.80,-2.80,-2.11,-2.80,-0.76,-0.77,-0.79
260.58,1.92,2.70,1.92,2.71,-2.71,-2.05,-2.73,-0.79,-0.79,-0.79
263.19,1.82,2.62,1.81,2.61,-2.62,-2.00,-2.65,-0.80,-0.81,-0.80
265.82,1.69,2.50,1.70,2.52,-2.52,-1.94,-2.57,-0.84,-0.82,-0.82
268.48,1.60,2.43,1.59,2.42,-2.43,-1.89,-2.49,-0.83,-0.84,-0.83
271.16,1.49,2.33,1.47,2.32,-2.32,-1.83,-2.39,-0.84,-0.85,-0.84
273.87,1.35,2.20,1.36,2.22,-2.22,-1.78,-2.30,-0.87,-0.86,-0.86
276.61,1.24,2.11,1.24,2.11,-2.11,-1.72,-2.20,-0.88,-0.87,-0.87
279.38,1.13,2.01,1.12,2.01,-2.00,-1.66,-2.09,-0.88,-0.88,-0.88
282.17,1.01,1.90,1.00,1.90,-1.89,-1.61,-1.98,-0.88,-0.88,-0.90
284.99,0.89,1.80,0.87,1.78,-1.78,-1.55,-1.87,-0.89,-0.90,-0.91
287.84,0.73,1.65,0.74,1.66,-1.66,-1.49,-1.76,-0.93,-0.92,-0.92
290.72,0.60,1.53,0.60,1.54,-1.54,-1.43,-1.64,-0.95,-0.94,-0.94
293.63,0.48,1.42,0.47,1.42,-1.42,-1.37,-1.51,-0.95,-0.96,-0.95
296.57,0.35,1.31,0.34,1.30,-1.31,-1.31,-1.39,-0.96,-0.96,-0.96
299.53,0.22,1.19,0.22,1.19,-1.19,-1.25,-1.26,-0.98,-0.97,-0.97
302.53,0.10,1.08,0.10,1.08,-1.08,-1.19,-1.14,-0.99,-0.99,-0.99
305.55,-0.02,0.98,-0.03,0.97,-0.98,-1.12,-1.00,-1.00,-1.01,-1.01
308.61,-0.15,0.87,-0.15,0.87,-0.87,-1.06,-0.87,-1.03,-1.03,-1.02
311.69,-0.28,0.75,-0.27,0.77,-0.77,-0.99,-0.74,-1.05,-1.04,-1.03
314.81,-0.37,0.68,-0.38,0.67,-0.66,-0.92,-0.60,-1.04,-1.05,-1.05
317.96,-0.49,0.57,-0.50,0.57,-0.56,-0.86,-0.47,-1.06,-1.06,-1.07
321.14,-0.62,0.46,-0.62,0.46,-0.46,-0.79,-0.33,-1.08,-1.08,-1.09
324.35,-0.75,0.34,-0.76,0.34,-0.35,-0.71,-0.19,-1.10,-1.10,-1.10
327.59,-0.89,0.23,-0.88,0.24,-0.24,-0.64,-0.05,-1.13,-1.12,-1.12
330.87,-1.00,0.13,-1.01,0.12,-0.12,-0.57,0.09,-1.13,-1.14,-1.13
334.18,-1.13,0.02,-1.14,0.01,-0.00,-0.49,0.23,-1.14,-1.15,-1.15
337.52,-1.29,-0.13,-1.28,-0.12,0.12,-0.41,0.37,-1.18,-1.16,-1.17
340.90,-1.42,-0.24,-1.43,-0.25,0.25,-0.33,0.51,-1.18,-1.18,-1.19
344.30,-1.58,-0.39,-1.58,-0.38,0.38,-0.24,0.65,-1.21,-1.20,-1.20
347.75,-1.72,-0.51,-1.73,-0.51,0.51,-0.16,0.80,-1.21,-1.21,-1.22
351.23,-1.89,-0.65,-1.89,-0.65,0.66,-0.07,0.94,-1.24,-1.23,-1.24
354.74,-2.04,-0.79,-2.05,-0.80,0.80,0.03,1.09,-1.25,-1.25,-1.25
358.28,-2.22,-0.95,-2.22,-0.95,0.95,0.12,1.24,-1.28,-1.27,-1.27
361.87,-2.38,-1.09,-2.39,-1.10,1.09,0.22,1.38,-1.29,-1.29,-1.29
365.49,-2.55,-1.25,-2.55,-1.24,1.24,0.33,1.53,-1.31,-1.31,-1.31
369.14,-2.71,-1.39,-2.71,-1.39,1.39,0.43,1.68,-1.33,-1.33,-1.33
372.83,-2.86,-1.53,-2.88,-1.54,1.53,0.55,1.83,-1.33,-1.34,-1.34
376.56,-3.05,-1.70,-3.04,-1.68,1.68,0.66,1.98,-1.38,-1.36,-1.36
380.33,-3.19,-1.82,-3.20,-1.82,1.82,0.79,2.13,-1.37,-1.38,-1.38
384.13,-3.35,-1.96,-3.35,-1.96,1.96,0.91,2.28,-1.40,-1.39,-1.39
387.97,-3.49,-2.08,-3.50,-2.09,2.09,1.05,2.43,-1.40,-1.40,-1.41
391.85,-3.64,-2.22,-3.65,-2.23,2.23,1.19,2.59,-1.42,-1.42,-1.42
395.77,-3.79,-2.36,-3.79,-2.36,2.36,1.33,2.74,-1.44,-1.43,-1.43
399.73,-3.93,-2.49,-3.93,-2.49,2.49,1.48,2.89,-1.45,-1.45,-1.44
403.72,-4.06,-2.61,-4.07,-2.61,2.61,1.64,3.04,-1.45,-1.46,-1.45
407.76,-4.20,-2.74,-4.20,-2.73,2.74,1.81,3.19,-1.47,-1.47,-1.46
411.84,-4.33,-2.85,-4.34,-2.86,2.86,1.98,3.34,-1.48,-1.48,-1.49
415.96,-4.47,-2.98,-4.47,-2.98,2.98,2.17,3.49,-1.50,-1.50,-1.50
420.12,-4.60,-3.10,-4.60,-3.09,3.09,2.36,3.64,-1.51,-1.51,-1.51
424.32,-4.72,-3.21,-4.72,-3.20,3.20,2.55,3.78,-1.52,-1.52,-1.52
428.56,-4.83,-3.31,-4.84,-3.31,3.31,2.76,3.92,-1.53,-1.53,-1.53
432.85,-4.95,-3.41,-4.96,-3.41,3.41,2.97,4.06,-1.54,-1.55,-1.55
437.18,-5.08,-3.53,-5.07,-3.52,3.51,3.19,4.19,-1.57,-1.56,-1.56
441.55,-5.18,-3.62,-5.19,-3.61,3.61,3.42,4.32,-1.57,-1.57,-1.57
445.96,-5.29,-3.70,-5.30,-3.71,3.71,3.65,4.45,-1.58,-1.59,-1.59
450.42,-5.41,-3.80,-5.41,-3.80,3.81,3.88,4.56,-1.60,-1.60,-1.61
454.93,-5.52,-3.90,-5.53,-3.90,3.91,4.11,4.67,-1.62,-1.62,-1.62
459.48,-5.64,-4.00,-5.64,-4.00,4.01,4.35,4.77,-1.64,-1.64,-1.64
464.07,-5.76,-4.10,-5.76,-4.10,4.10,4.58,4.87,-1.66,-1.66,-1.66
468.71,-5.87,-4.19,-5.88,-4.20,4.20,4.79,4.95,-1.68,-1.68,-1.68
473.40,-5.99,-4.30,-5.99,-4.30,4.29,5.00,5.02,-1.70,-1.70,-1.69
478.13,-6.09,-4.38,-6.10,-4.39,4.38,5.19,5.08,-1.71,-1.71,-1.71
482.91,-6.20,-4.48,-6.20,-4.47,4.48,5.36,5.13,-1.73,-1.72,-1.72
487.74,-6.29,-4.55,-6.30,-4.56,4.57,5.51,5.17,-1.73,-1.73,-1.74
492.62,-6.39,-4.64,-6.40,-4.64,4.65,5.63,5.20,-1.74,-1.75,-1.75
497.55,-6.49,-4.73,-6.49,-4.73,4.73,5.71,5.21,-1.76,-1.76,-1.76
502.52,-6.58,-4.81,-6.58,-4.81,4.81,5.76,5.21,-1.77,-1.77,-1.77
507.55,-6.66,-4.88,-6.67,-4.88,4.88,5.78,5.19,-1.79,-1.79,-1.78
512.62,-6.74,-4.94,-6.75,-4.95,4.94,5.76,5.17,-1.81,-1.81,-1.80
517.75,-6.81,-5.00,-6.81,-5.00,4.99,5.72,5.13,-1.83,-1.83,-1.82
