frequency,raw,error,smoothed,error_smoothed,equalization,parametric_eq,fixed_band_eq,equalized_raw,equalized_smoothed,target
20.00,3.12,6.64,3.12,6.65,-6.65,-5.14,-2.62,-3.54,-3.53,-3.53
20.20,3.17,6.69,3.16,6.69,-6.69,-5.14,-2.69,-3.52,-3.52,-3.53
20.40,3.21,6.72,3.21,6.72,-6.72,-5.14,-2.77,-3.51,-3.52,-3.52
20.61,3.25,6.75,3.24,6.75,-6.75,-5.14,-2.85,-3.51,-3.51,-3.51
20.81,3.28,6.78,3.28,6.78,-6.78,-5.14,-2.93,-3.51,-3.50,-3.51
21.02,3.32,6.81,3.31,6.81,-6.81,-5.15,-3.01,-3.49,-3.50,-3.50
21.23,3.35,6.84,3.35,6.84,-6.84,-5.15,-3.09,-3.49,-3.49,-3.50
21.44,3.38,6.86,3.37,6.86,-6.86,-5.15,-3.18,-3.48,-3.48,-3.49
21.66,3.40,6.87,3.40,6.88,-6.88,-5.15,-3.27,-3.48,-3.48,-3.48
21.87,3.43,6.90,3.42,6.90,-6.90,-5.15,-3.37,-3.47,-3.48,-3.48
22.09,3.45,6.91,3.45,6.91,-6.92,-5.15,-3.46,-3.47,-3.47,-3.47
22.31,3.47,6.92,3.47,6.93,-6.94,-5.15,-3.56,-3.47,-3.46,-3.46
22.54,3.50,6.95,3.49,6.95,-6.95,-5.15,-3.66,-3.46,-3.46,-3.46
22.76,3.52,6.96,3.52,6.96,-6.97,-5.15,-3.77,-3.45,-3.45,-3.45
22.99,3.54,6.97,3.54,6.98,-6.98,-5.15,-3.87,-3.44,-3.44,-3.44
23.22,3.56,6.98,3.56,6.99,-6.98,-5.15,-3.98,-3.43,-3.42,-3.43
23.45,3.58,6.99,3.58,6.99,-6.98,-5.15,-4.09,-3.41,-3.41,-3.42
23.69,3.59,6.99,3.58,6.99,-6.98,-5.15,-4.21,-3.39,-3.40,-3.41
23.92,3.58,6.97,3.58,6.97,-6.96,-5.15,-4.32,-3.39,-3.39,-3.40
24.16,3.56,6.94,3.56,6.94,-6.94,-5.15,-4.44,-3.39,-3.38,-3.39
24.40,3.54,6.91,3.54,6.91,-6.91,-5.15,-4.56,-3.38,-3.38,-3.38
24.65,3.52,6.87,3.52,6.88,-6.88,-5.16,-4.68,-3.36,-3.36,-3.36
24.89,3.50,6.84,3.49,6.84,-6.84,-5.16,-4.80,-3.35,-3.35,-3.35
25.14,3.47,6.80,3.47,6.80,-6.80,-5.16,-4.93,-3.34,-3.34,-3.34
25.39,3.44,6.76,3.44,6.76,-6.76,-5.16,-5.05,-3.33,-3.33,-3.33
25.65,3.41,6.72,3.41,6.72,-6.73,-5.16,-5.18,-3.32,-3.32,-3.32
25.91,3.38,6.67,3.38,6.68,-6.69,-5.16,-5.31,-3.31,-3.31,-3.30
26.16,3.36,6.64,3.36,6.64,-6.65,-5.16,-5.43,-3.29,-3.29,-3.29
26.43,3.34,6.61,3.33,6.61,-6.60,-5.16,-5.56,-3.27,-3.27,-3.28
26.69,3.31,6.57,3.31,6.57,-6.56,-5.16,-5.68,-3.26,-3.25,-3.27
26.96,3.28,6.52,3.28,6.53,-6.52,-5.16,-5.81,-3.24,-3.24,-3.25
27.23,3.25,6.48,3.24,6.48,-6.48,-5.16,-5.93,-3.23,-3.24,-3.24
27.50,3.21,6.42,3.21,6.43,-6.44,-5.15,-6.05,-3.23,-3.23,-3.22
27.77,3.18,6.38,3.18,6.39,-6.40,-5.15,-6.16,-3.22,-3.21,-3.21
28.05,3.16,6.34,3.16,6.34,-6.35,-5.15,-6.27,-3.20,-3.20,-3.19
28.33,3.14,6.31,3.13,6.31,-6.31,-5.15,-6.38,-3.18,-3.18,-3.18
28.62,3.11,6.26,3.11,6.27,-6.27,-5.15,-6.48,-3.16,-3.16,-3.16
28.90,3.08,6.22,3.08,6.23,-6.22,-5.15,-6.57,-3.14,-3.14,-3.15
29.19,3.06,6.18,3.05,6.18,-6.17,-5.15,-6.66,-3.11,-3.12,-3.13
29.48,3.01,6.12,3.01,6.12,-6.11,-5.15,-6.73,-3.11,-3.10,-3.12
29.78,2.96,6.05,2.96,6.06,-6.04,-5.15,-6.80,-3.09,-3.09,-3.10
30.08,2.90,5.98,2.89,5.98,-5.97,-5.14,-6.86,-3.08,-3.08,-3.09
30.38,2.83,5.89,2.83,5.90,-5.89,-5.14,-6.92,-3.07,-3.07,-3.07
30.68,2.76,5.81,2.76,5.81,-5.81,-5.14,-6.95,-3.06,-3.06,-3.06
30.99,2.69,5.72,2.68,5.72,-5.73,-5.14,-6.99,-3.04,-3.05,-3.04
31.30,2.62,5.64,2.62,5.64,-5.65,-5.13,-7.01,-3.03,-3.03,-3.03
31.61,2.55,5.55,2.55,5.56,-5.57,-5.13,-7.02,-3.02,-3.02,-3.01
31.93,2.50,5.49,2.50,5.49,-5.49,-5.13,-7.01,-3.00,-3.00,-3.00
32.24,2.45,5.42,2.44,5.42,-5.42,-5.12,-7.01,-2.97,-2.98,-2.98
32.57,2.40,5.36,2.40,5.36,-5.35,-5.12,-6.98,-2.96,-2.96,-2.97
32.89,2.35,5.29,2.35,5.30,-5.29,-5.11,-6.96,-2.95,-2.95,-2.95
33.22,2.31,5.24,2.30,5.24,-5.24,-5.11,-6.92,-2.94,-2.94,-2.94
33.55,2.27,5.18,2.27,5.19,-5.19,-5.10,-6.87,-2.93,-2.93,-2.92
33.89,2.25,5.15,2.25,5.15,-5.15,-5.09,-6.82,-2.91,-2.91,-2.91
34.23,2.23,5.11,2.23,5.12,-5.12,-5.09,-6.76,-2.90,-2.89,-2.89
34.57,2.23,5.10,2.22,5.10,-5.10,-5.08,-6.69,-2.87,-2.88,-2.88
34.92,2.22,5.08,2.22,5.08,-5.08,-5.07,-6.62,-2.87,-2.87,-2.87
35.27,2.22,5.06,2.22,5.07,-5.07,-5.06,-6.54,-2.86,-2.86,-2.85
35.62,2.22,5.05,2.22,5.06,-5.07,-5.05,-6.46,-2.85,-2.85,-2.84
35.97,2.24,5.06,2.24,5.06,-5.07,-5.04,-6.38,-2.83,-2.83,-2.83
36.33,2.26,5.07,2.25,5.07,-5.06,-5.03,-6.29,-2.81,-2.81,-2.82
36.70,2.27,5.07,2.26,5.07,-5.06,-5.01,-6.20,-2.80,-2.80,-2.81
37.06,2.27,5.06,2.27,5.07,-5.06,-5.00,-6.12,-2.79,-2.79,-2.80
37.43,2.27,5.05,2.27,5.06,-5.05,-4.98,-6.03,-2.79,-2.78,-2.79
37.81,2.27,5.04,2.26,5.04,-5.04,-4.96,-5.94,-2.77,-2.78,-2.78
38.19,2.26,5.02,2.25,5.02,-5.02,-4.94,-5.85,-2.77,-2.77,-2.77
38.57,2.24,4.99,2.24,5.00,-5.00,-4.92,-5.77,-2.76,-2.76,-2.76
38.95,2.22,4.96,2.22,4.96,-4.96,-4.89,-5.68,-2.75,-2.75,-2.75
39.34,2.19,4.92,2.19,4.92,-4.92,-4.86,-5.60,-2.74,-2.74,-2.74
39.74,2.15,4.87,2.15,4.88,-4.87,-4.83,-5.52,-2.73,-2.73,-2.73
40.14,2.10,4.82,2.10,4.82,-4.81,-4.80,-5.44,-2.72,-2.72,-2.73
40.54,2.04,4.75,2.04,4.75,-4.75,-4.76,-5.37,-2.71,-2.71,-2.72
40.94,1.97,4.67,1.97,4.67,-4.67,-4.72,-5.29,-2.70,-2.70,-2.71
41.35,1.89,4.58,1.89,4.58,-4.59,-4.68,-5.22,-2.70,-2.70,-2.70
41.76,1.81,4.49,1.80,4.49,-4.50,-4.63,-5.16,-2.69,-2.69,-2.69
42.18,1.72,4.39,1.72,4.39,-4.40,-4.57,-5.10,-2.68,-2.68,-2.68
42.60,1.63,4.29,1.62,4.29,-4.29,-4.51,-5.04,-2.67,-2.67,-2.67
43.03,1.53,4.18,1.53,4.18,-4.18,-4.45,-4.98,-2.65,-2.65,-2.66
43.46,1.43,4.07,1.42,4.07,-4.07,-4.37,-4.93,-2.64,-2.64,-2.65
43.90,1.32,3.95,1.32,3.95,-3.95,-4.29,-4.88,-2.63,-2.63,-2.64
44.33,1.21,3.82,1.21,3.83,-3.83,-4.20,-4.83,-2.63,-2.63,-2.62
44.78,1.10,3.70,1.10,3.71,-3.71,-4.10,-4.79,-2.61,-2.61,-2.61
45.23,0.99,3.58,0.99,3.58,-3.59,-3.98,-4.75,-2.60,-2.60,-2.60
45.68,0.89,3.46,0.88,3.46,-3.46,-3.86,-4.72,-2.57,-2.58,-2.58
46.13,0.77,3.33,0.77,3.33,-3.33,-3.73,-4.69,-2.56,-2.56,-2.57
46.60,0.66,3.20,0.65,3.20,-3.20,-3.58,-4.66,-2.54,-2.54,-2.55
47.06,0.54,3.07,0.53,3.07,-3.07,-3.41,-4.64,-2.53,-2.53,-2.54
47.53,0.42,2.93,0.42,2.94,-2.93,-3.24,-4.62,-2.52,-2.52,-2.52
48.01,0.30,2.80,0.30,2.80,-2.80,-3.05,-4.60,-2.50,-2.50,-2.51
48.49,0.19,2.67,0.18,2.67,-2.67,-2.85,-4.58,-2.48,-2.49,-2.49
48.97,0.08,2.55,0.07,2.55,-2.55,-2.65,-4.57,-2.47,-2.47,-2.48
49.46,-0.03,2.42,-0.03,2.43,-2.43,-2.44,-4.56,-2.46,-2.46,-2.46
49.96,-0.12,2.32,-0.12,2.32,-2.32,-2.23,-4.56,-2.44,-2.45,-2.45
50.46,-0.20,2.23,-0.21,2.23,-2.23,-2.04,-4.56,-2.43,-2.43,-2.44
50.96,-0.27,2.14,-0.27,2.15,-2.15,-1.87,-4.56,-2.42,-2.42,-2.42
51.47,-0.32,2.08,-0.32,2.08,-2.08,-1.74,-4.56,-2.41,-2.41,-2.41
51.99,-0.35,2.04,-0.36,2.04,-2.04,-1.65,-4.56,-2.40,-2.40,-2.40
52.51,-0.36,2.02,-0.36,2.02,-2.03,-1.62,-4.57,-2.39,-2.39,-2.39
53.03,-0.34,2.03,-0.34,2.03,-2.04,-1.64,-4.58,-2.38,-2.38,-2.38
53.56,-0.29,2.06,-0.29,2.07,-2.08,-1.73,-4.59,-2.38,-2.37,-2.36
54.10,-0.20,2.14,-0.21,2.14,-2.15,-1.87,-4.60,-2.36,-2.36,-2.35
54.64,-0.09,2.24,-0.09,2.25,-2.26,-2.06,-4.61,-2.35,-2.35,-2.34
55.18,0.06,2.39,0.05,2.38,-2.39,-2.28,-4.62,-2.33,-2.34,-2.34
55.74,0.21,2.54,0.22,2.55,-2.55,-2.54,-4.64,-2.34,-2.33,-2.33
56.29,0.42,2.73,0.42,2.74,-2.74,-2.80,-4.65,-2.33,-2.32,-2.32
56.86,0.64,2.96,0.64,2.95,-2.95,-3.08,-4.66,-2.31,-2.31,-2.32
57.42,0.88,3.18,0.88,3.19,-3.18,-3.35,-4.68,-2.31,-2.31,-2.31
58.00,1.13,3.43,1.13,3.43,-3.43,-3.62,-4.69,-2.30,-2.30,-2.31
58.58,1.39,3.68,1.38,3.68,-3.69,-3.88,-4.70,-2.30,-2.30,-2.30
59.16,1.65,3.95,1.65,3.95,-3.95,-4.14,-4.72,-2.30,-2.30,-2.30
59.76,1.92,4.22,1.92,4.22,-4.22,-4.38,-4.73,-2.30,-2.30,-2.30
60.35,2.20,4.49,2.19,4.49,-4.49,-4.61,-4.74,-2.29,-2.30,-2.30
60.96,2.45,4.75,2.46,4.76,-4.75,-4.84,-4.75,-2.30,-2.29,-2.30
61.57,2.71,5.01,2.72,5.01,-5.01,-5.05,-4.75,-2.29,-2.29,-2.30
62.18,2.97,5.26,2.96,5.26,-5.25,-5.26,-4.76,-2.28,-2.28,-2.30
62.80,3.20,5.49,3.19,5.49,-5.48,-5.46,-4.76,-2.28,-2.28,-2.30
63.43,3.40,5.69,3.40,5.70,-5.69,-5.66,-4.77,-2.29,-2.29,-2.30
64.07,3.59,5.89,3.59,5.89,-5.89,-5.84,-4.77,-2.30,-2.30,-2.31
64.71,3.76,6.06,3.76,6.07,-6.07,-6.03,-4.77,-2.31,-2.31,-2.31
65.35,3.93,6.23,3.92,6.23,-6.23,-6.21,-4.77,-2.30,-2.31,-2.31
66.01,4.08,6.38,4.07,6.38,-6.38,-6.38,-4.77,-2.30,-2.30,-2.31
66.67,4.21,6.51,4.21,6.51,-6.51,-6.56,-4.76,-2.31,-2.31,-2.31
67.33,4.33,6.63,4.32,6.63,-6.64,-6.72,-4.76,-2.31,-2.31,-2.31
68.01,4.43,6.74,4.43,6.74,-6.75,-6.88,-4.76,-2.32,-2.32,-2.32
68.69,4.53,6.84,4.53,6.84,-6.85,-7.02,-4.75,-2.32,-2.32,-2.32
69.37,4.62,6.93,4.62,6.93,-6.94,-7.16,-4.75,-2.32,-2.32,-2.32
70.07,4.70,7.01,4.70,7.02,-7.01,-7.28,-4.74,-2.32,-2.31,-2.32
70.77,4.78,7.09,4.77,7.09,-7.09,-7.38,-4.74,-2.31,-2.31,-2.32
71.48,4.84,7.15,4.83,7.15,-7.15,-7.47,-4.74,-2.31,-2.31,-2.32
72.19,4.89,7.20,4.89,7.20,-7.20,-7.54,-4.73,-2.32,-2.32,-2.32
72.91,4.94,7.24,4.94,7.25,-7.25,-7.59,-4.73,-2.32,-2.31,-2.31
73.64,4.99,7.29,4.99,7.29,-7.30,-7.62,-4.73,-2.31,-2.31,-2.31
74.38,5.04,7.33,5.03,7.33,-7.33,-7.63,-4.74,-2.30,-2.30,-2.30
75.12,5.07,7.36,5.07,7.36,-7.36,-7.62,-4.74,-2.30,-2.29,-2.30
75.87,5.10,7.38,5.10,7.39,-7.39,-7.60,-4.75,-2.29,-2.28,-2.29
76.63,5.14,7.41,5.13,7.41,-7.41,-7.57,-4.75,-2.27,-2.28,-2.28
77.40,5.16,7.42,5.15,7.42,-7.42,-7.52,-4.76,-2.27,-2.27,-2.27
78.17,5.17,7.42,5.17,7.43,-7.43,-7.47,-4.78,-2.27,-2.26,-2.26
78.95,5.19,7.43,5.19,7.43,-7.43,-7.41,-4.79,-2.25,-2.25,-2.25
79.74,5.20,7.43,5.20,7.43,-7.43,-7.35,-4.81,-2.24,-2.24,-2.24
80.54,5.21,7.43,5.20,7.43,-7.43,-7.29,-4.84,-2.22,-2.22,-2.23
81.35,5.20,7.41,5.20,7.41,-7.41,-7.23,-4.86,-2.22,-2.22,-2.22
82.16,5.19,7.39,5.19,7.39,-7.40,-7.17,-4.89,-2.21,-2.21,-2.21
82.98,5.17,7.36,5.17,7.37,-7.37,-7.12,-4.92,-2.21,-2.20,-2.20
83.81,5.16,7.34,5.15,7.34,-7.34,-7.07,-4.96,-2.19,-2.19,-2.19
84.65,5.14,7.31,5.13,7.31,-7.31,-7.02,-5.00,-2.17,-2.18,-2.18
85.50,5.10,7.26,5.10,7.27,-7.26,-6.98,-5.04,-2.17,-2.16,-2.17
86.35,5.06,7.21,5.06,7.22,-7.21,-6.94,-5.09,-2.15,-2.15,-2.16
87.22,5.02,7.16,5.01,7.16,-7.15,-6.91,-5.14,-2.14,-2.14,-2.15
88.09,4.97,7.10,4.96,7.10,-7.09,-6.88,-5.20,-2.13,-2.13,-2.14
88.97,4.91,7.02,4.91,7.03,-7.03,-6.86,-5.26,-2.12,-2.12,-2.12
89.86,4.85,6.95,4.85,6.95,-6.96,-6.84,-5.32,-2.11,-2.11,-2.11
90.76,4.79,6.88,4.79,6.88,-6.88,-6.82,-5.39,-2.10,-2.10,-2.10
91.66,4.74,6.81,4.73,6.81,-6.82,-6.81,-5.46,-2.08,-2.08,-2.08
92.58,4.68,6.74,4.68,6.75,-6.75,-6.80,-5.53,-2.07,-2.07,-2.07
93.51,4.64,6.69,4.63,6.69,-6.69,-6.79,-5.61,-2.05,-2.06,-2.06
94.44,4.59,6.62,4.59,6.63,-6.63,-6.79,-5.69,-2.05,-2.05,-2.04
95.39,4.56,6.58,4.56,6.58,-6.59,-6.79,-5.78,-2.03,-2.03,-2.03
96.34,4.53,6.53,4.53,6.54,-6.55,-6.79,-5.87,-2.02,-2.02,-2.01
97.30,4.52,6.51,4.52,6.51,-6.51,-6.79,-5.96,-2.00,-2.00,-2.00
98.28,4.51,6.49,4.50,6.49,-6.49,-6.80,-6.05,-1.98,-1.98,-1.99
99.26,4.50,6.47,4.49,6.47,-6.47,-6.81,-6.15,-1.97,-1.97,-1.98
100.25,4.49,6.44,4.49,6.45,-6.45,-6.81,-6.25,-1.97,-1.96,-1.96
101.25,4.49,6.43,4.49,6.44,-6.44,-6.82,-6.35,-1.96,-1.95,-1.95
102.27,4.50,6.43,4.50,6.44,-6.44,-6.83,-6.46,-1.94,-1.94,-1.94
103.29,4.51,6.44,4.51,6.44,-6.43,-6.85,-6.56,-1.93,-1.93,-1.94
104.32,4.52,6.44,4.51,6.44,-6.43,-6.86,-6.67,-1.91,-1.92,-1.93
105.37,4.52,6.43,4.52,6.44,-6.43,-6.87,-6.77,-1.92,-1.91,-1.92
106.42,4.52,6.43,4.52,6.43,-6.43,-6.88,-6.88,-1.92,-1.92,-1.92
107.48,4.52,6.43,4.52,6.43,-6.44,-6.89,-6.98,-1.92,-1.92,-1.92
108.56,4.52,6.43,4.52,6.44,-6.44,-6.90,-7.08,-1.93,-1.92,-1.92
109.64,4.53,6.44,4.53,6.44,-6.45,-6.91,-7.18,-1.92,-1.92,-1.92
110.74,4.54,6.45,4.53,6.45,-6.45,-6.91,-7.28,-1.91,-1.92,-1.92
111.85,4.54,6.45,4.54,6.46,-6.45,-6.92,-7.37,-1.91,-1.91,-1.92
112.97,4.54,6.46,4.53,6.46,-6.45,-6.92,-7.45,-1.92,-1.92,-1.93
114.10,4.53,6.45,4.52,6.45,-6.45,-6.92,-7.54,-1.92,-1.93,-1.93
115.24,4.51,6.44,4.51,6.44,-6.44,-6.92,-7.60,-1.94,-1.94,-1.94
116.39,4.49,6.42,4.49,6.43,-6.43,-6.91,-7.67,-1.95,-1.94,-1.94
117.55,4.48,6.42,4.47,6.42,-6.42,-6.90,-7.72,-1.94,-1.95,-1.95
118.73,4.46,6.40,4.45,6.40,-6.40,-6.89,-7.76,-1.94,-1.95,-1.95
119.92,4.43,6.38,4.43,6.38,-6.38,-6.87,-7.79,-1.95,-1.95,-1.96
121.12,4.40,6.35,4.39,6.35,-6.35,-6.84,-7.81,-1.95,-1.96,-1.96
122.33,4.36,6.31,4.36,6.32,-6.32,-6.81,-7.81,-1.96,-1.96,-1.96
123.55,4.32,6.27,4.32,6.28,-6.28,-6.78,-7.81,-1.96,-1.96,-1.96
124.79,4.29,6.24,4.28,6.24,-6.24,-6.74,-7.78,-1.95,-1.96,-1.96
126.03,4.24,6.19,4.24,6.19,-6.19,-6.70,-7.75,-1.95,-1.96,-1.96
127.29,4.19,6.14,4.19,6.14,-6.14,-6.65,-7.69,-1.95,-1.95,-1.96
128.57,4.13,6.08,4.13,6.09,-6.09,-6.60,-7.63,-1.96,-1.96,-1.96
129.85,4.08,6.03,4.07,6.03,-6.03,-6.54,-7.55,-1.95,-1.96,-1.96
131.15,4.02,5.97,4.02,5.97,-5.97,-6.47,-7.47,-1.96,-1.96,-1.96
132.46,3.96,5.91,3.96,5.91,-5.92,-6.40,-7.36,-1.96,-1.96,-1.96
133.79,3.90,5.84,3.90,5.85,-5.85,-6.33,-7.25,-1.96,-1.96,-1.95
135.12,3.84,5.78,3.84,5.79,-5.79,-6.24,-7.12,-1.96,-1.95,-1.95
136.48,3.79,5.73,3.78,5.73,-5.73,-6.16,-6.99,-1.94,-1.94,-1.95
137.84,3.72,5.66,3.72,5.67,-5.66,-6.06,-6.84,-1.94,-1.94,-1.95
139.22,3.66,5.60,3.65,5.60,-5.59,-5.97,-6.70,-1.93,-1.94,-1.95
140.61,3.58,5.52,3.58,5.52,-5.52,-5.86,-6.54,-1.94,-1.94,-1.95
142.02,3.50,5.43,3.50,5.44,-5.45,-5.76,-6.38,-1.95,-1.94,-1.94
143.44,3.43,5.36,3.42,5.36,-5.37,-5.65,-6.21,-1.94,-1.95,-1.94
144.87,3.35,5.28,3.35,5.29,-5.29,-5.54,-6.04,-1.94,-1.94,-1.94
146.32,3.27,5.21,3.27,5.21,-5.21,-5.42,-5.86,-1.94,-1.94,-1.95
147.78,3.19,5.13,3.18,5.13,-5.12,-5.30,-5.68,-1.94,-1.94,-1.95
149.26,3.10,5.04,3.09,5.04,-5.04,-5.18,-5.50,-1.94,-1.94,-1.95
150.75,3.00,4.94,3.00,4.95,-4.95,-5.06,-5.32,-1.95,-1.95,-1.95
152.26,2.91,4.85,2.90,4.85,-4.86,-4.93,-5.14,-1.95,-1.95,-1.95
153.78,2.81,4.76,2.81,4.76,-4.76,-4.80,-4.96,-1.95,-1.95,-1.96
155.32,2.71,4.66,2.70,4.66,-4.65,-4.67,-4.78,-1.95,-1.95,-1.96
156.88,2.60,4.55,2.59,4.55,-4.55,-4.54,-4.60,-1.95,-1.96,-1.96
158.44,2.48,4.43,2.48,4.44,-4.44,-4.41,-4.42,-1.96,-1.96,-1.96
160.03,2.37,4.33,2.37,4.33,-4.33,-4.28,-4.24,-1.97,-1.97,-1.97
161.63,2.26,4.22,2.25,4.22,-4.22,-4.15,-4.06,-1.97,-1.97,-1.97
163.24,2.14,4.11,2.14,4.11,-4.12,-4.01,-3.88,-1.98,-1.98,-1.98
164.88,2.02,3.99,2.02,4.00,-4.01,-3.88,-3.71,-1.99,-1.99,-1.98
166.53,1.91,3.89,1.91,3.90,-3.90,-3.75,-3.54,-1.99,-1.99,-1.99
168.19,1.81,3.80,1.80,3.79,-3.79,-3.61,-3.37,-1.99,-2.00,-2.00
169.87,1.69,3.69,1.69,3.69,-3.69,-3.48,-3.20,-2.00,-2.00,-2.01
171.57,1.57,3.58,1.57,3.59,-3.58,-3.35,-3.03,-2.02,-2.01,-2.02
173.29,1.46,3.48,1.45,3.48,-3.48,-3.22,-2.86,-2.02,-2.03,-2.03
175.02,1.34,3.37,1.33,3.37,-3.38,-3.09,-2.70,-2.04,-2.04,-2.04
176.77,1.21,3.26,1.21,3.27,-3.27,-2.96,-2.54,-2.06,-2.06,-2.06
178.54,1.10,3.16,1.09,3.16,-3.16,-2.83,-2.38,-2.07,-2.07,-2.07
180.32,0.98,3.06,0.97,3.06,-3.05,-2.71,-2.22,-2.08,-2.08,-2.09
182.13,0.85,2.94,0.85,2.95,-2.94,-2.58,-2.06,-2.10,-2.10,-2.10
183.95,0.72,2.83,0.72,2.83,-2.83,-2.46,-1.90,-2.12,-2.12,-2.12
185.79,0.59,2.72,0.59,2.72,-2.72,-2.33,-1.75,-2.14,-2.13,-2.14
187.65,0.46,2.60,0.46,2.61,-2.61,-2.21,-1.60,-2.15,-2.15,-2.15
189.52,0.33,2.49,0.32,2.49,-2.49,-2.09,-1.45,-2.16,-2.17,-2.17
191.42,0.19,2.37,0.19,2.37,-2.37,-1.97,-1.30,-2.18,-2.18,-2.19
193.33,0.05,2.25,0.05,2.25,-2.25,-1.85,-1.15,-2.20,-2.20,-2.21
195.27,-0.09,2.12,-0.09,2.13,-2.13,-1.73,-1.01,-2.22,-2.22,-2.22
197.22,-0.23,2.00,-0.23,2.00,-2.01,-1.62,-0.86,-2.24,-2.24,-2.24
199.19,-0.37,1.88,-0.38,1.88,-1.89,-1.50,-0.72,-2.26,-2.27,-2.26
201.18,-0.52,1.76,-0.52,1.76,-1.76,-1.39,-0.58,-2.29,-2.29,-2.29
203.19,-0.67,1.63,-0.67,1.64,-1.64,-1.27,-0.44,-2.32,-2.31,-2.31
205.23,-0.80,1.52,-0.80,1.52,-1.52,-1.16,-0.31,-2.32,-2.32,-2.33
207.28,-0.94,1.40,-0.94,1.40,-1.40,-1.05,-0.17,-2.34,-2.34,-2.35
209.35,-1.08,1.28,-1.09,1.28,-1.27,-0.94,-0.04,-2.35,-2.36,-2.37
211.44,-1.25,1.14,-1.25,1.14,-1.14,-0.83,0.09,-2.40,-2.39,-2.40
213.56,-1.41,1.00,-1.41,1.01,-1.02,-0.72,0.22,-2.43,-2.43,-2.42
215.69,-1.56,0.88,-1.57,0.88,-0.89,-0.61,0.34,-2.45,-2.45,-2.45
217.85,-1.72,0.75,-1.72,0.75,-0.75,-0.51,0.46,-2.48,-2.47,-2.48
220.03,-1.87,0.62,-1.88,0.62,-0.62,-0.40,0.58,-2.49,-2.49,-2.50
222.23,-2.03,0.48,-2.03,0.49,-0.48,-0.30,0.70,-2.51,-2.51,-2.52
224.45,-2.19,0.35,-2.20,0.35,-0.34,-0.19,0.81,-2.54,-2.54,-2.55
226.70,-2.36,0.20,-2.36,0.20,-0.20,-0.09,0.92,-2.57,-2.57,-2.57
228.96,-2.53,0.05,-2.53,0.06,-0.06,0.02,1.03,-2.59,-2.59,-2.59
231.25,-2.69,-0.09,-2.69,-0.09,0.09,0.12,1.13,-2.61,-2.61,-2.61
233.57,-2.85,-0.24,-2.85,-0.23,0.23,0.22,1.23,-2.62,-2.62,-2.62
235.90,-3.01,-0.38,-3.01,-0.38,0.38,0.32,1.32,-2.63,-2.63,-2.64
238.26,-3.17,-0.53,-3.17,-0.53,0.53,0.43,1.42,-2.64,-2.64,-2.65
240.64,-3.33,-0.68,-3.33,-0.67,0.68,0.53,1.50,-2.65,-2.65,-2.66
243.05,-3.49,-0.83,-3.49,-0.83,0.83,0.63,1.58,-2.67,-2.67,-2.67
245.48,-3.64,-0.97,-3.65,-0.98,0.97,0.73,1.66,-2.67,-2.68,-2.68
247.93,-3.81,-1.13,-3.81,-1.12,1.11,0.83,1.73,-2.70,-2.69,-2.69
250.41,-3.96,-1.27,-3.96,-1.26,1.26,0.93,1.80,-2.71,-2.70,-2.70
252.92,-4.10,-1.40,-4.11,-1.40,1.40,1.03,1.86,-2.71,-2.71,-2.71
255.45,-4.24,-1.53,-4.24,-1.53,1.54,1.13,1.92,-2.71,-2.71,-2.72
258.00,-4.38,-1.66,-4.39,-1.66,1.67,1.23,1.97,-2.71,-2.72,-2.73
260.58,-4.52,-1.80,-4.53,-1.80,1.80,1.33,2.02,-2.72,-2.73,-2.73
263.19,-4.67,-1.94,-4.67,-1.93,1.93,1.43,2.07,-2.75,-2.74,-2.74
265.82,-4.80,-2.06,-4.80,-2.06,2.05,1.54,2.11,-2.75,-2.75,-2.75
268.48,-4.93,-2.18,-4.93,-2.17,2.17,1.64,2.15,-2.76,-2.76,-2.76
271.16,-5.04,-2.28,-5.05,-2.28,2.28,1.74,2.19,-2.76,-2.77,-2.77
273.87,-5.17,-2.40,-5.17,-2.39,2.39,1.84,2.22,-2.78,-2.78,-2.78
276.61,-5.28,-2.50,-5.28,-2.50,2.50,1.94,2.25,-2.79,-2.78,-2.79
279.38,-5.39,-2.60,-5.39,-2.60,2.60,2.05,2.28,-2.80,-2.80,-2.80
282.17,-5.49,-2.69,-5.50,-2.69,2.69,2.15,2.31,-2.80,-2.81,-2.81
284.99,-5.60,-2.79,-5.60,-2.79,2.78,2.25,2.34,-2.82,-2.82,-2.82
287.84,-5.70,-2.88,-5.70,-2.87,2.87,2.36,2.36,-2.83,-2.83,-2.83
290.72,-5.79,-2.96,-5.79,-2.96,2.96,2.46,2.38,-2.84,-2.84,-2.84
293.63,-5.88,-3.04,-5.89,-3.04,3.04,2.57,2.41,-2.84,-2.84,-2.85
296.57,-5.97,-3.12,-5.98,-3.12,3.12,2.67,2.43,-2.85,-2.85,-2.86
299.53,-6.07,-3.21,-6.07,-3.20,3.20,2.78,2.45,-2.87,-2.87,-2.87
302.53,-6.16,-3.29,-6.16,-3.28,3.28,2.89,2.47,-2.88,-2.88,-2.88
305.55,-6.25,-3.36,-6.25,-3.36,3.36,3.00,2.50,-2.90,-2.90,-2.90
308.61,-6.34,-3.44,-6.34,-3.44,3.44,3.10,2.52,-2.91,-2.91,-2.91
311.69,-6.43,-3.52,-6.43,-3.51,3.51,3.21,2.55,-2.92,-2.92,-2.92
314.81,-6.52,-3.59,-6.52,-3.59,3.59,3.32,2.57,-2.93,-2.93,-2.94
317.96,-6.61,-3.67,-6.62,-3.67,3.67,3.43,2.60,-2.94,-2.94,-2.95
321.14,-6.71,-3.75,-6.71,-3.75,3.75,3.54,2.63,-2.96,-2.96,-2.97
324.35,-6.81,-3.84,-6.81,-3.84,3.83,3.65,2.66,-2.98,-2.98,-2.98
327.59,-6.91,-3.92,-6.92,-3.92,3.92,3.76,2.69,-3.00,-3.00,-3.00
330.87,-7.02,-4.02,-7.02,-4.01,4.00,3.88,2.73,-3.02,-3.01,-3.01
334.18,-7.11,-4.09,-7.12,-4.09,4.09,3.99,2.77,-3.02,-3.02,-3.03
337.52,-7.21,-4.18,-7.22,-4.18,4.18,4.10,2.81,-3.03,-3.04,-3.04
340.90,-7.32,-4.27,-7.32,-4.27,4.27,4.21,2.85,-3.05,-3.05,-3.06
344.30,-7.43,-4.37,-7.43,-4.36,4.37,4.32,2.89,-3.07,-3.07,-3.07
347.75,-7.54,-4.46,-7.54,-4.46,4.46,4.43,2.94,-3.08,-3.08,-3.09
351.23,-7.65,-4.55,-7.65,-4.55,4.55,4.55,2.99,-3.10,-3.10,-3.11
354.74,-7.76,-4.65,-7.77,-4.65,4.65,4.66,3.04,-3.12,-3.12,-3.12
358.28,-7.88,-4.75,-7.88,-4.74,4.74,4.77,3.10,-3.14,-3.14,-3.14
361.87,-7.99,-4.84,-7.99,-4.84,4.83,4.87,3.16,-3.16,-3.16,-3.16
365.49,-8.09,-4.93,-8.09,-4.92,4.92,4.98,3.22,-3.18,-3.17,-3.17
369.14,-8.18,-5.00,-8.19,-5.00,5.00,5.08,3.28,-3.18,-3.18,-3.19
372.83,-8.28,-5.09,-8.28,-5.08,5.09,5.19,3.34,-3.20,-3.20,-3.20
376.56,-8.38,-5.17,-8.38,-5.16,5.17,5.29,3.41,-3.22,-3.21,-3.22
380.33,-8.47,-5.24,-8.48,-5.24,5.24,5.39,3.48,-3.23,-3.23,-3.24
384.13,-8.56,-5.32,-8.57,-5.32,5.32,5.48,3.55,-3.25,-3.25,-3.25
387.97,-8.65,-5.39,-8.65,-5.39,5.39,5.57,3.62,-3.26,-3.26,-3.27
391.85,-8.73,-5.46,-8.73,-5.46,5.45,5.65,3.70,-3.28,-3.28,-3.28
395.77,-8.80,-5.52,-8.81,-5.52,5.51,5.74,3.78,-3.29,-3.29,-3.29
399.73,-8.87,-5.58,-8.87,-5.57,5.57,5.81,3.85,-3.31,-3.30,-3.30
403.72,-8.92,-5.62,-8.93,-5.62,5.62,5.88,3.93,-3.31,-3.31,-3.31
407.76,-8.97,-5.66,-8.98,-5.66,5.65,5.94,4.01,-3.32,-3.32,-3.32
411.84,-9.02,-5.69,-9.02,-5.69,5.69,6.00,4.09,-3.34,-3.33,-3.34
415.96,-9.05,-5.71,-9.06,-5.71,5.71,6.04,4.17,-3.34,-3.34,-3.35
420.12,-9.08,-5.73,-9.08,-5.73,5.73,6.08,4.25,-3.36,-3.36,-3.36
424.32,-9.10,-5.74,-9.11,-5.74,5.74,6.11,4.33,-3.37,-3.37,-3.37
428.56,-9.12,-5.75,-9.12,-5.74,5.74,6.13,4.41,-3.39,-3.38,-3.38
432.85,-9.13,-5.74,-9.13,-5.74,5.74,6.13,4.48,-3.40,-3.40,-3.40
437.18,-9.13,-5.73,-9.14,-5.73,5.73,6.13,4.55,-3.41,-3.41,-3.41
441.55,-9.13,-5.72,-9.13,-5.71,5.72,6.11,4.62,-3.42,-3.42,-3.42
445.96,-9.13,-5.70,-9.13,-5.70,5.70,6.09,4.68,-3.43,-3.43,-3.44
450.42,-9.13,-5.68,-9.13,-5.68,5.69,6.04,4.74,-3.45,-3.45,-3.46
454.93,-9.13,-5.67,-9.13,-5.66,5.67,5.99,4.79,-3.47,-3.47,-3.47
459.48,-9.13,-5.65,-9.13,-5.65,5.65,5.92,4.83,-3.48,-3.48,-3.49
