frequency,raw,error,smoothed,error_smoothed,equalization,parametric_eq,fixed_band_eq,equalized_raw,equalized_smoothed,target
20.00,6.22,-0.18,6.22,-0.18,0.18,-0.45,-0.20,6.40,6.39,6.40
20.20,6.23,-0.15,6.23,-0.15,0.15,-0.46,-0.20,6.38,6.38,6.38
20.40,6.24,-0.13,6.24,-0.13,0.13,-0.46,-0.21,6.37,6.37,6.37
20.61,6.26,-0.11,6.26,-0.10,0.11,-0.46,-0.21,6.37,6.36,6.37
20.81,6.27,-0.08,6.27,-0.08,0.08,-0.47,-0.22,6.35,6.35,6.35
21.02,6.28,-0.06,6.28,-0.06,0.06,-0.47,-0.22,6.34,6.34,6.34
21.23,6.29,-0.04,6.29,-0.04,0.04,-0.47,-0.23,6.33,6.33,6.33
21.44,6.31,-0.03,6.31,-0.02,0.02,-0.48,-0.24,6.33,6.33,6.34
21.66,6.32,-0.01,6.32,-0.00,-0.00,-0.48,-0.24,6.32,6.32,6.33
21.87,6.33,0.02,6.33,0.02,-0.02,-0.48,-0.25,6.31,6.32,6.31
22.09,6.35,0.05,6.35,0.04,-0.04,-0.49,-0.25,6.31,6.31,6.30
22.31,6.36,0.06,6.36,0.06,-0.06,-0.49,-0.26,6.30,6.30,6.30
22.54,6.37,0.08,6.37,0.08,-0.07,-0.50,-0.27,6.30,6.30,6.29
22.76,6.39,0.09,6.39,0.09,-0.09,-0.50,-0.27,6.30,6.29,6.30
22.99,6.40,0.11,6.40,0.11,-0.11,-0.50,-0.28,6.29,6.29,6.29
23.22,6.41,0.13,6.41,0.12,-0.12,-0.51,-0.29,6.29,6.29,6.28
23.45,6.42,0.14,6.42,0.14,-0.14,-0.51,-0.29,6.28,6.28,6.28
23.69,6.43,0.15,6.43,0.16,-0.15,-0.52,-0.30,6.28,6.28,6.28
23.92,6.45,0.17,6.45,0.17,-0.16,-0.52,-0.31,6.29,6.28,6.28
24.16,6.46,0.18,6.46,0.18,-0.18,-0.52,-0.32,6.28,6.28,6.28
24.40,6.47,0.18,6.47,0.19,-0.19,-0.53,-0.33,6.28,6.28,6.29
24.65,6.48,0.19,6.48,0.20,-0.21,-0.53,-0.33,6.27,6.27,6.29
24.89,6.49,0.22,6.49,0.22,-0.22,-0.54,-0.34,6.27,6.27,6.27
25.14,6.51,0.25,6.51,0.24,-0.24,-0.54,-0.35,6.27,6.27,6.26
25.39,6.52,0.26,6.52,0.26,-0.25,-0.55,-0.36,6.27,6.27,6.26
25.65,6.53,0.28,6.53,0.28,-0.27,-0.55,-0.37,6.26,6.26,6.25
25.91,6.54,0.29,6.54,0.29,-0.28,-0.56,-0.38,6.26,6.26,6.25
26.16,6.55,0.29,6.55,0.30,-0.30,-0.56,-0.38,6.25,6.25,6.26
26.43,6.56,0.31,6.56,0.31,-0.32,-0.57,-0.39,6.24,6.24,6.25
26.69,6.57,0.32,6.57,0.32,-0.33,-0.57,-0.40,6.24,6.24,6.25
26.96,6.59,0.34,6.59,0.35,-0.34,-0.58,-0.41,6.25,6.24,6.25
27.23,6.60,0.36,6.60,0.36,-0.36,-0.58,-0.42,6.24,6.24,6.24
27.50,6.61,0.38,6.61,0.37,-0.37,-0.59,-0.43,6.24,6.24,6.23
27.77,6.62,0.38,6.62,0.38,-0.38,-0.60,-0.44,6.24,6.24,6.24
28.05,6.63,0.39,6.63,0.39,-0.39,-0.60,-0.45,6.24,6.24,6.24
28.33,6.64,0.40,6.64,0.40,-0.40,-0.61,-0.46,6.24,6.24,6.24
28.62,6.65,0.41,6.65,0.41,-0.41,-0.61,-0.47,6.24,6.24,6.24
28.90,6.66,0.41,6.66,0.42,-0.41,-0.62,-0.48,6.25,6.24,6.25
29.19,6.67,0.43,6.67,0.42,-0.42,-0.63,-0.49,6.25,6.25,6.24
29.48,6.67,0.43,6.67,0.43,-0.43,-0.63,-0.50,6.24,6.24,6.24
29.78,6.68,0.44,6.68,0.43,-0.44,-0.64,-0.51,6.24,6.24,6.24
30.08,6.69,0.43,6.69,0.44,-0.44,-0.65,-0.52,6.25,6.24,6.26
30.38,6.70,0.45,6.70,0.45,-0.45,-0.65,-0.53,6.25,6.25,6.25
30.68,6.71,0.46,6.71,0.46,-0.46,-0.66,-0.54,6.25,6.25,6.25
30.99,6.72,0.48,6.72,0.47,-0.47,-0.67,-0.55,6.25,6.25,6.24
31.30,6.72,0.48,6.72,0.48,-0.48,-0.67,-0.56,6.24,6.24,6.24
31.61,6.73,0.49,6.73,0.49,-0.49,-0.68,-0.57,6.24,6.23,6.24
31.93,6.73,0.50,6.73,0.50,-0.50,-0.69,-0.58,6.23,6.23,6.23
32.24,6.73,0.51,6.73,0.51,-0.51,-0.70,-0.59,6.22,6.22,6.22
32.57,6.74,0.53,6.74,0.53,-0.52,-0.70,-0.60,6.22,6.22,6.21
32.89,6.75,0.54,6.75,0.54,-0.53,-0.71,-0.61,6.22,6.21,6.21
33.22,6.75,0.54,6.75,0.55,-0.55,-0.72,-0.62,6.20,6.21,6.21
33.55,6.76,0.56,6.76,0.56,-0.56,-0.73,-0.63,6.20,6.20,6.20
33.89,6.76,0.57,6.76,0.57,-0.57,-0.74,-0.64,6.19,6.19,6.19
34.23,6.76,0.58,6.76,0.58,-0.58,-0.75,-0.65,6.18,6.18,6.18
34.57,6.77,0.60,6.77,0.60,-0.60,-0.75,-0.66,6.17,6.17,6.17
34.92,6.78,0.62,6.78,0.61,-0.61,-0.76,-0.67,6.17,6.16,6.16
35.27,6.79,0.62,6.79,0.63,-0.63,-0.77,-0.68,6.16,6.16,6.17
35.62,6.79,0.66,6.79,0.65,-0.65,-0.78,-0.69,6.14,6.14,6.13
35.97,6.80,0.67,6.80,0.67,-0.67,-0.79,-0.71,6.13,6.13,6.13
36.33,6.80,0.68,6.80,0.69,-0.68,-0.80,-0.72,6.12,6.12,6.12
36.70,6.81,0.71,6.81,0.70,-0.70,-0.81,-0.73,6.11,6.10,6.10
37.06,6.81,0.72,6.81,0.72,-0.72,-0.82,-0.75,6.09,6.09,6.09
37.43,6.81,0.74,6.81,0.74,-0.74,-0.83,-0.76,6.07,6.07,6.07
37.81,6.82,0.76,6.82,0.76,-0.76,-0.84,-0.77,6.06,6.05,6.06
38.19,6.82,0.78,6.82,0.78,-0.78,-0.85,-0.79,6.04,6.04,6.04
38.57,6.83,0.81,6.83,0.81,-0.81,-0.86,-0.80,6.02,6.02,6.02
38.95,6.83,0.83,6.83,0.83,-0.83,-0.87,-0.82,6.00,6.00,6.00
39.34,6.83,0.86,6.83,0.86,-0.85,-0.88,-0.84,5.98,5.98,5.97
39.74,6.83,0.87,6.83,0.88,-0.88,-0.89,-0.85,5.95,5.95,5.96
40.14,6.83,0.90,6.83,0.90,-0.90,-0.90,-0.87,5.93,5.93,5.93
40.54,6.84,0.92,6.84,0.92,-0.92,-0.92,-0.89,5.92,5.91,5.92
40.94,6.84,0.95,6.84,0.95,-0.95,-0.93,-0.91,5.89,5.89,5.89
41.35,6.84,0.97,6.84,0.97,-0.97,-0.94,-0.93,5.87,5.87,5.87
41.76,6.85,0.99,6.85,0.99,-0.99,-0.95,-0.95,5.86,5.85,5.86
42.18,6.85,1.01,6.85,1.02,-1.02,-0.96,-0.97,5.83,5.83,5.84
42.60,6.86,1.05,6.86,1.04,-1.04,-0.98,-0.99,5.82,5.82,5.81
43.03,6.86,1.07,6.86,1.07,-1.07,-0.99,-1.01,5.79,5.79,5.79
43.46,6.86,1.09,6.86,1.10,-1.09,-1.00,-1.04,5.77,5.77,5.77
43.90,6.86,1.12,6.86,1.12,-1.11,-1.02,-1.06,5.75,5.75,5.74
44.33,6.86,1.14,6.86,1.13,-1.14,-1.03,-1.09,5.72,5.72,5.72
44.78,6.85,1.15,6.85,1.15,-1.16,-1.04,-1.11,5.69,5.69,5.70
45.23,6.85,1.17,6.85,1.18,-1.18,-1.06,-1.14,5.67,5.67,5.68
45.68,6.84,1.20,6.84,1.20,-1.21,-1.07,-1.17,5.64,5.64,5.64
46.13,6.84,1.24,6.84,1.23,-1.23,-1.09,-1.19,5.61,5.61,5.60
46.60,6.83,1.26,6.83,1.26,-1.25,-1.10,-1.22,5.58,5.58,5.57
47.06,6.82,1.28,6.82,1.28,-1.28,-1.12,-1.25,5.54,5.54,5.54
47.53,6.80,1.29,6.80,1.30,-1.30,-1.13,-1.28,5.50,5.50,5.51
48.01,6.79,1.33,6.79,1.32,-1.33,-1.15,-1.31,5.46,5.46,5.46
48.49,6.78,1.35,6.78,1.35,-1.35,-1.16,-1.35,5.43,5.43,5.43
48.97,6.76,1.37,6.76,1.37,-1.37,-1.18,-1.38,5.39,5.39,5.39
49.46,6.75,1.39,6.75,1.40,-1.39,-1.19,-1.41,5.36,5.36,5.36
49.96,6.73,1.42,6.73,1.41,-1.41,-1.21,-1.44,5.32,5.32,5.31
50.46,6.71,1.43,6.71,1.43,-1.43,-1.23,-1.48,5.28,5.28,5.28
50.96,6.69,1.44,6.69,1.44,-1.44,-1.25,-1.51,5.25,5.25,5.25
51.47,6.68,1.46,6.68,1.46,-1.46,-1.26,-1.55,5.22,5.22,5.22
51.99,6.66,1.48,6.66,1.47,-1.47,-1.28,-1.58,5.19,5.19,5.19
52.51,6.64,1.49,6.64,1.49,-1.49,-1.30,-1.62,5.15,5.15,5.15
53.03,6.62,1.49,6.62,1.50,-1.51,-1.32,-1.65,5.11,5.11,5.13
53.56,6.60,1.52,6.60,1.52,-1.52,-1.34,-1.69,5.08,5.08,5.08
54.10,6.59,1.54,6.59,1.54,-1.54,-1.35,-1.72,5.05,5.04,5.05
54.64,6.57,1.56,6.57,1.57,-1.56,-1.37,-1.75,5.01,5.01,5.01
55.18,6.55,1.59,6.55,1.59,-1.58,-1.39,-1.79,4.97,4.97,4.96
55.74,6.54,1.61,6.54,1.60,-1.60,-1.41,-1.82,4.94,4.94,4.93
56.29,6.52,1.61,6.52,1.62,-1.62,-1.43,-1.85,4.90,4.90,4.91
56.86,6.51,1.63,6.51,1.64,-1.64,-1.45,-1.89,4.87,4.88,4.88
57.42,6.51,1.67,6.50,1.66,-1.65,-1.47,-1.92,4.86,4.85,4.84
58.00,6.50,1.69,6.50,1.68,-1.67,-1.50,-1.95,4.83,4.83,4.81
58.58,6.49,1.69,6.49,1.70,-1.70,-1.52,-1.98,4.79,4.80,4.80
59.16,6.49,1.72,6.49,1.71,-1.72,-1.54,-2.00,4.77,4.76,4.77
59.76,6.48,1.74,6.48,1.74,-1.76,-1.56,-2.03,4.72,4.72,4.74
60.35,6.48,1.78,6.48,1.78,-1.80,-1.58,-2.05,4.68,4.69,4.70
60.96,6.49,1.83,6.49,1.83,-1.84,-1.61,-2.08,4.65,4.65,4.66
61.57,6.50,1.90,6.50,1.89,-1.89,-1.63,-2.10,4.61,4.61,4.60
62.18,6.50,1.94,6.50,1.94,-1.93,-1.65,-2.12,4.57,4.57,4.56
62.80,6.51,1.99,6.51,1.99,-1.98,-1.68,-2.14,4.53,4.53,4.52
63.43,6.51,2.04,6.51,2.04,-2.03,-1.70,-2.15,4.48,4.48,4.47
64.07,6.51,2.08,6.51,2.08,-2.07,-1.72,-2.17,4.44,4.44,4.43
64.71,6.51,2.11,6.51,2.11,-2.11,-1.75,-2.18,4.40,4.40,4.40
65.35,6.51,2.15,6.51,2.15,-2.15,-1.77,-2.19,4.36,4.36,4.36
66.01,6.51,2.19,6.51,2.18,-2.19,-1.80,-2.21,4.32,4.32,4.32
66.67,6.51,2.22,6.51,2.22,-2.23,-1.83,-2.22,4.28,4.28,4.29
67.33,6.51,2.27,6.51,2.26,-2.26,-1.85,-2.22,4.25,4.25,4.24
68.01,6.51,2.31,6.51,2.31,-2.30,-1.88,-2.23,4.21,4.21,4.20
68.69,6.51,2.35,6.51,2.34,-2.34,-1.91,-2.24,4.17,4.17,4.16
69.37,6.51,2.38,6.51,2.38,-2.38,-1.93,-2.25,4.13,4.13,4.13
70.07,6.51,2.41,6.51,2.42,-2.42,-1.96,-2.25,4.09,4.09,4.10
70.77,6.51,2.46,6.51,2.46,-2.46,-1.99,-2.26,4.05,4.05,4.05
71.48,6.51,2.50,6.51,2.50,-2.50,-2.02,-2.27,4.01,4.00,4.01
72.19,6.51,2.55,6.51,2.54,-2.55,-2.05,-2.27,3.96,3.96,3.96
72.91,6.51,2.58,6.51,2.59,-2.59,-2.08,-2.28,3.92,3.92,3.93
73.64,6.52,2.64,6.52,2.63,-2.63,-2.11,-2.29,3.89,3.89,3.88
74.38,6.52,2.68,6.52,2.68,-2.67,-2.14,-2.29,3.85,3.85,3.84
75.12,6.53,2.71,6.53,2.71,-2.71,-2.17,-2.30,3.82,3.82,3.82
75.87,6.53,2.74,6.53,2.75,-2.75,-2.20,-2.31,3.78,3.79,3.79
76.63,6.53,2.77,6.53,2.78,-2.77,-2.23,-2.32,3.76,3.76,3.76
77.40,6.53,2.81,6.53,2.80,-2.80,-2.26,-2.33,3.73,3.73,3.72
78.17,6.52,2.83,6.52,2.82,-2.82,-2.29,-2.34,3.70,3.70,3.69
78.95,6.50,2.83,6.50,2.83,-2.83,-2.32,-2.36,3.67,3.67,3.67
79.74,6.49,2.84,6.48,2.84,-2.84,-2.36,-2.37,3.65,3.64,3.65
80.54,6.46,2.85,6.46,2.85,-2.85,-2.39,-2.39,3.61,3.61,3.61
81.35,6.44,2.85,6.44,2.85,-2.86,-2.42,-2.40,3.58,3.59,3.59
82.16,6.42,2.86,6.42,2.86,-2.86,-2.46,-2.42,3.56,3.56,3.56
82.98,6.39,2.86,6.39,2.86,-2.86,-2.49,-2.45,3.53,3.53,3.53
83.81,6.36,2.87,6.36,2.87,-2.87,-2.53,-2.47,3.49,3.50,3.49
84.65,6.33,2.87,6.33,2.87,-2.87,-2.56,-2.49,3.46,3.46,3.46
85.50,6.30,2.88,6.30,2.87,-2.87,-2.60,-2.52,3.43,3.43,3.42
86.35,6.27,2.88,6.27,2.88,-2.88,-2.63,-2.55,3.39,3.39,3.39
87.22,6.24,2.88,6.24,2.88,-2.89,-2.67,-2.58,3.35,3.36,3.36
88.09,6.22,2.90,6.22,2.89,-2.90,-2.70,-2.61,3.32,3.32,3.32
88.97,6.20,2.91,6.20,2.91,-2.91,-2.74,-2.65,3.29,3.29,3.29
89.86,6.18,2.93,6.18,2.93,-2.93,-2.78,-2.68,3.25,3.25,3.25
90.76,6.17,2.95,6.17,2.95,-2.95,-2.81,-2.72,3.22,3.22,3.22
91.66,6.16,2.97,6.16,2.98,-2.98,-2.85,-2.76,3.18,3.18,3.19
92.58,6.16,3.01,6.16,3.01,-3.01,-2.89,-2.81,3.15,3.15,3.15
93.51,6.17,3.05,6.17,3.05,-3.05,-2.93,-2.85,3.12,3.11,3.12
94.44,6.17,3.08,6.17,3.09,-3.09,-2.97,-2.90,3.08,3.08,3.09
95.39,6.18,3.14,6.18,3.14,-3.13,-3.00,-2.95,3.05,3.04,3.04
96.34,6.18,3.18,6.18,3.18,-3.17,-3.04,-3.00,3.01,3.00,3.00
97.30,6.18,3.22,6.18,3.22,-3.22,-3.08,-3.05,2.96,2.97,2.96
98.28,6.18,3.25,6.18,3.26,-3.25,-3.12,-3.10,2.93,2.93,2.93
99.26,6.18,3.30,6.18,3.30,-3.29,-3.16,-3.16,2.89,2.89,2.88
100.25,6.18,3.34,6.18,3.33,-3.33,-3.20,-3.21,2.85,2.85,2.84
101.25,6.18,3.35,6.18,3.36,-3.36,-3.24,-3.27,2.82,2.82,2.83
102.27,6.18,3.39,6.18,3.39,-3.40,-3.28,-3.33,2.78,2.78,2.79
103.29,6.19,3.43,6.19,3.42,-3.43,-3.32,-3.38,2.76,2.75,2.76
104.32,6.19,3.45,6.19,3.46,-3.47,-3.36,-3.44,2.72,2.73,2.74
105.37,6.20,3.50,6.20,3.50,-3.50,-3.40,-3.50,2.70,2.70,2.70
106.42,6.21,3.53,6.21,3.53,-3.53,-3.44,-3.56,2.68,2.68,2.68
107.48,6.21,3.57,6.21,3.56,-3.55,-3.48,-3.62,2.66,2.65,2.64
108.56,6.19,3.58,6.20,3.58,-3.57,-3.53,-3.68,2.62,2.62,2.61
109.64,6.18,3.60,6.18,3.60,-3.59,-3.57,-3.73,2.59,2.59,2.58
110.74,6.16,3.61,6.15,3.60,-3.60,-3.61,-3.79,2.56,2.55,2.55
111.85,6.12,3.60,6.13,3.61,-3.61,-3.65,-3.84,2.51,2.52,2.52
112.97,6.09,3.61,6.09,3.60,-3.62,-3.69,-3.90,2.48,2.48,2.48
114.10,6.06,3.60,6.06,3.61,-3.62,-3.73,-3.95,2.44,2.44,2.46
115.24,6.02,3.61,6.03,3.62,-3.62,-3.77,-3.99,2.40,2.41,2.41
116.39,6.00,3.63,6.00,3.62,-3.62,-3.81,-4.04,2.38,2.38,2.37
117.55,5.97,3.63,5.97,3.63,-3.62,-3.85,-4.08,2.35,2.35,2.34
118.73,5.93,3.63,5.93,3.63,-3.62,-3.89,-4.12,2.31,2.31,2.30
119.92,5.90,3.63,5.90,3.62,-3.62,-3.93,-4.15,2.28,2.28,2.28
121.12,5.87,3.62,5.87,3.63,-3.63,-3.97,-4.18,2.24,2.24,2.25
122.33,5.86,3.64,5.86,3.63,-3.65,-4.01,-4.21,2.21,2.21,2.22
123.55,5.84,3.65,5.84,3.65,-3.66,-4.05,-4.23,2.18,2.18,2.19
124.79,5.84,3.67,5.84,3.68,-3.68,-4.09,-4.24,2.16,2.15,2.17
126.03,5.84,3.71,5.84,3.71,-3.71,-4.12,-4.26,2.13,2.13,2.13
127.29,5.85,3.75,5.85,3.75,-3.75,-4.16,-4.27,2.10,2.10,2.10
128.57,5.86,3.79,5.86,3.79,-3.79,-4.20,-4.27,2.07,2.06,2.07
129.85,5.86,3.83,5.86,3.83,-3.83,-4.23,-4.27,2.03,2.03,2.03
131.15,5.86,3.87,5.86,3.87,-3.87,-4.27,-4.27,1.99,1.99,1.99
132.46,5.87,3.92,5.87,3.92,-3.92,-4.31,-4.26,1.95,1.95,1.95
133.79,5.88,3.96,5.88,3.96,-3.95,-4.34,-4.25,1.93,1.92,1.92
135.12,5.88,4.00,5.88,3.99,-3.99,-4.37,-4.24,1.89,1.89,1.88
136.48,5.88,4.01,5.88,4.02,-4.02,-4.41,-4.22,1.86,1.86,1.87
137.84,5.87,4.04,5.87,4.04,-4.04,-4.44,-4.20,1.83,1.83,1.83
139.22,5.86,4.07,5.86,4.06,-4.06,-4.47,-4.18,1.80,1.80,1.79
140.61,5.84,4.08,5.84,4.08,-4.07,-4.50,-4.16,1.77,1.77,1.76
142.02,5.81,4.08,5.81,4.08,-4.07,-4.53,-4.14,1.74,1.74,1.73
143.44,5.79,4.09,5.78,4.08,-4.07,-4.56,-4.11,1.72,1.71,1.70
144.87,5.75,4.06,5.75,4.07,-4.07,-4.59,-4.09,1.68,1.69,1.69
146.32,5.72,4.06,5.72,4.06,-4.06,-4.61,-4.06,1.66,1.66,1.66
147.78,5.69,4.05,5.69,4.05,-4.05,-4.64,-4.04,1.64,1.64,1.64
149.26,5.65,4.03,5.65,4.04,-4.04,-4.66,-4.01,1.61,1.62,1.61
150.75,5.62,4.03,5.62,4.03,-4.03,-4.68,-3.99,1.59,1.59,1.59
152.26,5.59,4.02,5.59,4.02,-4.02,-4.71,-3.96,1.57,1.57,1.57
153.78,5.56,4.01,5.56,4.02,-4.02,-4.73,-3.94,1.54,1.55,1.55
155.32,5.55,4.03,5.54,4.02,-4.02,-4.74,-3.92,1.53,1.52,1.52
156.88,5.52,4.02,5.52,4.03,-4.04,-4.76,-3.90,1.48,1.49,1.50
158.44,5.51,4.05,5.51,4.04,-4.06,-4.78,-3.88,1.45,1.46,1.46
160.03,5.51,4.07,5.51,4.07,-4.08,-4.79,-3.87,1.43,1.43,1.44
161.63,5.52,4.11,5.52,4.11,-4.11,-4.81,-3.86,1.41,1.41,1.41
163.24,5.53,4.16,5.53,4.15,-4.15,-4.82,-3.84,1.38,1.38,1.37
164.88,5.54,4.20,5.54,4.20,-4.19,-4.83,-3.84,1.35,1.35,1.34
166.53,5.54,4.23,5.54,4.23,-4.23,-4.84,-3.83,1.31,1.31,1.31
168.19,5.55,4.27,5.55,4.27,-4.27,-4.85,-3.83,1.28,1.28,1.28
169.87,5.56,4.32,5.56,4.31,-4.31,-4.85,-3.83,1.25,1.25,1.24
171.57,5.56,4.34,5.56,4.34,-4.34,-4.86,-3.83,1.22,1.22,1.22
173.29,5.55,4.37,5.55,4.37,-4.36,-4.86,-3.84,1.19,1.19,1.18
175.02,5.53,4.38,5.53,4.38,-4.38,-4.86,-3.85,1.15,1.15,1.15
176.77,5.51,4.40,5.51,4.40,-4.40,-4.86,-3.86,1.11,1.11,1.11
178.54,5.49,4.40,5.49,4.41,-4.41,-4.86,-3.88,1.08,1.08,1.09
180.32,5.47,4.43,5.47,4.42,-4.42,-4.86,-3.89,1.05,1.05,1.04
182.13,5.44,4.43,5.43,4.42,-4.42,-4.85,-3.91,1.02,1.01,1.01
183.95,5.39,4.41,5.40,4.42,-4.42,-4.85,-3.94,0.97,0.98,0.98
185.79,5.36,4.42,5.36,4.42,-4.42,-4.84,-3.96,0.94,0.94,0.94
187.65,5.33,4.42,5.33,4.42,-4.42,-4.83,-3.99,0.91,0.90,0.91
189.52,5.30,4.43,5.30,4.43,-4.43,-4.82,-4.03,0.87,0.87,0.87
191.42,5.27,4.43,5.27,4.43,-4.43,-4.81,-4.06,0.84,0.84,0.84
193.33,5.25,4.44,5.24,4.44,-4.44,-4.80,-4.10,0.81,0.80,0.81
195.27,5.22,4.45,5.22,4.45,-4.46,-4.79,-4.14,0.76,0.76,0.77
197.22,5.20,4.47,5.21,4.47,-4.48,-4.77,-4.18,0.72,0.73,0.73
199.19,5.20,4.48,5.20,4.49,-4.50,-4.75,-4.22,0.70,0.70,0.72
201.18,5.21,4.53,5.21,4.53,-4.53,-4.74,-4.27,0.68,0.68,0.68
203.19,5.22,4.56,5.22,4.55,-4.55,-4.72,-4.31,0.67,0.67,0.66
205.23,5.22,4.58,5.22,4.58,-4.57,-4.70,-4.36,0.65,0.65,0.64
207.28,5.21,4.59,5.21,4.60,-4.58,-4.68,-4.41,0.63,0.63,0.62
209.35,5.20,4.61,5.20,4.61,-4.60,-4.65,-4.46,0.60,0.60,0.59
211.44,5.18,4.62,5.18,4.61,-4.60,-4.63,-4.51,0.58,0.58,0.56
213.56,5.15,4.60,5.15,4.60,-4.60,-4.61,-4.56,0.55,0.54,0.55
215.69,5.11,4.58,5.11,4.59,-4.60,-4.58,-4.61,0.51,0.51,0.53
217.85,5.08,4.58,5.08,4.58,-4.59,-4.56,-4.66,0.49,0.49,0.50
220.03,5.06,4.58,5.06,4.58,-4.58,-4.53,-4.70,0.48,0.48,0.48
222.23,5.04,4.58,5.04,4.58,-4.57,-4.50,-4.75,0.47,0.47,0.46
224.45,5.01,4.57,5.01,4.56,-4.55,-4.48,-4.79,0.46,0.45,0.44
226.70,4.97,4.54,4.97,4.54,-4.53,-4.45,-4.83,0.44,0.44,0.43
228.96,4.92,4.50,4.93,4.52,-4.51,-4.42,-4.86,0.41,0.42,0.42
231.25,4.89,4.49,4.89,4.49,-4.49,-4.39,-4.89,0.40,0.40,0.40
233.57,4.85,4.46,4.84,4.46,-4.47,-4.36,-4.92,0.38,0.38,0.39
235.90,4.80,4.43,4.81,4.44,-4.44,-4.33,-4.94,0.36,0.36,0.37
238.26,4.77,4.41,4.77,4.40,-4.42,-4.30,-4.96,0.35,0.35,0.36
240.64,4.74,4.37,4.75,4.38,-4.40,-4.26,-4.97,0.34,0.35,0.37
243.05,4.73,4.37,4.73,4.37,-4.37,-4.23,-4.98,0.36,0.35,0.36
245.48,4.71,4.37,4.71,4.36,-4.35,-4.20,-4.98,0.36,0.36,0.34
247.93,4.68,4.35,4.68,4.34,-4.32,-4.17,-4.97,0.36,0.36,0.33
250.41,4.65,4.30,4.65,4.31,-4.29,-4.14,-4.96,0.36,0.35,0.35
252.92,4.60,4.25,4.61,4.26,-4.26,-4.10,-4.94,0.34,0.35,0.35
255.45,4.57,4.23,4.57,4.22,-4.23,-4.07,-4.91,0.34,0.34,0.34
258.00,4.53,4.19,4.53,4.19,-4.20,-4.04,-4.88,0.33,0.33,0.34
260.58,4.49,4.15,4.49,4.15,-4.17,-4.01,-4.84,0.32,0.33,0.34
263.19,4.46,4.12,4.46,4.12,-4.13,-3.97,-4.79,0.33,0.32,0.34
265.82,4.43,4.10,4.44,4.10,-4.11,-3.94,-4.74,0.32,0.33,0.33
268.48,4.42,4.08,4.42,4.08,-4.08,-3.91,-4.69,0.34,0.34,0.34
271.16,4.40,4.07,4.39,4.06,-4.05,-3.87,-4.63,0.35,0.34,0.33
273.87,4.35,4.01,4.36,4.03,-4.01,-3.84,-4.56,0.34,0.35,0.34
276.61,4.32,3.99,4.32,3.99,-3.98,-3.81,-4.49,0.34,0.34,0.33
279.38,4.27,3.95,4.27,3.94,-3.94,-3.77,-4.42,0.33,0.33,0.32
282.17,4.22,3.89,4.22,3.89,-3.90,-3.74,-4.34,0.32,0.32,0.33
284.99,4.18,3.84,4.18,3.84,-3.86,-3.71,-4.27,0.32,0.32,0.34
287.84,4.13,3.79,4.14,3.80,-3.82,-3.67,-4.18,0.31,0.32,0.34
290.72,4.10,3.77,4.10,3.77,-3.77,-3.64,-4.10,0.33,0.33,0.33
293.63,4.07,3.74,4.07,3.73,-3.73,-3.60,-4.02,0.34,0.34,0.33
296.57,4.04,3.69,4.04,3.70,-3.69,-3.57,-3.93,0.35,0.35,0.35
299.53,4.01,3.67,4.00,3.66,-3.64,-3.53,-3.85,0.37,0.36,0.34
302.53,3.96,3.61,3.96,3.61,-3.60,-3.50,-3.76,0.36,0.36,0.35
305.55,3.90,3.54,3.91,3.55,-3.55,-3.46,-3.67,0.35,0.35,0.36
308.61,3.86,3.50,3.86,3.50,-3.51,-3.43,-3.59,0.35,0.35,0.36
311.69,3.81,3.44,3.81,3.45,-3.46,-3.39,-3.50,0.35,0.35,0.37
314.81,3.78,3.41,3.78,3.40,-3.41,-3.35,-3.42,0.37,0.37,0.37
317.96,3.74,3.36,3.74,3.36,-3.36,-3.32,-3.34,0.38,0.38,0.38
321.14,3.71,3.32,3.71,3.32,-3.31,-3.28,-3.25,0.40,0.40,0.39
324.35,3.67,3.28,3.67,3.27,-3.26,-3.24,-3.17,0.41,0.41,0.39
327.59,3.62,3.21,3.62,3.22,-3.21,-3.20,-3.09,0.41,0.41,0.41
330.87,3.57,3.16,3.57,3.16,-3.17,-3.16,-3.02,0.40,0.40,0.41
334.18,3.52,3.11,3.52,3.11,-3.12,-3.12,-2.94,0.40,0.40,0.41
337.52,3.48,3.06,3.48,3.06,-3.07,-3.07,-2.87,0.41,0.41,0.42
340.90,3.45,3.02,3.45,3.02,-3.03,-3.03,-2.80,0.42,0.42,0.43
344.30,3.42,2.98,3.42,2.98,-2.98,-2.99,-2.72,0.44,0.44,0.44
347.75,3.39,2.94,3.39,2.94,-2.93,-2.94,-2.66,0.46,0.46,0.45
351.23,3.36,2.91,3.36,2.90,-2.89,-2.90,-2.59,0.47,0.47,0.45
354.74,3.32,2.85,3.32,2.85,-2.84,-2.85,-2.53,0.48,0.47,0.47
358.28,3.27,2.80,3.27,2.80,-2.80,-2.80,-2.46,0.47,0.47,0.47
361.87,3.22,2.75,3.22,2.75,-2.76,-2.76,-2.40,0.46,0.47,0.47
365.49,3.18,2.69,3.18,2.70,-2.71,-2.71,-2.34,0.47,0.47,0.49
369.14,3.15,2.66,3.15,2.65,-2.67,-2.66,-2.29,0.48,0.48,0.49
372.83,3.12,2.62,3.12,2.62,-2.62,-2.61,-2.23,0.50,0.50,0.50
376.56,3.08,2.58,3.09,2.58,-2.57,-2.56,-2.18,0.51,0.51,0.50
380.33,3.06,2.55,3.05,2.54,-2.53,-2.51,-2.13,0.53,0.52,0.51
384.13,3.01,2.49,3.01,2.49,-2.48,-2.46,-2.08,0.53,0.53,0.52
387.97,2.96,2.43,2.96,2.43,-2.43,-2.41,-2.03,0.53,0.53,0.53
391.85,2.91,2.37,2.91,2.38,-2.38,-2.36,-1.98,0.53,0.53,0.54
395.77,2.87,2.33,2.87,2.32,-2.33,-2.31,-1.94,0.54,0.54,0.54
399.73,2.83,2.28,2.83,2.27,-2.28,-2.26,-1.90,0.55,0.55,0.55
403.72,2.79,2.22,2.79,2.22,-2.23,-2.21,-1.85,0.56,0.56,0.57
407.76,2.75,2.17,2.75,2.17,-2.18,-2.16,-1.81,0.57,0.58,0.58
411.84,2.72,2.13,2.72,2.13,-2.12,-2.11,-1.77,0.60,0.59,0.59
415.96,2.68,2.08,2.68,2.08,-2.07,-2.06,-1.74,0.61,0.60,0.60
420.12,2.63,2.03,2.63,2.03,-2.03,-2.01,-1.70,0.60,0.61,0.60
424.32,2.58,1.98,2.58,1.97,-1.98,-1.96,-1.66,0.60,0.61,0.60
428.56,2.54,1.92,2.54,1.92,-1.93,-1.91,-1.63,0.61,0.61,0.62
432.85,2.50,1.86,2.50,1.87,-1.88,-1.87,-1.59,0.62,0.62,0.64
437.18,2.46,1.83,2.46,1.82,-1.83,-1.82,-1.56,0.63,0.63,0.63
441.55,2.42,1.78,2.42,1.78,-1.77,-1.77,-1.53,0.65,0.65,0.64
445.96,2.38,1.73,2.38,1.73,-1.72,-1.72,-1.49,0.66,0.66,0.65
450.42,2.34,1.68,2.34,1.68,-1.67,-1.67,-1.46,0.67,0.66,0.66
454.93,2.29,1.62,2.29,1.62,-1.62,-1.63,-1.43,0.67,0.67,0.67
459.48,2.24,1.56,2.24,1.56,-1.57,-1.58,-1.40,0.67,0.67,0.68
464.07,2.20,1.50,2.20,1.51,-1.52,-1.53,-1.37,0.68,0.68,0.70
468.71,2.16,1.47,2.16,1.46,-1.46,-1.49,-1.34,0.70,0.69,0.69
473.40,2.12,1.42,2.12,1.41,-1.41,-1.44,-1.30,0.71,0.71,0.70
478.13,2.07,1.36,2.07,1.36,-1.36,-1.39,-1.27,0.71,0.72,0.71
482.91,2.03,1.31,2.03,1.31,-1.30,-1.35,-1.24,0.73,0.73,0.72
487.74,1.99,1.26,1.99,1.25,-1.25,-1.30,-1.21,0.74,0.74,0.73
492.62,1.94,1.20,1.94,1.20,-1.20,-1.26,-1.18,0.74,0.74,0.74
497.55,1.89,1.14,1.89,1.14,-1.14,-1.21,-1.14,0.75,0.74,0.75
502.52,1.84,1.08,1.85,1.08,-1.09,-1.17,-1.11,0.75,0.75,0.76
507.55,1.81,1.03,1.81,1.04,-1.04,-1.12,-1.08,0.77,0.77,0.78
512.62,1.79,1.00,1.79,0.99,-1.00,-1.08,-1.04,0.79,0.79,0.79
517.75,1.76,0.95,1.76,0.95,-0.95,-1.03,-1.01,0.81,0.81,0.81
522.93,1.73,0.91,1.73,0.91,-0.90,-0.99,-0.97,0.83,0.83,0.82
528.16,1.69,0.86,1.69,0.86,-0.86,-0.95,-0.94,0.83,0.84,0.83
533.44,1.65,0.81,1.65,0.81,-0.81,-0.90,-0.90,0.84,0.84,0.84
538.77,1.61,0.76,1.61,0.76,-0.76,-0.86,-0.86,0.85,0.84,0.85
544.16,1.57,0.70,1.57,0.71,-0.72,-0.81,-0.83,0.85,0.85,0.87
