frequency,raw
20.00,-0.59
20.20,-0.55
20.40,-0.51
20.61,-0.47
20.81,-0.43
21.02,-0.39
21.23,-0.35
21.44,-0.31
21.66,-0.26
21.87,-0.23
22.09,-0.18
22.31,-0.15
22.54,-0.11
22.76,-0.06
22.99,-0.01
23.22,0.04
23.45,0.09
23.69,0.13
23.92,0.17
24.16,0.20
24.40,0.21
24.65,0.23
24.89,0.26
25.14,0.31
25.39,0.36
25.65,0.40
25.91,0.45
26.16,0.49
26.43,0.53
26.69,0.57
26.96,0.59
27.23,0.61
27.50,0.64
27.77,0.67
28.05,0.72
28.33,0.76
28.62,0.80
28.90,0.85
29.19,0.89
29.48,0.93
29.78,0.95
30.08,0.97
30.38,1.00
30.68,1.02
30.99,1.04
31.30,1.07
31.61,1.11
31.93,1.15
32.24,1.18
32.57,1.22
32.89,1.24
33.22,1.26
33.55,1.30
33.89,1.32
34.23,1.35
34.57,1.39
34.92,1.42
35.27,1.45
35.62,1.47
35.97,1.48
36.33,1.49
36.70,1.49
37.06,1.50
37.43,1.52
37.81,1.53
38.19,1.55
38.57,1.58
38.95,1.61
39.34,1.65
39.74,1.68
40.14,1.72
40.54,1.75
40.94,1.78
41.35,1.81
41.76,1.82
42.18,1.83
42.60,1.84
43.03,1.85
43.46,1.86
43.90,1.87
44.33,1.88
44.78,1.89
45.23,1.92
45.68,1.94
46.13,1.97
46.60,2.01
47.06,2.04
47.53,2.08
48.01,2.11
48.49,2.13
48.97,2.16
49.46,2.18
49.96,2.19
50.46,2.20
50.96,2.21
51.47,2.19
51.99,2.18
52.51,2.17
53.03,2.16
53.56,2.15
54.10,2.14
54.64,2.15
55.18,2.16
55.74,2.18
56.29,2.19
56.86,2.22
57.42,2.25
58.00,2.27
58.58,2.30
59.16,2.33
59.76,2.35
60.35,2.38
60.96,2.41
61.57,2.43
62.18,2.45
62.80,2.47
63.43,2.48
64.07,2.48
64.71,2.48
65.35,2.47
66.01,2.46
66.67,2.46
67.33,2.46
68.01,2.46
68.69,2.46
69.37,2.46
70.07,2.46
70.77,2.46
71.48,2.45
72.19,2.45
72.91,2.45
73.64,2.45
74.38,2.44
75.12,2.44
75.87,2.43
76.63,2.43
77.40,2.43
78.17,2.42
78.95,2.42
79.74,2.42
80.54,2.41
81.35,2.41
82.16,2.41
82.98,2.41
83.81,2.41
84.65,2.40
85.50,2.40
86.35,2.40
87.22,2.40
88.09,2.40
88.97,2.40
89.86,2.40
90.76,2.40
91.66,2.40
92.58,2.40
93.51,2.40
94.44,2.40
95.39,2.40
96.34,2.40
97.30,2.39
98.28,2.39
99.26,2.40
100.25,2.41
101.25,2.41
102.27,2.41
103.29,2.40
104.32,2.37
105.37,2.35
106.42,2.33
107.48,2.29
108.56,2.26
109.64,2.23
110.74,2.20
111.85,2.17
112.97,2.13
114.10,2.10
115.24,2.07
116.39,2.05
117.55,2.02
118.73,2.01
119.92,2.00
121.12,2.00
122.33,2.00
123.55,2.01
124.79,2.00
126.03,2.00
127.29,1.99
128.57,1.99
129.85,1.99
131.15,1.99
132.46,1.98
133.79,1.98
135.12,1.99
136.48,1.99
137.84,2.00
139.22,2.00
140.61,2.00
142.02,1.99
143.44,1.97
144.87,1.96
146.32,1.92
147.78,1.90
149.26,1.87
150.75,1.83
152.26,1.80
153.78,1.77
155.32,1.73
156.88,1.70
158.44,1.67
160.03,1.65
161.63,1.63
163.24,1.61
164.88,1.61
166.53,1.61
168.19,1.61
169.87,1.60
171.57,1.60
173.29,1.58
175.02,1.56
176.77,1.53
178.54,1.50
180.32,1.47
182.13,1.45
183.95,1.42
185.79,1.39
187.65,1.36
189.52,1.33
191.42,1.29
193.33,1.25
195.27,1.21
197.22,1.18
199.19,1.15
201.18,1.12
203.19,1.11
205.23,1.07
207.28,1.04
209.35,1.00
211.44,0.95
213.56,0.90
215.69,0.86
217.85,0.82
220.03,0.77
222.23,0.73
224.45,0.71
226.70,0.70
228.96,0.67
231.25,0.64
233.57,0.61
235.90,0.56
238.26,0.53
240.64,0.48
243.05,0.44
245.48,0.41
247.93,0.39
250.41,0.37
252.92,0.34
255.45,0.29
258.00,0.26
260.58,0.21
263.19,0.16
265.82,0.12
268.48,0.07
271.16,0.04
273.87,0.02
276.61,-0.01
279.38,-0.03
282.17,-0.07
284.99,-0.11
287.84,-0.15
290.72,-0.20
293.63,-0.24
296.57,-0.27
299.53,-0.31
302.53,-0.35
305.55,-0.38
308.61,-0.43
311.69,-0.47
314.81,-0.52
317.96,-0.56
321.14,-0.61
324.35,-0.66
327.59,-0.70
330.87,-0.76
334.18,-0.81
337.52,-0.85
340.90,-0.89
344.30,-0.94
347.75,-0.99
351.23,-1.05
354.74,-1.12
358.28,-1.17
361.87,-1.22
365.49,-1.26
369.14,-1.31
372.83,-1.37
376.56,-1.44
380.33,-1.50
384.13,-1.55
387.97,-1.60
391.85,-1.65
395.77,-1.70
399.73,-1.77
403.72,-1.83
407.76,-1.89
411.84,-1.93
415.96,-1.98
420.12,-2.02
424.32,-2.07
428.56,-2.14
432.85,-2.19
437.18,-2.24
441.55,-2.27
445.96,-2.31
450.42,-2.36
454.93,-2.42
459.48,-2.48
464.07,-2.54
468.71,-2.60
473.40,-2.64
478.13,-2.69
482.91,-2.73
487.74,-2.77
492.62,-2.82
497.55,-2.87
502.52,-2.91
507.55,-2.94
512.62,-2.98
517.75,-3.02
522.93,-3.06
528.16,-3.10
533.44,-3.13
538.77,-3.16
544.16,-3.18
549.60,-3.20
555.10,-3.22
560.65,-3.24
566.25,-3.26
571.92,-3.29
577.64,-3.31
583.41,-3.33
589.25,-3.35
595.14,-3.38
601.09,-3.41
607.10,-3.44
613.17,-3.48
619.30,-3.50
625.50,-3.52
631.75,-3.53
638.07,-3.55
644.45,-3.55
650.89,-3.54
657.40,-3.53
663.98,-3.52
670.62,-3.50
677.32,-3.47
684.10,-3.44
690.94,-3.40
697.85,-3.38
704.83,-3.37
711.87,-3.36
718.99,-3.35
726.18,-3.34
733.44,-3.33
740.78,-3.32
748.19,-3.30
755.67,-3.28
763.23,-3.26
770.86,-3.24
778.57,-3.22
786.35,-3.19
794.22,-3.15
802.16,-3.11
810.18,-3.07
818.28,-3.03
826.46,-2.98
834.73,-2.94
843.08,-2.89
851.51,-2.85
860.02,-2.82
868.62,-2.79
877.31,-2.77
886.08,-2.72
894.94,-2.66
903.89,-2.60
912.93,-2.54
922.06,-2.48
931.28,-2.41
940.59,-2.35
950.00,-2.28
959.50,-2.23
969.09,-2.17
978.78,-2.10
988.57,-2.02
998.46,-1.94
1008.44,-1.87
1018.53,-1.79
1028.71,-1.72
1039.00,-1.64
1049.39,-1.57
1059.88,-1.51
1070.48,-1.45
1081.19,-1.39
1092.00,-1.32
1102.92,-1.22
1113.95,-1.12
1125.09,-1.02
1136.34,-0.91
1147.70,-0.79
1159.18,-0.68
1170.77,-0.56
1182.48,-0.44
1194.30,-0.32
1206.25,-0.21
1218.31,-0.10
1230.49,0.01
1242.80,0.12
1255.22,0.22
1267.78,0.31
1280.45,0.39
1293.26,0.47
1306.19,0.52
1319.25,0.57
1332.45,0.61
1345.77,0.66
1359.23,0.71
1372.82,0.75
1386.55,0.80
1400.41,0.84
1414.42,0.88
1428.56,0.91
1442.85,0.94
1457.28,0.96
1471.85,0.98
1486.57,0.99
1501.43,1.00
1516.45,1.01
1531.61,1.04
1546.93,1.08
1562.40,1.10
1578.02,1.13
1593.80,1.16
1609.74,1.20
1625.84,1.24
1642.10,1.30
1658.52,1.35
1675.10,1.40
1691.85,1.47
1708.77,1.53
1725.86,1.60
1743.12,1.67
1760.55,1.75
1778.15,1.84
1795.94,1.90
1813.90,1.98
1832.03,2.05
1850.36,2.13
1868.86,2.22
1887.55,2.31
1906.42,2.40
1925.49,2.50
1944.74,2.59
1964.19,2.68
1983.83,2.79
2003.67,2.91
2023.71,3.03
2043.94,3.15
2064.38,3.26
2085.03,3.37
2105.88,3.50
2126.94,3.62
2148.20,3.74
2169.69,3.87
2191.38,4.00
2213.30,4.13
2235.43,4.26
2257.78,4.38
2280.36,4.50
2303.17,4.61
2326.20,4.71
2349.46,4.83
2372.95,4.93
2396.68,5.04
2420.65,5.14
2444.86,5.23
2469.31,5.33
2494.00,5.40
2518.94,5.48
2544.13,5.54
2569.57,5.60
2595.27,5.64
2621.22,5.69
2647.43,5.74
2673.90,5.78
2700.64,5.82
2727.65,5.86
2754.93,5.90
2782.48,5.93
2810.30,5.96
2838.40,5.98
2866.79,6.00
2895.46,6.02
2924.41,6.05
2953.65,6.07
2983.19,6.07
3013.02,6.07
3043.15,6.04
3073.58,6.00
3104.32,5.96
3135.36,5.89
3166.72,5.81
3198.38,5.71
3230.37,5.59
3262.67,5.46
3295.30,5.30
3328.25,5.14
3361.53,4.95
3395.15,4.73
3429.10,4.48
3463.39,4.23
3498.03,3.93
3533.01,3.61
3568.34,3.26
3604.02,2.91
3640.06,2.55
3676.46,2.16
3713.22,1.75
3750.36,1.35
3787.86,0.94
3825.74,0.54
3864.00,0.18
3902.64,-0.18
3941.66,-0.51
3981.08,-0.80
4020.89,-1.04
4061.10,-1.22
4101.71,-1.36
4142.73,-1.44
4184.15,-1.48
4226.00,-1.47
4268.26,-1.40
4310.94,-1.29
4354.05,-1.14
4397.59,-0.96
4441.56,-0.76
4485.98,-0.52
4530.84,-0.27
4576.15,-0.01
4621.91,0.25
4668.13,0.50
4714.81,0.74
4761.96,0.97
4809.58,1.18
4857.67,1.36
4906.25,1.54
4955.31,1.70
5004.87,1.84
5054.91,1.96
5105.46,2.04
5156.52,2.10
5208.08,2.12
5260.16,2.13
5312.77,2.10
5365.89,2.06
5419.55,1.99
5473.75,1.88
5528.49,1.76
5583.77,1.64
5639.61,1.50
5696.00,1.33
5752.96,1.15
5810.49,0.97
5868.60,0.78
5927.28,0.58
5986.56,0.39
6046.42,0.21
6106.89,0.04
6167.96,-0.13
6229.64,-0.29
6291.93,-0.43
6354.85,-0.55
6418.40,-0.63
6482.58,-0.69
6547.41,-0.72
6612.88,-0.71
6679.01,-0.66
6745.80,-0.57
6813.26,-0.43
6881.39,-0.23
6950.21,0.02
7019.71,0.32
7089.91,0.68
7160.81,1.12
7232.41,1.58
7304.74,2.07
7377.79,2.58
7451.56,3.10
7526.08,3.61
7601.34,4.10
7677.35,4.55
7754.13,4.96
7831.67,5.30
7909.98,5.56
7989.08,5.73
8068.98,5.78
8149.67,5.73
8231.16,5.58
8313.47,5.32
8396.61,4.98
8480.57,4.55
8565.38,4.06
8651.03,3.52
8737.54,2.94
8824.92,2.35
8913.17,1.76
9002.30,1.15
9092.32,0.56
9183.25,-0.01
9275.08,-0.54
9367.83,-1.05
9461.51,-1.54
9556.12,-2.00
9651.68,-2.43
9748.20,-2.83
9845.68,-3.21
9944.14,-3.56
10043.58,-3.88
10144.02,-4.20
10245.46,-4.49
10347.91,-4.78
10451.39,-5.06
10555.91,-5.33
10661.46,-5.61
10768.08,-5.87
10875.76,-6.12
10984.52,-6.38
11094.36,-6.63
11205.31,-6.87
11317.36,-7.10
11430.53,-7.34
11544.84,-7.57
11660.29,-7.80
11776.89,-8.02
11894.66,-8.22
12013.60,-8.41
12133.74,-8.59
12255.08,-8.77
12377.63,-8.94
12501.41,-9.15
12626.42,-9.38
12752.68,-9.63
12880.21,-9.93
13009.01,-10.28
13139.10,-10.70
13270.49,-11.21
13403.20,-11.76
13537.23,-12.36
13672.60,-12.99
13809.33,-13.63
13947.42,-14.29
14086.90,-14.90
14227.77,-15.49
14370.04,-15.99
14513.74,-16.43
14658.88,-16.79
14805.47,-17.03
14953.52,-17.17
15103.06,-17.23
15254.09,-17.17
15406.63,-17.03
15560.70,-16.81
15716.30,-16.52
15873.47,-16.18
16032.20,-15.83
16192.52,-15.48
16354.45,-15.10
16517.99,-14.72
16683.17,-14.32
16850.01,-13.92
17018.51,-13.50
17188.69,-13.07
17360.58,-12.63
17534.18,-12.22
17709.53,-11.85
17886.62,-11.52
18065.49,-11.31
18246.14,-11.15
18428.60,-11.03
18612.89,-10.95
18799.02,-10.91
18987.01,-10.90
19176.88,-10.95
19368.65,-11.02
19562.33,-11.14
19757.96,-11.29
19955.54,-11.49
