frequency,raw,error,smoothed,error_smoothed,equalization,parametric_eq,fixed_band_eq,equalized_raw,equalized_smoothed,target
20.00,-22.43,-17.78,-22.43,-17.78,6.00,6.44,2.61,-16.43,-16.43,-4.65
20.20,-22.31,-17.72,-22.31,-17.71,6.00,6.44,2.69,-16.31,-16.31,-4.59
20.40,-22.18,-17.64,-22.19,-17.64,6.00,6.43,2.76,-16.18,-16.19,-4.54
20.61,-22.07,-17.58,-22.06,-17.58,6.00,6.43,2.84,-16.07,-16.06,-4.49
20.81,-21.93,-17.50,-21.94,-17.50,6.00,6.43,2.92,-15.93,-15.94,-4.43
21.02,-21.81,-17.44,-21.81,-17.43,6.00,6.43,3.01,-15.81,-15.81,-4.38
21.23,-21.68,-17.36,-21.69,-17.36,6.00,6.43,3.09,-15.68,-15.69,-4.33
21.44,-21.56,-17.29,-21.56,-17.29,6.00,6.43,3.18,-15.56,-15.56,-4.28
21.66,-21.44,-17.21,-21.43,-17.21,6.00,6.43,3.27,-15.44,-15.43,-4.23
21.87,-21.30,-17.13,-21.31,-17.13,6.00,6.43,3.36,-15.30,-15.31,-4.18
22.09,-21.18,-17.06,-21.18,-17.05,6.00,6.43,3.46,-15.18,-15.18,-4.13
22.31,-21.05,-16.97,-21.05,-16.97,6.00,6.43,3.56,-15.05,-15.05,-4.08
22.54,-20.93,-16.89,-20.93,-16.89,6.00,6.43,3.66,-14.93,-14.93,-4.04
22.76,-20.79,-16.80,-20.80,-16.81,6.00,6.43,3.76,-14.79,-14.80,-3.99
22.99,-20.67,-16.72,-20.67,-16.72,6.00,6.43,3.87,-14.67,-14.67,-3.95
23.22,-20.54,-16.64,-20.54,-16.64,6.00,6.43,3.98,-14.54,-14.54,-3.90
23.45,-20.41,-16.55,-20.42,-16.56,6.00,6.43,4.08,-14.41,-14.42,-3.86
23.69,-20.30,-16.48,-20.29,-16.48,6.00,6.43,4.20,-14.30,-14.29,-3.81
23.92,-20.16,-16.39,-20.16,-16.39,6.00,6.42,4.31,-14.16,-14.16,-3.77
24.16,-20.03,-16.31,-20.03,-16.31,6.00,6.42,4.43,-14.03,-14.03,-3.72
24.40,-19.90,-16.22,-19.90,-16.22,6.00,6.42,4.55,-13.90,-13.90,-3.68
24.65,-19.78,-16.13,-19.78,-16.13,6.00,6.42,4.67,-13.78,-13.78,-3.64
24.89,-19.65,-16.05,-19.65,-16.05,6.00,6.42,4.79,-13.65,-13.65,-3.60
25.14,-19.52,-15.96,-19.52,-15.96,6.00,6.42,4.92,-13.52,-13.52,-3.56
25.39,-19.39,-15.87,-19.39,-15.87,6.00,6.42,5.05,-13.39,-13.39,-3.52
25.65,-19.26,-15.78,-19.27,-15.78,6.00,6.42,5.17,-13.26,-13.27,-3.49
25.91,-19.15,-15.70,-19.14,-15.69,6.00,6.42,5.30,-13.15,-13.14,-3.45
26.16,-19.01,-15.61,-19.01,-15.60,6.00,6.42,5.43,-13.01,-13.01,-3.41
26.43,-18.89,-15.51,-18.89,-15.52,6.00,6.42,5.55,-12.89,-12.89,-3.38
26.69,-18.76,-15.43,-18.76,-15.42,6.00,6.41,5.68,-12.76,-12.76,-3.34
26.96,-18.64,-15.34,-18.64,-15.33,6.00,6.41,5.80,-12.64,-12.64,-3.30
27.23,-18.51,-15.24,-18.51,-15.24,6.00,6.41,5.92,-12.51,-12.51,-3.27
27.50,-18.38,-15.15,-18.38,-15.15,6.00,6.41,6.05,-12.38,-12.38,-3.23
27.77,-18.25,-15.06,-18.26,-15.06,6.00,6.41,6.16,-12.25,-12.26,-3.19
28.05,-18.13,-14.97,-18.13,-14.97,6.00,6.41,6.28,-12.13,-12.13,-3.16
28.33,-18.00,-14.88,-18.01,-14.88,6.00,6.41,6.38,-12.00,-12.01,-3.12
28.62,-17.89,-14.80,-17.88,-14.80,6.00,6.40,6.49,-11.89,-11.88,-3.09
28.90,-17.75,-14.71,-17.76,-14.71,6.00,6.40,6.58,-11.75,-11.76,-3.05
29.19,-17.63,-14.62,-17.63,-14.62,6.00,6.40,6.68,-11.63,-11.63,-3.02
29.48,-17.51,-14.54,-17.51,-14.53,6.00,6.40,6.76,-11.51,-11.51,-2.98
29.78,-17.39,-14.45,-17.39,-14.45,6.00,6.40,6.84,-11.39,-11.39,-2.94
30.08,-17.27,-14.36,-17.26,-14.36,6.00,6.40,6.90,-11.27,-11.26,-2.91
30.38,-17.15,-14.27,-17.14,-14.27,6.00,6.39,6.96,-11.15,-11.14,-2.87
30.68,-17.02,-14.18,-17.03,-14.19,6.00,6.39,7.01,-11.02,-11.03,-2.84
30.99,-16.92,-14.11,-16.91,-14.11,6.00,6.39,7.05,-10.92,-10.91,-2.80
31.30,-16.81,-14.03,-16.80,-14.03,6.00,6.39,7.08,-10.81,-10.80,-2.78
31.61,-16.69,-13.95,-16.69,-13.95,6.00,6.39,7.11,-10.69,-10.69,-2.75
31.93,-16.59,-13.87,-16.58,-13.87,6.00,6.38,7.12,-10.59,-10.58,-2.72
32.24,-16.47,-13.78,-16.47,-13.79,6.00,6.38,7.12,-10.47,-10.47,-2.69
32.57,-16.36,-13.70,-16.36,-13.70,6.00,6.38,7.12,-10.36,-10.36,-2.66
32.89,-16.25,-13.62,-16.25,-13.62,6.00,6.38,7.11,-10.25,-10.25,-2.63
33.22,-16.14,-13.53,-16.14,-13.53,6.00,6.37,7.08,-10.14,-10.14,-2.61
33.55,-16.03,-13.45,-16.03,-13.44,6.00,6.37,7.06,-10.03,-10.03,-2.59
33.89,-15.92,-13.36,-15.92,-13.36,6.00,6.37,7.02,-9.92,-9.92,-2.57
34.23,-15.81,-13.26,-15.82,-13.27,6.00,6.37,6.98,-9.81,-9.82,-2.55
34.57,-15.71,-13.19,-15.71,-13.18,6.00,6.36,6.93,-9.71,-9.71,-2.52
34.92,-15.61,-13.10,-15.61,-13.10,6.00,6.36,6.88,-9.61,-9.61,-2.50
35.27,-15.51,-13.02,-15.51,-13.02,6.00,6.36,6.83,-9.51,-9.51,-2.49
35.62,-15.40,-12.94,-15.40,-12.93,6.00,6.35,6.77,-9.40,-9.40,-2.47
35.97,-15.30,-12.85,-15.30,-12.85,6.00,6.35,6.72,-9.30,-9.30,-2.45
36.33,-15.19,-12.75,-15.20,-12.76,6.00,6.35,6.66,-9.19,-9.20,-2.44
36.70,-15.09,-12.67,-15.09,-12.66,6.00,6.34,6.59,-9.09,-9.09,-2.43
37.06,-14.98,-12.57,-14.99,-12.57,6.00,6.34,6.53,-8.98,-8.99,-2.41
37.43,-14.88,-12.48,-14.88,-12.49,6.00,6.34,6.47,-8.88,-8.88,-2.40
37.81,-14.78,-12.40,-14.78,-12.40,6.00,6.33,6.41,-8.78,-8.78,-2.38
38.19,-14.68,-12.31,-14.68,-12.31,6.00,6.33,6.35,-8.68,-8.68,-2.38
38.57,-14.58,-12.21,-14.58,-12.21,6.00,6.33,6.30,-8.58,-8.58,-2.37
38.95,-14.47,-12.11,-14.48,-12.12,6.00,6.32,6.24,-8.47,-8.48,-2.36
39.34,-14.37,-12.02,-14.37,-12.02,6.00,6.32,6.19,-8.37,-8.37,-2.36
39.74,-14.27,-11.92,-14.27,-11.92,6.00,6.31,6.14,-8.27,-8.27,-2.35
40.14,-14.17,-11.81,-14.17,-11.82,6.00,6.31,6.09,-8.17,-8.17,-2.35
40.54,-14.06,-11.72,-14.06,-11.72,6.00,6.30,6.05,-8.06,-8.06,-2.35
40.94,-13.95,-11.61,-13.96,-11.62,6.00,6.30,6.01,-7.95,-7.96,-2.34
41.35,-13.86,-11.52,-13.86,-11.52,6.00,6.29,5.98,-7.86,-7.86,-2.34
41.76,-13.76,-11.42,-13.76,-11.42,6.00,6.29,5.94,-7.76,-7.76,-2.34
42.18,-13.66,-11.32,-13.66,-11.32,6.00,6.28,5.92,-7.66,-7.66,-2.34
42.60,-13.56,-11.23,-13.56,-11.22,6.00,6.28,5.89,-7.56,-7.56,-2.34
43.03,-13.46,-11.12,-13.47,-11.13,6.00,6.27,5.88,-7.46,-7.47,-2.34
43.46,-13.37,-11.04,-13.37,-11.03,6.00,6.27,5.86,-7.37,-7.37,-2.34
43.90,-13.27,-10.93,-13.28,-10.94,6.00,6.26,5.85,-7.27,-7.28,-2.34
44.33,-13.18,-10.85,-13.18,-10.85,6.00,6.25,5.85,-7.18,-7.18,-2.34
44.78,-13.09,-10.75,-13.09,-10.75,6.00,6.25,5.85,-7.09,-7.09,-2.34
45.23,-12.99,-10.66,-13.00,-10.66,6.00,6.24,5.85,-6.99,-7.00,-2.34
45.68,-12.90,-10.56,-12.90,-10.56,6.00,6.23,5.86,-6.90,-6.90,-2.34
46.13,-12.81,-10.47,-12.81,-10.47,6.00,6.23,5.87,-6.81,-6.81,-2.35
46.60,-12.72,-10.38,-12.72,-10.38,6.00,6.22,5.89,-6.72,-6.72,-2.34
47.06,-12.63,-10.28,-12.63,-10.28,6.00,6.21,5.91,-6.63,-6.63,-2.35
47.53,-12.54,-10.19,-12.54,-10.19,6.00,6.21,5.93,-6.54,-6.54,-2.36
48.01,-12.45,-10.10,-12.45,-10.10,6.00,6.20,5.96,-6.45,-6.45,-2.35
48.49,-12.36,-10.00,-12.36,-10.00,6.00,6.19,5.99,-6.36,-6.36,-2.36
48.97,-12.27,-9.91,-12.27,-9.91,6.00,6.18,6.03,-6.27,-6.27,-2.37
49.46,-12.18,-9.82,-12.18,-9.82,6.00,6.17,6.07,-6.18,-6.18,-2.36
49.96,-12.09,-9.72,-12.09,-9.72,6.00,6.17,6.11,-6.09,-6.09,-2.37
50.46,-12.00,-9.63,-12.01,-9.64,6.00,6.16,6.16,-6.00,-6.01,-2.37
50.96,-11.92,-9.55,-11.92,-9.54,6.00,6.15,6.20,-5.92,-5.92,-2.38
51.47,-11.83,-9.46,-11.83,-9.45,6.00,6.14,6.25,-5.83,-5.83,-2.38
51.99,-11.74,-9.36,-11.75,-9.36,6.00,6.13,6.30,-5.74,-5.75,-2.39
52.51,-11.66,-9.27,-11.66,-9.27,6.00,6.12,6.36,-5.66,-5.66,-2.39
53.03,-11.57,-9.18,-11.57,-9.18,6.00,6.12,6.41,-5.57,-5.57,-2.39
53.56,-11.48,-9.08,-11.49,-9.08,6.00,6.11,6.46,-5.48,-5.49,-2.40
54.10,-11.40,-8.99,-11.40,-8.99,6.00,6.10,6.52,-5.40,-5.40,-2.41
54.64,-11.32,-8.90,-11.32,-8.90,6.00,6.09,6.57,-5.32,-5.32,-2.42
55.18,-11.24,-8.81,-11.24,-8.81,6.00,6.08,6.62,-5.24,-5.24,-2.44
55.74,-11.16,-8.72,-11.16,-8.71,6.00,6.07,6.67,-5.16,-5.16,-2.45
56.29,-11.07,-8.61,-11.07,-8.61,6.00,6.06,6.71,-5.07,-5.07,-2.47
56.86,-10.98,-8.51,-10.99,-8.51,6.00,6.06,6.75,-4.98,-4.99,-2.48
57.42,-10.90,-8.40,-10.90,-8.40,6.00,6.05,6.79,-4.90,-4.90,-2.50
58.00,-10.82,-8.30,-10.82,-8.30,6.00,6.04,6.82,-4.82,-4.82,-2.52
58.58,-10.74,-8.20,-10.74,-8.20,6.00,6.03,6.85,-4.74,-4.74,-2.55
59.16,-10.66,-8.09,-10.66,-8.09,6.00,6.02,6.87,-4.66,-4.66,-2.57
59.76,-10.57,-7.98,-10.58,-7.98,6.00,6.02,6.89,-4.57,-4.58,-2.59
60.35,-10.49,-7.86,-10.49,-7.87,6.00,6.01,6.89,-4.49,-4.49,-2.63
60.96,-10.41,-7.76,-10.41,-7.76,6.00,6.00,6.89,-4.41,-4.41,-2.65
61.57,-10.33,-7.66,-10.34,-7.65,6.00,6.00,6.89,-4.33,-4.34,-2.68
62.18,-10.26,-7.55,-10.26,-7.55,6.00,5.99,6.87,-4.26,-4.26,-2.71
62.80,-10.18,-7.44,-10.19,-7.45,6.00,5.99,6.84,-4.18,-4.19,-2.74
63.43,-10.11,-7.35,-10.11,-7.34,6.00,5.98,6.81,-4.11,-4.11,-2.77
64.07,-10.03,-7.24,-10.03,-7.24,6.00,5.98,6.77,-4.03,-4.03,-2.79
64.71,-9.95,-7.13,-9.96,-7.14,6.00,5.97,6.72,-3.95,-3.96,-2.82
65.35,-9.89,-7.05,-9.89,-7.05,6.00,5.97,6.67,-3.89,-3.89,-2.84
66.01,-9.83,-6.98,-9.83,-6.97,6.00,5.97,6.60,-3.83,-3.83,-2.86
66.67,-9.76,-6.89,-9.76,-6.89,6.00,5.96,6.53,-3.76,-3.76,-2.88
67.33,-9.69,-6.80,-9.70,-6.80,6.00,5.96,6.45,-3.69,-3.70,-2.90
68.01,-9.63,-6.73,-9.63,-6.72,6.00,5.96,6.37,-3.63,-3.63,-2.91
68.69,-9.56,-6.65,-9.57,-6.65,6.00,5.95,6.28,-3.56,-3.57,-2.92
69.37,-9.50,-6.58,-9.50,-6.57,6.00,5.95,6.19,-3.50,-3.50,-2.93
70.07,-9.43,-6.49,-9.44,-6.50,6.00,5.94,6.09,-3.43,-3.44,-2.94
70.77,-9.37,-6.42,-9.37,-6.42,6.01,5.93,5.99,-3.37,-3.37,-2.95
71.48,-9.31,-6.36,-9.31,-6.35,6.01,5.92,5.88,-3.30,-3.30,-2.96
72.19,-9.24,-6.27,-9.25,-6.28,6.02,5.90,5.78,-3.23,-3.23,-2.97
72.91,-9.18,-6.20,-9.18,-6.20,6.01,5.88,5.67,-3.17,-3.17,-2.98
73.64,-9.12,-6.13,-9.12,-6.13,6.00,5.86,5.56,-3.13,-3.13,-3.00
74.38,-9.06,-6.05,-9.06,-6.05,5.97,5.83,5.45,-3.10,-3.10,-3.01
75.12,-9.00,-5.98,-9.00,-5.98,5.93,5.80,5.34,-3.08,-3.08,-3.03
75.87,-8.94,-5.90,-8.94,-5.89,5.88,5.76,5.23,-3.07,-3.06,-3.04
76.63,-8.87,-5.81,-8.87,-5.81,5.81,5.72,5.12,-3.06,-3.06,-3.06
77.40,-8.80,-5.72,-8.81,-5.72,5.74,5.66,5.02,-3.06,-3.07,-3.09
78.17,-8.74,-5.64,-8.74,-5.64,5.66,5.61,4.91,-3.09,-3.09,-3.11
78.95,-8.68,-5.56,-8.68,-5.56,5.57,5.54,4.81,-3.12,-3.12,-3.13
79.74,-8.62,-5.48,-8.62,-5.48,5.48,5.48,4.70,-3.15,-3.14,-3.14
80.54,-8.55,-5.39,-8.56,-5.39,5.39,5.40,4.60,-3.16,-3.17,-3.16
81.35,-8.49,-5.31,-8.49,-5.31,5.31,5.33,4.50,-3.19,-3.19,-3.18
82.16,-8.43,-5.23,-8.43,-5.22,5.23,5.25,4.41,-3.20,-3.20,-3.20
82.98,-8.36,-5.14,-8.37,-5.14,5.15,5.17,4.31,-3.21,-3.22,-3.23
83.81,-8.30,-5.07,-8.31,-5.07,5.07,5.08,4.22,-3.23,-3.23,-3.24
84.65,-8.24,-4.99,-8.25,-5.00,4.99,5.00,4.13,-3.25,-3.25,-3.25
85.50,-8.19,-4.93,-8.19,-4.93,4.92,4.91,4.05,-3.28,-3.27,-3.26
86.35,-8.12,-4.85,-8.12,-4.85,4.84,4.82,3.97,-3.28,-3.28,-3.28
87.22,-8.05,-4.76,-8.05,-4.76,4.77,4.73,3.89,-3.28,-3.28,-3.29
88.09,-7.98,-4.68,-7.99,-4.69,4.70,4.64,3.81,-3.29,-3.29,-3.30
88.97,-7.93,-4.62,-7.94,-4.62,4.63,4.55,3.74,-3.31,-3.31,-3.32
89.86,-7.89,-4.56,-7.89,-4.55,4.55,4.47,3.67,-3.34,-3.33,-3.33
90.76,-7.83,-4.49,-7.83,-4.49,4.48,4.38,3.60,-3.36,-3.36,-3.35
91.66,-7.77,-4.41,-7.78,-4.41,4.40,4.29,3.53,-3.37,-3.37,-3.36
92.58,-7.71,-4.33,-7.71,-4.33,4.33,4.20,3.47,-3.39,-3.38,-3.38
93.51,-7.65,-4.25,-7.65,-4.25,4.25,4.12,3.41,-3.40,-3.40,-3.41
94.44,-7.59,-4.17,-7.60,-4.17,4.18,4.03,3.35,-3.42,-3.42,-3.42
95.39,-7.54,-4.09,-7.54,-4.09,4.10,3.95,3.30,-3.45,-3.44,-3.45
96.34,-7.48,-4.01,-7.49,-4.01,4.01,3.86,3.25,-3.47,-3.48,-3.48
97.30,-7.44,-3.93,-7.44,-3.93,3.93,3.78,3.19,-3.52,-3.52,-3.51
98.28,-7.40,-3.86,-7.40,-3.85,3.84,3.70,3.15,-3.56,-3.55,-3.54
99.26,-7.34,-3.76,-7.34,-3.76,3.76,3.62,3.10,-3.58,-3.58,-3.58
100.25,-7.28,-3.67,-7.29,-3.67,3.68,3.54,3.06,-3.61,-3.61,-3.62
101.25,-7.23,-3.58,-7.23,-3.58,3.60,3.46,3.02,-3.64,-3.64,-3.66
102.27,-7.18,-3.49,-7.19,-3.50,3.51,3.38,2.98,-3.67,-3.68,-3.69
103.29,-7.16,-3.43,-7.16,-3.43,3.43,3.30,2.94,-3.74,-3.74,-3.73
104.32,-7.14,-3.36,-7.13,-3.35,3.34,3.22,2.90,-3.80,-3.79,-3.78
105.37,-7.09,-3.27,-7.09,-3.27,3.26,3.14,2.87,-3.84,-3.84,-3.82
106.42,-7.03,-3.17,-7.04,-3.17,3.17,3.06,2.83,-3.86,-3.87,-3.87
107.48,-6.98,-3.08,-6.98,-3.08,3.08,2.99,2.80,-3.90,-3.90,-3.91
108.56,-6.93,-2.98,-6.93,-2.98,2.99,2.91,2.76,-3.95,-3.95,-3.95
109.64,-6.88,-2.89,-6.89,-2.89,2.89,2.84,2.73,-3.99,-4.00,-3.99
110.74,-6.84,-2.80,-6.84,-2.80,2.80,2.76,2.70,-4.05,-4.05,-4.04
111.85,-6.79,-2.72,-6.79,-2.71,2.70,2.69,2.67,-4.09,-4.08,-4.08
112.97,-6.72,-2.61,-6.72,-2.61,2.61,2.61,2.63,-4.11,-4.11,-4.12
114.10,-6.65,-2.50,-6.66,-2.51,2.52,2.54,2.60,-4.13,-4.14,-4.15
115.24,-6.60,-2.41,-6.61,-2.42,2.43,2.47,2.57,-4.17,-4.18,-4.19
116.39,-6.57,-2.35,-6.57,-2.35,2.35,2.40,2.54,-4.23,-4.22,-4.23
117.55,-6.54,-2.29,-6.53,-2.28,2.26,2.32,2.50,-4.28,-4.27,-4.25
118.73,-6.48,-2.19,-6.48,-2.19,2.18,2.25,2.47,-4.30,-4.30,-4.29
119.92,-6.42,-2.11,-6.42,-2.11,2.10,2.18,2.43,-4.32,-4.32,-4.32
121.12,-6.35,-2.01,-6.36,-2.02,2.03,2.11,2.39,-4.33,-4.34,-4.34
122.33,-6.31,-1.96,-6.31,-1.95,1.95,2.05,2.35,-4.36,-4.36,-4.36
123.55,-6.26,-1.88,-6.26,-1.87,1.88,1.98,2.31,-4.38,-4.37,-4.38
124.79,-6.20,-1.80,-6.21,-1.80,1.81,1.91,2.27,-4.39,-4.40,-4.41
126.03,-6.15,-1.73,-6.16,-1.74,1.74,1.84,2.23,-4.41,-4.42,-4.42
127.29,-6.13,-1.69,-6.13,-1.68,1.68,1.78,2.18,-4.45,-4.45,-4.45
128.57,-6.09,-1.63,-6.09,-1.63,1.62,1.71,2.13,-4.48,-4.47,-4.46
129.85,-6.04,-1.56,-6.04,-1.56,1.56,1.65,2.08,-4.49,-4.49,-4.48
131.15,-5.98,-1.49,-5.99,-1.50,1.49,1.58,2.03,-4.49,-4.50,-4.49
132.46,-5.95,-1.44,-5.95,-1.43,1.43,1.52,1.98,-4.53,-4.52,-4.52
133.79,-5.90,-1.37,-5.90,-1.37,1.36,1.46,1.93,-4.54,-4.54,-4.54
135.12,-5.85,-1.30,-5.86,-1.30,1.30,1.40,1.87,-4.55,-4.56,-4.56
136.48,-5.81,-1.24,-5.81,-1.23,1.24,1.33,1.82,-4.58,-4.57,-4.58
137.84,-5.76,-1.17,-5.77,-1.17,1.18,1.27,1.76,-4.59,-4.59,-4.60
139.22,-5.73,-1.11,-5.73,-1.11,1.12,1.21,1.70,-4.62,-4.62,-4.63
140.61,-5.70,-1.06,-5.70,-1.05,1.06,1.16,1.64,-4.65,-4.65,-4.65
142.02,-5.67,-1.00,-5.67,-1.00,1.00,1.10,1.58,-4.68,-4.68,-4.67
143.44,-5.64,-0.95,-5.64,-0.95,0.94,1.04,1.52,-4.71,-4.70,-4.69
144.87,-5.60,-0.88,-5.61,-0.89,0.88,0.98,1.45,-4.72,-4.73,-4.72
146.32,-5.57,-0.83,-5.57,-0.83,0.82,0.93,1.39,-4.75,-4.74,-4.75
147.78,-5.52,-0.76,-5.53,-0.76,0.77,0.87,1.33,-4.76,-4.76,-4.76
149.26,-5.48,-0.70,-5.49,-0.70,0.71,0.82,1.26,-4.77,-4.78,-4.79
150.75,-5.45,-0.64,-5.45,-0.64,0.66,0.76,1.20,-4.80,-4.80,-4.81
152.26,-5.43,-0.60,-5.43,-0.60,0.60,0.71,1.13,-4.83,-4.83,-4.84
153.78,-5.40,-0.54,-5.41,-0.55,0.54,0.66,1.07,-4.86,-4.86,-4.86
155.32,-5.38,-0.51,-5.38,-0.50,0.49,0.61,1.00,-4.90,-4.89,-4.87
156.88,-5.33,-0.44,-5.34,-0.44,0.43,0.56,0.94,-4.90,-4.91,-4.89
158.44,-5.29,-0.38,-5.29,-0.38,0.37,0.51,0.87,-4.92,-4.92,-4.92
160.03,-5.24,-0.31,-5.25,-0.31,0.31,0.46,0.81,-4.93,-4.93,-4.94
161.63,-5.20,-0.26,-5.20,-0.25,0.26,0.41,0.74,-4.95,-4.94,-4.95
163.24,-5.16,-0.19,-5.16,-0.19,0.20,0.36,0.67,-4.96,-4.96,-4.97
164.88,-5.11,-0.13,-5.12,-0.14,0.15,0.31,0.61,-4.97,-4.98,-4.99
166.53,-5.09,-0.10,-5.09,-0.09,0.10,0.26,0.54,-5.00,-5.00,-5.00
168.19,-5.07,-0.06,-5.07,-0.05,0.05,0.22,0.48,-5.03,-5.02,-5.02
169.87,-5.03,0.00,-5.04,-0.01,-0.01,0.17,0.41,-5.04,-5.05,-5.03
171.57,-5.00,0.04,-5.00,0.04,-0.06,0.12,0.35,-5.06,-5.06,-5.04
173.29,-4.96,0.09,-4.95,0.10,-0.11,0.08,0.28,-5.07,-5.06,-5.05
175.02,-4.89,0.16,-4.90,0.15,-0.16,0.03,0.22,-5.05,-5.06,-5.06
176.77,-4.85,0.22,-4.85,0.21,-0.20,-0.01,0.15,-5.06,-5.06,-5.07
178.54,-4.81,0.25,-4.81,0.26,-0.25,-0.05,0.09,-5.07,-5.06,-5.07
180.32,-4.77,0.30,-4.78,0.30,-0.29,-0.10,0.02,-5.07,-5.07,-5.07
182.13,-4.74,0.33,-4.74,0.34,-0.33,-0.14,-0.04,-5.08,-5.07,-5.08
183.95,-4.70,0.38,-4.71,0.37,-0.37,-0.18,-0.11,-5.07,-5.07,-5.08
185.79,-4.68,0.39,-4.68,0.40,-0.39,-0.23,-0.17,-5.08,-5.08,-5.08
187.65,-4.66,0.42,-4.66,0.42,-0.42,-0.27,-0.23,-5.08,-5.08,-5.08
189.52,-4.64,0.44,-4.65,0.44,-0.44,-0.31,-0.30,-5.08,-5.09,-5.08
191.42,-4.63,0.45,-4.63,0.45,-0.46,-0.35,-0.36,-5.09,-5.09,-5.09
193.33,-4.61,0.47,-4.61,0.48,-0.48,-0.40,-0.43,-5.09,-5.09,-5.09
195.27,-4.59,0.50,-4.59,0.50,-0.50,-0.44,-0.49,-5.10,-5.09,-5.09
197.22,-4.56,0.53,-4.57,0.53,-0.53,-0.48,-0.55,-5.09,-5.09,-5.09
199.19,-4.54,0.55,-4.55,0.55,-0.55,-0.52,-0.62,-5.09,-5.10,-5.09
201.18,-4.52,0.58,-4.52,0.58,-0.58,-0.56,-0.68,-5.10,-5.10,-5.10
203.19,-4.50,0.60,-4.50,0.61,-0.61,-0.61,-0.74,-5.11,-5.11,-5.10
205.23,-4.47,0.64,-4.47,0.64,-0.64,-0.65,-0.80,-5.11,-5.11,-5.11
207.28,-4.44,0.68,-4.45,0.67,-0.67,-0.69,-0.87,-5.11,-5.12,-5.12
209.35,-4.42,0.70,-4.42,0.71,-0.71,-0.73,-0.93,-5.13,-5.13,-5.12
211.44,-4.39,0.74,-4.39,0.74,-0.74,-0.77,-0.99,-5.14,-5.14,-5.13
213.56,-4.36,0.78,-4.36,0.78,-0.78,-0.81,-1.05,-5.15,-5.14,-5.14
215.69,-4.32,0.82,-4.32,0.82,-0.83,-0.86,-1.11,-5.15,-5.15,-5.14
217.85,-4.27,0.87,-4.28,0.87,-0.87,-0.90,-1.16,-5.14,-5.15,-5.15
220.03,-4.24,0.91,-4.24,0.91,-0.91,-0.94,-1.22,-5.16,-5.15,-5.16
222.23,-4.21,0.95,-4.21,0.96,-0.95,-0.98,-1.27,-5.17,-5.16,-5.16
224.45,-4.16,1.01,-4.17,1.00,-1.00,-1.02,-1.32,-5.16,-5.17,-5.17
226.70,-4.13,1.05,-4.13,1.04,-1.04,-1.07,-1.38,-5.17,-5.17,-5.18
228.96,-4.10,1.08,-4.11,1.08,-1.08,-1.11,-1.42,-5.18,-5.18,-5.19
231.25,-4.08,1.11,-4.08,1.11,-1.11,-1.15,-1.47,-5.20,-5.20,-5.19
233.57,-4.06,1.15,-4.06,1.15,-1.15,-1.19,-1.52,-5.22,-5.21,-5.21
235.90,-4.02,1.19,-4.03,1.19,-1.19,-1.24,-1.56,-5.21,-5.22,-5.22
238.26,-4.00,1.23,-4.01,1.22,-1.22,-1.28,-1.60,-5.23,-5.23,-5.23
240.64,-3.98,1.25,-3.98,1.26,-1.26,-1.32,-1.64,-5.25,-5.24,-5.24
243.05,-3.96,1.29,-3.96,1.29,-1.30,-1.36,-1.67,-5.26,-5.26,-5.25
245.48,-3.93,1.33,-3.93,1.33,-1.33,-1.40,-1.70,-5.27,-5.27,-5.27
247.93,-3.89,1.38,-3.90,1.38,-1.37,-1.44,-1.73,-5.27,-5.27,-5.27
250.41,-3.87,1.42,-3.87,1.42,-1.41,-1.48,-1.76,-5.28,-5.28,-5.29
252.92,-3.84,1.45,-3.85,1.45,-1.45,-1.52,-1.78,-5.29,-5.29,-5.29
255.45,-3.82,1.48,-3.83,1.48,-1.49,-1.55,-1.81,-5.31,-5.31,-5.31
258.00,-3.80,1.51,-3.80,1.52,-1.52,-1.59,-1.83,-5.33,-5.33,-5.31
260.58,-3.77,1.55,-3.77,1.55,-1.56,-1.62,-1.84,-5.34,-5.33,-5.33
263.19,-3.73,1.60,-3.73,1.60,-1.60,-1.66,-1.86,-5.33,-5.33,-5.33
265.82,-3.69,1.64,-3.70,1.64,-1.63,-1.69,-1.87,-5.33,-5.33,-5.34
268.48,-3.67,1.68,-3.67,1.67,-1.66,-1.72,-1.88,-5.34,-5.34,-5.35
271.16,-3.65,1.70,-3.65,1.70,-1.69,-1.74,-1.88,-5.35,-5.35,-5.35
273.87,-3.63,1.73,-3.64,1.73,-1.72,-1.77,-1.89,-5.35,-5.36,-5.37
276.61,-3.63,1.75,-3.63,1.75,-1.74,-1.80,-1.89,-5.38,-5.37,-5.38
279.38,-3.62,1.76,-3.62,1.76,-1.77,-1.82,-1.90,-5.39,-5.39,-5.38
282.17,-3.61,1.78,-3.62,1.78,-1.79,-1.84,-1.90,-5.40,-5.40,-5.40
284.99,-3.60,1.81,-3.61,1.80,-1.81,-1.87,-1.90,-5.42,-5.42,-5.41
287.84,-3.59,1.83,-3.59,1.83,-1.84,-1.89,-1.90,-5.43,-5.43,-5.42
290.72,-3.57,1.86,-3.57,1.86,-1.87,-1.91,-1.90,-5.44,-5.44,-5.44
293.63,-3.54,1.91,-3.55,1.90,-1.91,-1.93,-1.90,-5.45,-5.45,-5.45
296.57,-3.51,1.95,-3.52,1.95,-1.95,-1.95,-1.90,-5.46,-5.46,-5.46
299.53,-3.48,1.99,-3.48,1.99,-1.99,-1.96,-1.90,-5.48,-5.48,-5.47
302.53,-3.45,2.03,-3.45,2.04,-2.04,-1.98,-1.90,-5.49,-5.49,-5.49
305.55,-3.41,2.09,-3.41,2.08,-2.08,-2.00,-1.89,-5.50,-5.50,-5.50
308.61,-3.38,2.13,-3.38,2.13,-2.13,-2.02,-1.89,-5.51,-5.51,-5.51
311.69,-3.34,2.18,-3.35,2.17,-2.17,-2.03,-1.89,-5.51,-5.52,-5.52
314.81,-3.33,2.20,-3.33,2.21,-2.20,-2.05,-1.89,-5.54,-5.54,-5.54
317.96,-3.31,2.23,-3.31,2.24,-2.23,-2.07,-1.90,-5.55,-5.54,-5.55
321.14,-3.29,2.26,-3.29,2.26,-2.26,-2.09,-1.90,-5.55,-5.55,-5.55
324.35,-3.27,2.29,-3.28,2.28,-2.27,-2.11,-1.90,-5.55,-5.55,-5.56
327.59,-3.27,2.29,-3.28,2.29,-2.28,-2.13,-1.91,-5.56,-5.56,-5.56
330.87,-3.28,2.29,-3.28,2.29,-2.28,-2.14,-1.91,-5.57,-5.57,-5.58
334.18,-3.29,2.28,-3.29,2.28,-2.29,-2.16,-1.92,-5.58,-5.58,-5.58
337.52,-3.30,2.28,-3.30,2.28,-2.28,-2.18,-1.93,-5.59,-5.59,-5.58
340.90,-3.31,2.28,-3.31,2.28,-2.28,-2.21,-1.94,-5.60,-5.59,-5.59
344.30,-3.31,2.28,-3.31,2.28,-2.28,-2.23,-1.95,-5.60,-5.60,-5.59
347.75,-3.31,2.28,-3.31,2.28,-2.29,-2.25,-1.96,-5.60,-5.60,-5.59
351.23,-3.30,2.29,-3.30,2.29,-2.30,-2.27,-1.97,-5.60,-5.60,-5.60
354.74,-3.29,2.30,-3.29,2.31,-2.31,-2.29,-1.99,-5.61,-5.60,-5.60
358.28,-3.26,2.33,-3.27,2.33,-2.33,-2.32,-2.00,-5.60,-5.60,-5.60
361.87,-3.24,2.36,-3.24,2.36,-2.36,-2.34,-2.02,-5.60,-5.60,-5.60
365.49,-3.21,2.39,-3.21,2.39,-2.38,-2.37,-2.04,-5.60,-5.60,-5.60
369.14,-3.18,2.42,-3.18,2.41,-2.42,-2.39,-2.06,-5.60,-5.60,-5.60
372.83,-3.15,2.44,-3.15,2.45,-2.45,-2.42,-2.08,-5.60,-5.60,-5.59
376.56,-3.11,2.48,-3.12,2.48,-2.48,-2.44,-2.11,-5.60,-5.60,-5.59
380.33,-3.08,2.52,-3.08,2.52,-2.52,-2.47,-2.13,-5.60,-5.60,-5.61
384.13,-3.05,2.55,-3.05,2.55,-2.55,-2.49,-2.16,-5.61,-5.60,-5.61
387.97,-3.02,2.58,-3.02,2.58,-2.58,-2.52,-2.19,-5.61,-5.61,-5.61
391.85,-2.99,2.61,-3.00,2.61,-2.61,-2.55,-2.22,-5.60,-5.61,-5.61
395.77,-2.97,2.64,-2.97,2.64,-2.63,-2.58,-2.25,-5.61,-5.60,-5.61
399.73,-2.95,2.67,-2.95,2.66,-2.65,-2.60,-2.28,-5.61,-5.61,-5.62
403.72,-2.94,2.68,-2.95,2.67,-2.66,-2.63,-2.31,-5.61,-5.61,-5.62
