frequency,raw,error,smoothed,error_smoothed,equalization,parametric_eq,fixed_band_eq,equalized_raw,equalized_smoothed,target
20.00,-11.85,-14.23,-11.85,-14.24,6.00,6.10,2.82,-5.85,-5.85,2.39
20.20,-11.71,-14.13,-11.70,-14.13,6.00,6.09,2.90,-5.71,-5.70,2.43
20.40,-11.56,-14.03,-11.56,-14.02,6.00,6.09,2.99,-5.56,-5.56,2.47
20.61,-11.43,-13.91,-11.42,-13.91,6.00,6.08,3.07,-5.43,-5.42,2.48
20.81,-11.28,-13.81,-11.28,-13.81,6.00,6.08,3.16,-5.28,-5.28,2.53
21.02,-11.15,-13.71,-11.17,-13.72,6.00,6.07,3.25,-5.15,-5.17,2.56
21.23,-11.08,-13.65,-11.07,-13.65,6.00,6.06,3.34,-5.08,-5.07,2.57
21.44,-10.99,-13.59,-10.99,-13.59,6.00,6.06,3.44,-4.99,-4.99,2.59
21.66,-10.92,-13.52,-10.92,-13.52,6.00,6.05,3.54,-4.92,-4.92,2.60
21.87,-10.83,-13.44,-10.83,-13.43,6.00,6.05,3.64,-4.83,-4.83,2.60
22.09,-10.71,-13.33,-10.70,-13.31,6.00,6.04,3.74,-4.71,-4.70,2.61
22.31,-10.53,-13.14,-10.54,-13.15,6.00,6.03,3.85,-4.53,-4.54,2.61
22.54,-10.35,-12.96,-10.34,-12.95,6.00,6.03,3.96,-4.35,-4.34,2.61
22.76,-10.15,-12.76,-10.15,-12.76,6.00,6.02,4.07,-4.15,-4.15,2.60
22.99,-9.98,-12.57,-10.00,-12.60,6.00,6.01,4.19,-3.98,-4.00,2.59
23.22,-9.90,-12.49,-9.89,-12.48,6.00,6.01,4.31,-3.90,-3.89,2.59
23.45,-9.81,-12.40,-9.81,-12.39,6.00,6.00,4.42,-3.81,-3.81,2.58
23.69,-9.75,-12.33,-9.74,-12.33,6.00,5.99,4.55,-3.75,-3.74,2.58
23.92,-9.66,-12.24,-9.66,-12.24,6.00,5.99,4.67,-3.66,-3.66,2.58
24.16,-9.56,-12.15,-9.56,-12.15,6.00,5.98,4.80,-3.56,-3.56,2.59
24.40,-9.44,-12.03,-9.44,-12.03,6.00,5.97,4.93,-3.44,-3.44,2.59
24.65,-9.32,-11.89,-9.32,-11.90,6.00,5.96,5.06,-3.32,-3.32,2.58
24.89,-9.19,-11.77,-9.19,-11.77,6.00,5.96,5.20,-3.19,-3.19,2.58
25.14,-9.07,-11.65,-9.07,-11.65,6.00,5.95,5.33,-3.07,-3.07,2.58
25.39,-8.94,-11.52,-8.95,-11.52,6.00,5.94,5.47,-2.94,-2.95,2.58
25.65,-8.83,-11.39,-8.83,-11.39,6.00,5.93,5.61,-2.83,-2.83,2.57
25.91,-8.71,-11.26,-8.70,-11.26,6.00,5.93,5.75,-2.71,-2.70,2.55
26.16,-8.57,-11.13,-8.58,-11.13,6.00,5.92,5.88,-2.57,-2.58,2.55
26.43,-8.46,-11.01,-8.45,-11.00,6.00,5.91,6.02,-2.46,-2.45,2.55
26.69,-8.33,-10.88,-8.32,-10.87,6.00,5.90,6.16,-2.33,-2.32,2.55
26.96,-8.21,-10.75,-8.22,-10.77,6.00,5.89,6.29,-2.21,-2.22,2.54
27.23,-8.14,-10.68,-8.14,-10.68,6.00,5.89,6.42,-2.14,-2.14,2.54
27.50,-8.08,-10.62,-8.08,-10.62,6.00,5.88,6.55,-2.08,-2.08,2.54
27.77,-8.02,-10.55,-8.02,-10.55,6.00,5.87,6.67,-2.02,-2.02,2.53
28.05,-7.93,-10.46,-7.91,-10.43,6.00,5.86,6.79,-1.93,-1.91,2.53
28.33,-7.74,-10.26,-7.75,-10.27,6.00,5.86,6.90,-1.74,-1.75,2.52
28.62,-7.56,-10.07,-7.56,-10.08,6.00,5.85,7.01,-1.56,-1.56,2.52
28.90,-7.36,-9.88,-7.38,-9.89,6.00,5.84,7.10,-1.36,-1.38,2.51
29.19,-7.22,-9.73,-7.22,-9.73,6.00,5.84,7.19,-1.22,-1.22,2.51
29.48,-7.08,-9.61,-7.07,-9.59,6.00,5.83,7.27,-1.08,-1.07,2.52
29.78,-6.95,-9.46,-6.95,-9.47,6.00,5.82,7.34,-0.95,-0.95,2.51
30.08,-6.83,-9.35,-6.84,-9.35,6.00,5.82,7.39,-0.83,-0.84,2.52
30.38,-6.76,-9.26,-6.75,-9.26,6.00,5.82,7.44,-0.76,-0.75,2.50
30.68,-6.68,-9.17,-6.67,-9.17,6.00,5.82,7.47,-0.68,-0.67,2.50
30.99,-6.60,-9.08,-6.59,-9.08,6.00,5.81,7.49,-0.60,-0.59,2.49
31.30,-6.50,-8.98,-6.50,-8.98,6.00,5.81,7.49,-0.50,-0.50,2.49
31.61,-6.39,-8.87,-6.39,-8.87,6.00,5.82,7.48,-0.39,-0.39,2.48
31.93,-6.29,-8.75,-6.27,-8.74,6.00,5.82,7.46,-0.29,-0.27,2.46
32.24,-6.14,-8.59,-6.15,-8.60,6.00,5.83,7.43,-0.14,-0.15,2.45
32.57,-6.01,-8.46,-6.01,-8.46,6.00,5.84,7.37,-0.01,-0.01,2.45
32.89,-5.87,-8.31,-5.87,-8.31,6.00,5.85,7.32,0.13,0.13,2.44
33.22,-5.74,-8.16,-5.74,-8.16,6.00,5.87,7.24,0.26,0.26,2.42
33.55,-5.61,-8.03,-5.61,-8.02,6.00,5.89,7.17,0.39,0.39,2.41
33.89,-5.50,-7.89,-5.51,-7.90,6.00,5.92,7.07,0.50,0.49,2.39
34.23,-5.43,-7.82,-5.45,-7.84,6.00,5.95,6.97,0.57,0.55,2.39
34.57,-5.40,-7.76,-5.40,-7.77,6.00,5.99,6.87,0.60,0.60,2.37
34.92,-5.36,-7.71,-5.30,-7.66,6.00,6.03,6.75,0.64,0.70,2.36
35.27,-5.12,-7.47,-5.08,-7.43,6.00,6.08,6.63,0.88,0.92,2.35
35.62,-4.82,-7.15,-4.82,-7.16,6.00,6.13,6.51,1.18,1.18,2.33
35.97,-4.52,-6.83,-4.60,-6.93,6.00,6.18,6.38,1.48,1.40,2.32
36.33,-4.50,-6.81,-4.50,-6.81,6.00,6.23,6.25,1.50,1.50,2.32
36.70,-4.49,-6.79,-4.46,-6.76,6.00,6.27,6.11,1.51,1.54,2.30
37.06,-4.46,-6.76,-4.43,-6.73,6.00,6.30,5.98,1.54,1.57,2.29
37.43,-4.33,-6.63,-4.33,-6.62,6.02,6.31,5.84,1.68,1.68,2.30
37.81,-4.21,-6.49,-4.23,-6.52,6.03,6.30,5.70,1.83,1.80,2.29
38.19,-4.14,-6.41,-4.16,-6.44,6.04,6.26,5.56,1.90,1.88,2.27
38.57,-4.12,-6.40,-4.12,-6.39,6.02,6.20,5.42,1.90,1.90,2.28
38.95,-4.09,-6.36,-4.05,-6.32,5.98,6.11,5.29,1.89,1.93,2.27
39.34,-3.92,-6.19,-3.92,-6.18,5.91,6.01,5.15,1.99,1.99,2.26
39.74,-3.73,-5.98,-3.74,-5.99,5.83,5.88,5.02,2.10,2.09,2.25
40.14,-3.53,-5.77,-3.52,-5.77,5.74,5.76,4.89,2.21,2.22,2.25
40.54,-3.34,-5.58,-3.33,-5.57,5.64,5.63,4.76,2.30,2.31,2.24
40.94,-3.15,-5.38,-3.18,-5.42,5.53,5.50,4.63,2.39,2.35,2.24
41.35,-3.09,-5.31,-3.09,-5.31,5.42,5.37,4.51,2.34,2.34,2.23
41.76,-3.04,-5.26,-3.03,-5.25,5.31,5.25,4.38,2.26,2.27,2.21
42.18,-3.00,-5.21,-3.01,-5.21,5.18,5.13,4.27,2.18,2.17,2.21
42.60,-2.94,-5.14,-2.95,-5.15,5.06,5.02,4.15,2.11,2.11,2.19
43.03,-2.89,-5.07,-2.85,-5.04,4.94,4.91,4.03,2.05,2.08,2.19
43.46,-2.72,-4.88,-2.72,-4.89,4.81,4.80,3.92,2.09,2.09,2.16
43.90,-2.55,-4.69,-2.55,-4.70,4.68,4.70,3.81,2.14,2.13,2.14
44.33,-2.38,-4.51,-2.37,-4.49,4.56,4.59,3.71,2.18,2.19,2.12
44.78,-2.22,-4.32,-2.23,-4.33,4.44,4.50,3.61,2.23,2.21,2.10
45.23,-2.12,-4.20,-2.13,-4.21,4.33,4.40,3.51,2.21,2.20,2.08
45.68,-2.09,-4.15,-2.08,-4.15,4.21,4.30,3.41,2.12,2.13,2.07
46.13,-2.07,-4.12,-2.09,-4.15,4.09,4.21,3.31,2.02,1.99,2.05
46.60,-2.08,-4.12,-2.08,-4.12,3.98,4.11,3.22,1.90,1.90,2.05
47.06,-2.05,-4.09,-1.95,-3.99,3.87,4.01,3.13,1.82,1.92,2.04
47.53,-1.75,-3.79,-1.76,-3.80,3.77,3.92,3.05,2.01,2.00,2.03
48.01,-1.47,-3.49,-1.55,-3.58,3.64,3.82,2.96,2.18,2.09,2.03
48.49,-1.41,-3.42,-1.39,-3.40,3.51,3.72,2.88,2.11,2.12,2.01
48.97,-1.34,-3.33,-1.35,-3.34,3.38,3.62,2.80,2.05,2.04,1.99
49.46,-1.32,-3.30,-1.33,-3.31,3.27,3.52,2.72,1.95,1.94,1.99
49.96,-1.30,-3.26,-1.20,-3.18,3.17,3.42,2.65,1.87,1.97,1.97
50.46,-1.08,-3.06,-1.06,-3.03,3.08,3.31,2.58,2.00,2.02,1.98
50.96,-0.83,-2.80,-1.00,-2.96,2.99,3.20,2.50,2.17,2.00,1.97
51.47,-0.96,-2.92,-0.97,-2.93,2.90,3.10,2.44,1.95,1.93,1.96
51.99,-1.11,-3.07,-0.93,-2.89,2.80,2.98,2.37,1.69,1.87,1.95
52.51,-0.84,-2.79,-0.84,-2.80,2.70,2.87,2.30,1.86,1.86,1.96
53.03,-0.56,-2.51,-0.66,-2.61,2.61,2.76,2.24,2.05,1.95,1.96
53.56,-0.49,-2.43,-0.47,-2.42,2.53,2.64,2.18,2.04,2.05,1.95
54.10,-0.42,-2.35,-0.40,-2.34,2.45,2.52,2.12,2.03,2.05,1.94
54.64,-0.37,-2.30,-0.38,-2.31,2.36,2.40,2.06,1.99,1.98,1.94
55.18,-0.35,-2.27,-0.36,-2.29,2.27,2.28,2.00,1.92,1.90,1.93
55.74,-0.36,-2.27,-0.33,-2.25,2.18,2.16,1.94,1.82,1.85,1.91
56.29,-0.28,-2.20,-0.26,-2.17,2.10,2.03,1.89,1.81,1.84,1.91
56.86,-0.14,-2.03,-0.16,-2.05,2.02,1.91,1.84,1.88,1.86,1.89
57.42,-0.02,-1.90,-0.03,-1.91,1.93,1.78,1.78,1.90,1.89,1.88
58.00,0.07,-1.79,0.08,-1.78,1.82,1.66,1.73,1.89,1.90,1.87
58.58,0.18,-1.67,0.18,-1.67,1.69,1.53,1.68,1.88,1.88,1.85
59.16,0.29,-1.55,0.28,-1.56,1.57,1.41,1.63,1.85,1.84,1.84
59.76,0.36,-1.45,0.37,-1.45,1.44,1.28,1.58,1.80,1.81,1.82
60.35,0.46,-1.34,0.46,-1.33,1.32,1.16,1.53,1.77,1.78,1.79
60.96,0.55,-1.21,0.56,-1.21,1.20,1.04,1.48,1.75,1.76,1.77
61.57,0.65,-1.07,0.65,-1.08,1.09,0.92,1.43,1.74,1.74,1.72
62.18,0.73,-0.95,0.73,-0.96,0.97,0.81,1.38,1.71,1.70,1.69
62.80,0.80,-0.86,0.80,-0.85,0.86,0.70,1.34,1.66,1.66,1.65
63.43,0.85,-0.76,0.86,-0.75,0.76,0.59,1.29,1.61,1.61,1.61
64.07,0.92,-0.65,0.92,-0.66,0.65,0.49,1.24,1.58,1.57,1.58
64.71,0.98,-0.55,0.99,-0.56,0.55,0.40,1.19,1.54,1.54,1.54
65.35,1.06,-0.46,1.06,-0.45,0.45,0.31,1.15,1.50,1.50,1.51
66.01,1.11,-0.36,1.12,-0.35,0.34,0.23,1.10,1.46,1.47,1.47
66.67,1.18,-0.25,1.15,-0.28,0.25,0.15,1.05,1.43,1.40,1.43
67.33,1.21,-0.19,1.22,-0.19,0.16,0.08,1.01,1.37,1.38,1.40
68.01,1.21,-0.15,1.31,-0.06,0.08,0.02,0.96,1.30,1.39,1.36
68.69,1.43,0.11,1.36,0.04,0.02,-0.03,0.92,1.45,1.38,1.32
69.37,1.45,0.17,1.39,0.11,-0.04,-0.08,0.87,1.41,1.35,1.28
70.07,1.31,0.07,1.38,0.14,-0.10,-0.11,0.82,1.21,1.28,1.24
70.77,1.31,0.11,1.32,0.11,-0.16,-0.15,0.78,1.16,1.16,1.21
71.48,1.31,0.15,1.31,0.15,-0.22,-0.17,0.73,1.10,1.09,1.16
72.19,1.33,0.21,1.35,0.23,-0.27,-0.19,0.69,1.06,1.07,1.12
72.91,1.40,0.34,1.38,0.31,-0.34,-0.20,0.64,1.07,1.04,1.07
73.64,1.41,0.39,1.43,0.40,-0.41,-0.21,0.60,1.01,1.02,1.02
74.38,1.45,0.48,1.47,0.49,-0.48,-0.22,0.55,0.97,0.98,0.98
75.12,1.51,0.58,1.49,0.56,-0.55,-0.22,0.50,0.96,0.94,0.93
75.87,1.51,0.62,1.52,0.62,-0.60,-0.22,0.46,0.91,0.92,0.90
76.63,1.51,0.66,1.53,0.68,-0.62,-0.21,0.41,0.89,0.91,0.86
77.40,1.51,0.69,1.51,0.69,-0.62,-0.20,0.37,0.89,0.89,0.82
78.17,1.48,0.70,1.45,0.67,-0.61,-0.19,0.32,0.87,0.84,0.78
78.95,1.34,0.59,1.34,0.59,-0.60,-0.18,0.27,0.75,0.75,0.76
79.74,1.21,0.49,1.20,0.48,-0.57,-0.17,0.23,0.64,0.63,0.73
80.54,1.07,0.38,1.12,0.43,-0.54,-0.16,0.18,0.54,0.58,0.70
81.35,1.06,0.40,1.11,0.44,-0.48,-0.15,0.14,0.58,0.63,0.67
82.16,1.17,0.54,1.12,0.48,-0.43,-0.14,0.09,0.75,0.69,0.64
82.98,1.12,0.51,1.09,0.48,-0.37,-0.14,0.04,0.75,0.72,0.61
83.81,0.97,0.40,0.98,0.41,-0.33,-0.13,-0.01,0.65,0.66,0.57
84.65,0.80,0.26,0.82,0.28,-0.30,-0.13,-0.05,0.51,0.53,0.54
85.50,0.68,0.16,0.66,0.15,-0.26,-0.13,-0.10,0.42,0.41,0.52
86.35,0.56,0.08,0.58,0.09,-0.20,-0.13,-0.15,0.37,0.38,0.48
87.22,0.50,0.04,0.57,0.12,-0.12,-0.13,-0.20,0.37,0.44,0.45
88.09,0.57,0.16,0.51,0.09,-0.04,-0.14,-0.25,0.53,0.47,0.42
88.97,0.52,0.13,0.44,0.05,0.05,-0.15,-0.30,0.57,0.49,0.39
89.86,0.19,-0.17,0.31,-0.05,0.14,-0.16,-0.34,0.32,0.44,0.36
90.76,0.16,-0.16,0.10,-0.23,0.24,-0.17,-0.39,0.40,0.34,0.32
91.66,-0.08,-0.37,-0.08,-0.37,0.34,-0.19,-0.44,0.27,0.26,0.30
92.58,-0.26,-0.52,-0.20,-0.46,0.46,-0.21,-0.49,0.20,0.26,0.26
93.51,-0.32,-0.55,-0.35,-0.58,0.56,-0.23,-0.55,0.24,0.21,0.23
94.44,-0.43,-0.63,-0.47,-0.67,0.64,-0.26,-0.60,0.21,0.17,0.21
95.39,-0.59,-0.78,-0.57,-0.75,0.70,-0.28,-0.65,0.10,0.13,0.18
96.34,-0.66,-0.80,-0.60,-0.75,0.72,-0.32,-0.70,0.06,0.12,0.14
97.30,-0.59,-0.71,-0.59,-0.71,0.71,-0.35,-0.75,0.11,0.12,0.12
98.28,-0.47,-0.55,-0.55,-0.64,0.67,-0.38,-0.80,0.20,0.12,0.09
99.26,-0.54,-0.61,-0.50,-0.56,0.60,-0.42,-0.85,0.07,0.11,0.07
100.25,-0.48,-0.52,-0.46,-0.50,0.50,-0.46,-0.90,0.03,0.04,0.04
101.25,-0.37,-0.39,-0.40,-0.41,0.37,-0.50,-0.96,-0.00,-0.02,0.01
102.27,-0.29,-0.27,-0.27,-0.25,0.22,-0.54,-1.01,-0.07,-0.05,-0.01
103.29,-0.12,-0.05,-0.11,-0.06,0.04,-0.58,-1.06,-0.07,-0.07,-0.06
104.32,0.07,0.15,0.06,0.15,-0.15,-0.63,-1.11,-0.09,-0.09,-0.08
105.37,0.25,0.37,0.24,0.36,-0.37,-0.67,-1.16,-0.12,-0.13,-0.12
106.42,0.43,0.58,0.43,0.58,-0.60,-0.72,-1.20,-0.17,-0.17,-0.15
107.48,0.61,0.79,0.65,0.84,-0.84,-0.77,-1.25,-0.23,-0.18,-0.19
108.56,0.86,1.09,0.85,1.07,-1.06,-0.81,-1.30,-0.20,-0.21,-0.22
109.64,1.08,1.35,1.01,1.27,-1.26,-0.86,-1.34,-0.18,-0.25,-0.26
110.74,1.12,1.41,1.20,1.50,-1.43,-0.91,-1.39,-0.31,-0.23,-0.29
111.85,1.29,1.61,1.33,1.66,-1.58,-0.96,-1.43,-0.28,-0.25,-0.32
112.97,1.52,1.89,1.39,1.75,-1.71,-1.00,-1.47,-0.18,-0.31,-0.37
114.10,1.41,1.79,1.43,1.82,-1.81,-1.05,-1.51,-0.41,-0.38,-0.38
115.24,1.36,1.79,1.46,1.88,-1.91,-1.10,-1.54,-0.54,-0.45,-0.42
116.39,1.47,1.92,1.46,1.91,-1.99,-1.14,-1.57,-0.52,-0.53,-0.45
117.55,1.62,2.10,1.51,1.99,-2.07,-1.18,-1.60,-0.45,-0.56,-0.47
118.73,1.52,2.03,1.63,2.13,-2.14,-1.23,-1.63,-0.62,-0.51,-0.50
119.92,1.65,2.16,1.72,2.23,-2.21,-1.27,-1.65,-0.56,-0.49,-0.51
121.12,1.93,2.47,1.77,2.30,-2.28,-1.31,-1.68,-0.34,-0.51,-0.53
122.33,1.79,2.33,1.85,2.39,-2.33,-1.34,-1.69,-0.54,-0.48,-0.55
123.55,1.77,2.33,1.82,2.38,-2.35,-1.38,-1.71,-0.58,-0.53,-0.55
124.79,1.83,2.41,1.77,2.34,-2.35,-1.41,-1.72,-0.51,-0.58,-0.58
126.03,1.70,2.30,1.77,2.36,-2.33,-1.45,-1.73,-0.62,-0.56,-0.59
127.29,1.74,2.35,1.71,2.32,-2.29,-1.47,-1.73,-0.55,-0.58,-0.61
128.57,1.64,2.27,1.59,2.22,-2.25,-1.50,-1.73,-0.61,-0.66,-0.63
129.85,1.45,2.10,1.49,2.13,-2.20,-1.53,-1.73,-0.74,-0.71,-0.64
131.15,1.35,2.01,1.41,2.07,-2.13,-1.55,-1.73,-0.78,-0.72,-0.65
132.46,1.39,2.06,1.40,2.06,-2.07,-1.57,-1.72,-0.67,-0.67,-0.67
133.79,1.45,2.12,1.40,2.07,-1.99,-1.59,-1.71,-0.54,-0.59,-0.67
135.12,1.34,2.04,1.33,2.01,-1.92,-1.61,-1.69,-0.57,-0.59,-0.70
136.48,1.19,1.88,1.18,1.89,-1.86,-1.62,-1.68,-0.68,-0.68,-0.70
137.84,0.99,1.71,1.02,1.75,-1.81,-1.63,-1.66,-0.82,-0.79,-0.72
139.22,0.91,1.66,0.94,1.68,-1.76,-1.64,-1.64,-0.85,-0.82,-0.75
140.61,0.88,1.65,0.89,1.64,-1.71,-1.65,-1.61,-0.83,-0.83,-0.77
142.02,0.94,1.71,0.89,1.66,-1.66,-1.65,-1.59,-0.72,-0.78,-0.76
143.44,0.81,1.60,0.90,1.68,-1.62,-1.66,-1.56,-0.81,-0.72,-0.78
144.87,0.90,1.71,0.86,1.66,-1.61,-1.66,-1.54,-0.70,-0.75,-0.81
146.32,0.83,1.67,0.76,1.59,-1.60,-1.66,-1.51,-0.77,-0.84,-0.84
147.78,0.62,1.49,0.70,1.57,-1.60,-1.65,-1.48,-0.98,-0.90,-0.86
149.26,0.56,1.46,0.61,1.51,-1.59,-1.65,-1.45,-1.02,-0.97,-0.90
150.75,0.64,1.60,0.56,1.50,-1.55,-1.64,-1.42,-0.90,-0.99,-0.95
152.26,0.49,1.49,0.54,1.54,-1.49,-1.64,-1.39,-0.99,-0.94,-1.00
153.78,0.43,1.48,0.44,1.49,-1.40,-1.63,-1.36,-0.96,-0.96,-1.05
155.32,0.33,1.45,0.26,1.37,-1.29,-1.62,-1.33,-0.95,-1.03,-1.11
156.88,0.01,1.17,0.06,1.23,-1.16,-1.61,-1.30,-1.15,-1.09,-1.16
158.44,-0.21,1.03,-0.21,1.02,-1.00,-1.59,-1.27,-1.20,-1.21,-1.24
160.03,-0.45,0.85,-0.49,0.81,-0.83,-1.58,-1.24,-1.27,-1.32,-1.30
161.63,-0.77,0.58,-0.71,0.64,-0.66,-1.57,-1.21,-1.43,-1.38,-1.35
163.24,-0.93,0.48,-0.91,0.49,-0.53,-1.55,-1.18,-1.45,-1.44,-1.41
164.88,-1.04,0.40,-1.09,0.35,-0.44,-1.54,-1.15,-1.47,-1.53,-1.44
166.53,-1.19,0.29,-1.18,0.30,-0.39,-1.52,-1.12,-1.58,-1.57,-1.48
168.19,-1.28,0.23,-1.21,0.30,-0.38,-1.50,-1.09,-1.66,-1.59,-1.51
169.87,-1.13,0.41,-1.15,0.39,-0.41,-1.48,-1.07,-1.53,-1.55,-1.53
171.57,-1.04,0.52,-1.02,0.53,-0.47,-1.47,-1.04,-1.50,-1.49,-1.55
173.29,-0.85,0.71,-0.91,0.65,-0.55,-1.45,-1.01,-1.40,-1.46,-1.56
175.02,-0.86,0.71,-0.86,0.71,-0.65,-1.43,-0.99,-1.50,-1.51,-1.57
176.77,-0.86,0.72,-0.82,0.75,-0.75,-1.41,-0.97,-1.61,-1.58,-1.57
178.54,-0.80,0.78,-0.77,0.80,-0.86,-1.39,-0.94,-1.65,-1.63,-1.58
180.32,-0.64,0.92,-0.64,0.93,-0.97,-1.37,-0.92,-1.61,-1.61,-1.56
182.13,-0.49,1.07,-0.52,1.04,-1.07,-1.35,-0.90,-1.55,-1.59,-1.56
183.95,-0.40,1.17,-0.42,1.14,-1.15,-1.33,-0.88,-1.55,-1.57,-1.56
185.79,-0.39,1.18,-0.33,1.24,-1.22,-1.31,-0.86,-1.61,-1.55,-1.57
187.65,-0.26,1.32,-0.24,1.33,-1.28,-1.29,-0.84,-1.54,-1.53,-1.58
189.52,-0.15,1.44,-0.17,1.42,-1.33,-1.27,-0.82,-1.48,-1.50,-1.58
191.42,-0.13,1.47,-0.16,1.43,-1.37,-1.25,-0.81,-1.50,-1.53,-1.60
193.33,-0.22,1.39,-0.25,1.35,-1.38,-1.23,-0.79,-1.60,-1.64,-1.61
195.27,-0.41,1.21,-0.33,1.29,-1.37,-1.21,-0.77,-1.79,-1.71,-1.62
197.22,-0.42,1.23,-0.36,1.28,-1.34,-1.19,-0.76,-1.76,-1.70,-1.64
199.19,-0.29,1.38,-0.35,1.31,-1.29,-1.18,-0.74,-1.58,-1.65,-1.66
201.18,-0.32,1.36,-0.35,1.32,-1.24,-1.16,-0.73,-1.55,-1.59,-1.67
203.19,-0.46,1.23,-0.44,1.25,-1.18,-1.14,-0.72,-1.63,-1.62,-1.68
205.23,-0.59,1.13,-0.57,1.13,-1.13,-1.12,-0.70,-1.72,-1.70,-1.71
207.28,-0.70,1.02,-0.67,1.06,-1.10,-1.10,-0.69,-1.80,-1.77,-1.71
209.35,-0.73,1.02,-0.75,0.99,-1.07,-1.08,-0.68,-1.80,-1.82,-1.74
211.44,-0.77,1.00,-0.80,0.96,-1.04,-1.07,-0.67,-1.81,-1.84,-1.76
213.56,-0.87,0.91,-0.79,0.98,-1.01,-1.05,-0.66,-1.87,-1.79,-1.77
215.69,-0.76,1.03,-0.76,1.03,-0.98,-1.03,-0.65,-1.74,-1.74,-1.78
217.85,-0.69,1.10,-0.74,1.05,-0.97,-1.02,-0.64,-1.66,-1.71,-1.79
220.03,-0.75,1.06,-0.78,1.02,-0.96,-1.00,-0.63,-1.71,-1.75,-1.81
222.23,-0.90,0.92,-0.86,0.94,-0.95,-0.98,-0.63,-1.85,-1.81,-1.81
224.45,-0.99,0.82,-0.91,0.90,-0.93,-0.97,-0.62,-1.92,-1.84,-1.80
226.70,-0.89,0.91,-0.92,0.88,-0.91,-0.95,-0.61,-1.79,-1.83,-1.80
228.96,-0.87,0.93,-0.92,0.87,-0.88,-0.94,-0.61,-1.74,-1.80,-1.80
231.25,-0.96,0.83,-0.93,0.85,-0.85,-0.92,-0.60,-1.80,-1.78,-1.78
233.57,-0.99,0.78,-0.96,0.81,-0.82,-0.91,-0.59,-1.81,-1.78,-1.77
235.90,-0.97,0.79,-0.96,0.80,-0.80,-0.89,-0.59,-1.77,-1.76,-1.76
238.26,-0.90,0.84,-0.93,0.81,-0.79,-0.88,-0.58,-1.68,-1.71,-1.73
240.64,-0.92,0.79,-0.92,0.78,-0.77,-0.87,-0.58,-1.68,-1.69,-1.71
243.05,-0.93,0.75,-0.92,0.75,-0.75,-0.85,-0.58,-1.68,-1.67,-1.67
245.48,-0.97,0.68,-0.92,0.73,-0.74,-0.84,-0.57,-1.70,-1.65,-1.65
247.93,-0.87,0.76,-0.91,0.71,-0.73,-0.83,-0.57,-1.59,-1.64,-1.62
250.41,-0.89,0.72,-0.90,0.70,-0.72,-0.82,-0.57,-1.61,-1.62,-1.61
252.92,-0.93,0.65,-0.87,0.70,-0.72,-0.81,-0.56,-1.64,-1.59,-1.57
255.45,-0.85,0.70,-0.86,0.69,-0.70,-0.80,-0.56,-1.55,-1.56,-1.55
258.00,-0.82,0.72,-0.83,0.70,-0.69,-0.78,-0.56,-1.50,-1.52,-1.53
260.58,-0.81,0.71,-0.79,0.72,-0.67,-0.77,-0.56,-1.47,-1.46,-1.52
263.19,-0.81,0.69,-0.80,0.69,-0.65,-0.77,-0.56,-1.46,-1.45,-1.49
265.82,-0.81,0.67,-0.84,0.63,-0.63,-0.76,-0.55,-1.44,-1.47,-1.48
268.48,-0.89,0.56,-0.87,0.58,-0.61,-0.75,-0.55,-1.50,-1.48,-1.45
271.16,-0.92,0.51,-0.88,0.55,-0.59,-0.74,-0.55,-1.50,-1.47,-1.42
273.87,-0.87,0.54,-0.87,0.53,-0.57,-0.73,-0.55,-1.43,-1.44,-1.41
276.61,-0.82,0.56,-0.84,0.54,-0.54,-0.72,-0.55,-1.36,-1.38,-1.38
279.38,-0.82,0.54,-0.81,0.54,-0.52,-0.72,-0.55,-1.34,-1.34,-1.35
282.17,-0.82,0.52,-0.81,0.52,-0.50,-0.71,-0.55,-1.31,-1.31,-1.34
284.99,-0.82,0.48,-0.81,0.49,-0.47,-0.70,-0.56,-1.29,-1.28,-1.30
287.84,-0.81,0.47,-0.80,0.47,-0.44,-0.70,-0.56,-1.25,-1.25,-1.27
290.72,-0.80,0.44,-0.82,0.42,-0.41,-0.69,-0.56,-1.21,-1.23,-1.24
293.63,-0.84,0.37,-0.84,0.36,-0.38,-0.69,-0.56,-1.21,-1.22,-1.21
296.57,-0.90,0.28,-0.87,0.31,-0.34,-0.69,-0.56,-1.24,-1.21,-1.17
299.53,-0.88,0.28,-0.87,0.28,-0.31,-0.68,-0.57,-1.18,-1.18,-1.15
302.53,-0.85,0.28,-0.86,0.26,-0.27,-0.68,-0.57,-1.12,-1.13,-1.13
305.55,-0.84,0.25,-0.83,0.26,-0.25,-0.68,-0.58,-1.08,-1.08,-1.09
308.61,-0.83,0.25,-0.82,0.25,-0.22,-0.68,-0.58,-1.05,-1.05,-1.07
311.69,-0.82,0.24,-0.82,0.23,-0.21,-0.68,-0.59,-1.03,-1.03,-1.05
314.81,-0.82,0.20,-0.82,0.20,-0.20,-0.68,-0.59,-1.02,-1.03,-1.02
317.96,-0.83,0.18,-0.83,0.17,-0.20,-0.68,-0.60,-1.02,-1.03,-1.01
321.14,-0.85,0.14,-0.82,0.17,-0.19,-0.69,-0.60,-1.03,-1.01,-0.99
324.35,-0.80,0.19,-0.79,0.19,-0.18,-0.69,-0.61,-0.97,-0.97,-0.98
327.59,-0.73,0.24,-0.75,0.22,-0.17,-0.69,-0.62,-0.90,-0.92,-0.96
330.87,-0.72,0.24,-0.73,0.23,-0.18,-0.70,-0.63,-0.90,-0.91,-0.96
334.18,-0.72,0.23,-0.71,0.23,-0.22,-0.71,-0.64,-0.93,-0.93,-0.95
337.52,-0.72,0.22,-0.70,0.24,-0.29,-0.72,-0.65,-1.00,-0.98,-0.94
340.90,-0.63,0.30,-0.65,0.28,-0.39,-0.73,-0.66,-1.01,-1.03,-0.92
344.30,-0.54,0.38,-0.52,0.39,-0.50,-0.74,-0.67,-1.04,-1.03,-0.91
347.75,-0.38,0.53,-0.32,0.58,-0.63,-0.75,-0.68,-1.00,-0.95,-0.90
351.23,-0.08,0.82,-0.10,0.79,-0.76,-0.77,-0.69,-0.84,-0.87,-0.90
354.74,0.14,1.04,0.11,1.01,-0.90,-0.78,-0.70,-0.76,-0.79,-0.90
358.28,0.25,1.14,0.26,1.15,-1.04,-0.80,-0.71,-0.78,-0.77,-0.89
361.87,0.34,1.23,0.33,1.21,-1.17,-0.82,-0.73,-0.82,-0.84,-0.89
365.49,0.35,1.24,0.36,1.24,-1.28,-0.84,-0.74,-0.92,-0.92,-0.88
369.14,0.37,1.26,0.41,1.29,-1.35,-0.86,-0.75,-0.98,-0.95,-0.88
372.83,0.47,1.36,0.48,1.36,-1.41,-0.89,-0.77,-0.93,-0.93,-0.88
376.56,0.57,1.46,0.56,1.44,-1.44,-0.91,-0.78,-0.86,-0.88,-0.88
380.33,0.62,1.49,0.61,1.49,-1.45,-0.94,-0.80,-0.82,-0.84,-0.87
384.13,0.61,1.49,0.61,1.49,-1.45,-0.97,-0.82,-0.84,-0.84,-0.88
387.97,0.57,1.45,0.59,1.46,-1.44,-1.00,-0.83,-0.87,-0.85,-0.88
391.85,0.54,1.42,0.55,1.42,-1.42,-1.03,-0.85,-0.87,-0.87,-0.88
395.77,0.50,1.37,0.50,1.37,-1.37,-1.06,-0.87,-0.87,-0.87,-0.87
399.73,0.44,1.31,0.44,1.31,-1.31,-1.09,-0.88,-0.87,-0.87,-0.87
403.72,0.36,1.25,0.36,1.23,-1.25,-1.11,-0.90,-0.88,-0.89,-0.88
407.76,0.27,1.16,0.28,1.16,-1.18,-1.14,-0.92,-0.90,-0.90,-0.88
411.84,0.20,1.08,0.23,1.11,-1.12,-1.16,-0.94,-0.91,-0.89,-0.87
415.96,0.19,1.08,0.18,1.06,-1.07,-1.17,-0.95,-0.87,-0.89,-0.88
420.12,0.16,1.05,0.13,1.02,-1.02,-1.18,-0.97,-0.86,-0.89,-0.88
424.32,0.06,0.94,0.09,0.97,-0.98,-1.19,-0.99,-0.92,-0.89,-0.88
428.56,0.05,0.93,0.06,0.94,-0.96,-1.19,-1.01,-0.90,-0.89,-0.88
432.85,0.06,0.92,0.08,0.93,-0.94,-1.18,-1.02,-0.87,-0.86,-0.86
437.18,0.12,0.96,0.11,0.94,-0.92,-1.17,-1.04,-0.80,-0.82,-0.84
441.55,0.14,0.94,0.12,0.92,-0.91,-1.15,-1.05,-0.76,-0.79,-0.80
445.96,0.10,0.87,0.13,0.90,-0.89,-1.12,-1.07,-0.79,-0.77,-0.77
450.42,0.12,0.86,0.15,0.88,-0.88,-1.09,-1.08,-0.76,-0.73,-0.74
454.93,0.19,0.87,0.19,0.87,-0.87,-1.06,-1.09,-0.67,-0.68,-0.68
459.48,0.26,0.90,0.23,0.86,-0.86,-1.02,-1.11,-0.59,-0.63,-0.64
464.07,0.24,0.83,0.26,0.84,-0.84,-0.98,-1.12,-0.60,-0.58,-0.58
468.71,0.26,0.80,0.28,0.81,-0.83,-0.94,-1.12,-0.57,-0.55,-0.53
