frequency,raw,error,smoothed,error_smoothed,equalization,parametric_eq,fixed_band_eq,equalized_raw,equalized_smoothed,target
20.00,12.20,2.49,12.20,2.48,-2.49,-2.66,-1.30,9.71,9.71,9.71
20.20,12.22,2.52,12.22,2.52,-2.53,-2.66,-1.34,9.69,9.69,9.70
20.40,12.24,2.56,12.24,2.56,-2.56,-2.66,-1.38,9.68,9.68,9.68
20.61,12.26,2.59,12.26,2.59,-2.59,-2.67,-1.42,9.67,9.67,9.67
20.81,12.28,2.63,12.28,2.63,-2.62,-2.67,-1.46,9.66,9.66,9.65
21.02,12.30,2.66,12.29,2.65,-2.64,-2.68,-1.50,9.65,9.65,9.64
21.23,12.30,2.67,12.30,2.67,-2.67,-2.68,-1.54,9.63,9.63,9.63
21.44,12.30,2.68,12.30,2.69,-2.68,-2.69,-1.59,9.61,9.62,9.62
21.66,12.30,2.70,12.30,2.70,-2.70,-2.69,-1.63,9.60,9.60,9.60
21.87,12.30,2.70,12.30,2.71,-2.70,-2.70,-1.68,9.59,9.59,9.60
22.09,12.30,2.71,12.30,2.71,-2.71,-2.70,-1.73,9.59,9.59,9.59
22.31,12.30,2.72,12.30,2.72,-2.72,-2.71,-1.78,9.58,9.58,9.57
22.54,12.29,2.72,12.29,2.73,-2.73,-2.71,-1.83,9.56,9.56,9.56
22.76,12.29,2.73,12.29,2.73,-2.74,-2.72,-1.88,9.55,9.55,9.55
22.99,12.29,2.74,12.29,2.74,-2.75,-2.72,-1.93,9.53,9.54,9.55
23.22,12.31,2.77,12.31,2.77,-2.77,-2.73,-1.99,9.54,9.54,9.54
23.45,12.34,2.80,12.33,2.79,-2.79,-2.74,-2.04,9.55,9.54,9.54
23.69,12.36,2.82,12.36,2.82,-2.81,-2.74,-2.10,9.54,9.54,9.54
23.92,12.38,2.84,12.38,2.84,-2.84,-2.75,-2.16,9.54,9.54,9.54
24.16,12.40,2.86,12.40,2.86,-2.86,-2.75,-2.22,9.54,9.54,9.54
24.40,12.43,2.89,12.43,2.89,-2.89,-2.76,-2.28,9.54,9.54,9.54
24.65,12.45,2.91,12.45,2.91,-2.91,-2.77,-2.34,9.54,9.54,9.54
24.89,12.47,2.93,12.47,2.93,-2.92,-2.77,-2.40,9.54,9.54,9.54
25.14,12.48,2.94,12.48,2.94,-2.94,-2.78,-2.46,9.54,9.54,9.54
25.39,12.48,2.94,12.48,2.95,-2.95,-2.79,-2.52,9.53,9.53,9.53
25.65,12.49,2.96,12.49,2.96,-2.96,-2.79,-2.59,9.53,9.53,9.52
25.91,12.49,2.97,12.49,2.97,-2.97,-2.80,-2.65,9.52,9.52,9.52
26.16,12.49,2.98,12.49,2.98,-2.98,-2.81,-2.71,9.51,9.51,9.51
26.43,12.49,2.98,12.49,2.98,-2.98,-2.81,-2.78,9.51,9.51,9.51
26.69,12.49,2.99,12.49,2.99,-2.99,-2.82,-2.84,9.50,9.50,9.50
26.96,12.49,3.00,12.49,3.00,-3.00,-2.83,-2.90,9.49,9.49,9.49
27.23,12.49,3.00,12.49,3.01,-3.01,-2.83,-2.96,9.48,9.48,9.49
27.50,12.49,3.01,12.49,3.01,-3.02,-2.84,-3.02,9.47,9.47,9.48
27.77,12.49,3.03,12.49,3.02,-3.03,-2.85,-3.08,9.46,9.46,9.46
28.05,12.49,3.04,12.49,3.03,-3.03,-2.86,-3.13,9.46,9.46,9.45
28.33,12.49,3.04,12.49,3.04,-3.03,-2.87,-3.18,9.46,9.46,9.45
28.62,12.49,3.04,12.49,3.04,-3.03,-2.87,-3.24,9.46,9.46,9.45
28.90,12.49,3.05,12.49,3.04,-3.02,-2.88,-3.28,9.47,9.46,9.44
29.19,12.48,3.03,12.47,3.03,-3.02,-2.89,-3.33,9.46,9.45,9.45
29.48,12.46,3.01,12.45,3.01,-3.03,-2.90,-3.37,9.43,9.43,9.44
29.78,12.44,3.00,12.44,3.00,-3.03,-2.91,-3.41,9.40,9.41,9.44
30.08,12.44,3.00,12.45,3.01,-3.05,-2.92,-3.44,9.39,9.40,9.44
30.38,12.49,3.05,12.49,3.05,-3.06,-2.93,-3.48,9.43,9.42,9.44
30.68,12.53,3.09,12.53,3.09,-3.08,-2.93,-3.50,9.45,9.45,9.44
30.99,12.58,3.14,12.56,3.13,-3.10,-2.94,-3.53,9.48,9.46,9.43
31.30,12.58,3.15,12.58,3.15,-3.12,-2.95,-3.54,9.46,9.46,9.43
31.61,12.58,3.15,12.58,3.15,-3.14,-2.96,-3.56,9.44,9.44,9.43
31.93,12.58,3.15,12.58,3.15,-3.16,-2.97,-3.57,9.42,9.42,9.43
32.24,12.58,3.16,12.58,3.16,-3.17,-2.98,-3.58,9.41,9.41,9.42
32.57,12.58,3.17,12.58,3.17,-3.17,-2.99,-3.58,9.41,9.41,9.41
32.89,12.58,3.17,12.58,3.17,-3.17,-3.00,-3.58,9.41,9.41,9.41
33.22,12.58,3.17,12.58,3.17,-3.17,-3.01,-3.58,9.40,9.40,9.41
33.55,12.58,3.17,12.58,3.18,-3.18,-3.02,-3.57,9.40,9.40,9.40
33.89,12.58,3.19,12.58,3.18,-3.18,-3.03,-3.56,9.40,9.40,9.39
34.23,12.58,3.19,12.58,3.19,-3.19,-3.05,-3.55,9.39,9.39,9.39
34.57,12.58,3.19,12.58,3.19,-3.19,-3.06,-3.53,9.39,9.39,9.39
34.92,12.58,3.20,12.58,3.20,-3.20,-3.07,-3.52,9.38,9.38,9.38
35.27,12.58,3.20,12.58,3.20,-3.20,-3.08,-3.50,9.38,9.38,9.38
35.62,12.58,3.20,12.58,3.21,-3.21,-3.09,-3.48,9.37,9.37,9.38
35.97,12.58,3.22,12.58,3.21,-3.21,-3.10,-3.46,9.37,9.37,9.36
36.33,12.58,3.22,12.58,3.22,-3.22,-3.11,-3.44,9.36,9.36,9.36
36.70,12.58,3.22,12.58,3.23,-3.22,-3.13,-3.41,9.35,9.35,9.35
37.06,12.58,3.23,12.58,3.23,-3.23,-3.14,-3.39,9.35,9.35,9.35
37.43,12.58,3.24,12.58,3.24,-3.24,-3.15,-3.37,9.34,9.34,9.34
37.81,12.58,3.25,12.58,3.25,-3.25,-3.16,-3.35,9.33,9.33,9.33
38.19,12.58,3.26,12.58,3.26,-3.26,-3.18,-3.33,9.32,9.32,9.32
38.57,12.58,3.28,12.58,3.27,-3.27,-3.19,-3.31,9.30,9.30,9.30
38.95,12.58,3.29,12.58,3.29,-3.29,-3.20,-3.29,9.29,9.29,9.29
39.34,12.58,3.30,12.58,3.30,-3.30,-3.22,-3.27,9.28,9.28,9.28
39.74,12.58,3.31,12.58,3.31,-3.31,-3.23,-3.25,9.27,9.27,9.27
40.14,12.58,3.33,12.58,3.33,-3.32,-3.24,-3.24,9.25,9.25,9.25
40.54,12.58,3.34,12.58,3.34,-3.34,-3.26,-3.23,9.24,9.24,9.24
40.94,12.58,3.35,12.58,3.35,-3.35,-3.27,-3.22,9.23,9.23,9.23
41.35,12.58,3.35,12.58,3.35,-3.35,-3.29,-3.21,9.22,9.22,9.22
41.76,12.58,3.36,12.58,3.36,-3.36,-3.30,-3.20,9.22,9.22,9.22
42.18,12.58,3.37,12.58,3.37,-3.37,-3.31,-3.19,9.21,9.21,9.21
42.60,12.58,3.37,12.58,3.37,-3.37,-3.33,-3.19,9.20,9.20,9.20
43.03,12.58,3.38,12.58,3.38,-3.38,-3.34,-3.19,9.20,9.20,9.20
43.46,12.58,3.39,12.58,3.38,-3.38,-3.36,-3.19,9.19,9.19,9.19
43.90,12.58,3.39,12.58,3.39,-3.39,-3.38,-3.20,9.19,9.19,9.19
44.33,12.58,3.39,12.58,3.39,-3.40,-3.39,-3.21,9.18,9.18,9.19
44.78,12.58,3.40,12.58,3.40,-3.40,-3.41,-3.22,9.18,9.18,9.18
45.23,12.58,3.41,12.58,3.41,-3.41,-3.42,-3.23,9.17,9.17,9.17
45.68,12.58,3.42,12.58,3.42,-3.42,-3.44,-3.24,9.16,9.16,9.16
46.13,12.58,3.43,12.58,3.43,-3.43,-3.46,-3.26,9.15,9.15,9.15
46.60,12.58,3.44,12.58,3.44,-3.44,-3.47,-3.28,9.14,9.14,9.14
47.06,12.58,3.45,12.58,3.45,-3.45,-3.49,-3.30,9.13,9.13,9.13
47.53,12.58,3.46,12.58,3.46,-3.46,-3.51,-3.32,9.12,9.12,9.12
48.01,12.58,3.48,12.58,3.47,-3.48,-3.52,-3.35,9.10,9.10,9.10
48.49,12.58,3.49,12.58,3.49,-3.49,-3.54,-3.37,9.09,9.09,9.09
48.97,12.58,3.51,12.58,3.51,-3.50,-3.56,-3.40,9.08,9.08,9.07
49.46,12.58,3.52,12.58,3.52,-3.51,-3.58,-3.44,9.06,9.06,9.06
49.96,12.58,3.53,12.58,3.53,-3.53,-3.59,-3.47,9.05,9.05,9.05
50.46,12.58,3.54,12.58,3.54,-3.54,-3.61,-3.50,9.04,9.04,9.04
50.96,12.58,3.55,12.58,3.55,-3.55,-3.63,-3.54,9.03,9.03,9.03
51.47,12.58,3.56,12.58,3.56,-3.57,-3.65,-3.58,9.01,9.01,9.02
51.99,12.58,3.57,12.58,3.57,-3.58,-3.67,-3.62,9.00,9.00,9.01
52.51,12.58,3.60,12.58,3.59,-3.60,-3.69,-3.66,8.98,8.98,8.98
53.03,12.58,3.61,12.58,3.61,-3.61,-3.71,-3.70,8.97,8.97,8.97
53.56,12.58,3.63,12.58,3.63,-3.62,-3.73,-3.74,8.96,8.96,8.95
54.10,12.58,3.64,12.58,3.65,-3.63,-3.74,-3.78,8.95,8.95,8.94
54.64,12.58,3.66,12.58,3.65,-3.63,-3.76,-3.82,8.95,8.94,8.92
55.18,12.57,3.66,12.56,3.65,-3.64,-3.78,-3.86,8.93,8.92,8.90
55.74,12.52,3.63,12.52,3.64,-3.64,-3.80,-3.90,8.88,8.89,8.89
56.29,12.49,3.62,12.49,3.62,-3.64,-3.82,-3.94,8.85,8.85,8.87
56.86,12.47,3.62,12.47,3.62,-3.65,-3.84,-3.98,8.82,8.83,8.85
57.42,12.47,3.63,12.47,3.64,-3.66,-3.86,-4.02,8.81,8.81,8.83
58.00,12.49,3.67,12.48,3.67,-3.68,-3.89,-4.05,8.81,8.80,8.81
58.58,12.49,3.69,12.49,3.69,-3.70,-3.91,-4.09,8.79,8.79,8.79
59.16,12.49,3.71,12.49,3.71,-3.71,-3.93,-4.12,8.77,8.77,8.77
59.76,12.49,3.74,12.51,3.75,-3.73,-3.95,-4.15,8.76,8.77,8.75
60.35,12.51,3.78,12.52,3.78,-3.74,-3.97,-4.18,8.76,8.77,8.73
60.96,12.55,3.83,12.50,3.78,-3.76,-3.99,-4.20,8.79,8.75,8.72
61.57,12.46,3.76,12.47,3.77,-3.76,-4.01,-4.22,8.70,8.70,8.70
62.18,12.39,3.72,12.42,3.75,-3.77,-4.03,-4.24,8.62,8.65,8.67
62.80,12.39,3.75,12.38,3.74,-3.78,-4.06,-4.26,8.61,8.60,8.64
63.43,12.39,3.78,12.38,3.77,-3.79,-4.08,-4.27,8.59,8.59,8.61
64.07,12.39,3.81,12.39,3.81,-3.81,-4.10,-4.28,8.58,8.58,8.58
64.71,12.39,3.84,12.39,3.84,-3.83,-4.12,-4.29,8.55,8.55,8.55
65.35,12.39,3.88,12.39,3.87,-3.87,-4.14,-4.30,8.52,8.52,8.51
66.01,12.39,3.90,12.39,3.91,-3.91,-4.17,-4.30,8.48,8.48,8.48
66.67,12.39,3.94,12.39,3.94,-3.94,-4.19,-4.30,8.44,8.44,8.45
67.33,12.39,3.97,12.39,3.98,-3.98,-4.21,-4.30,8.41,8.41,8.42
68.01,12.39,4.01,12.39,4.01,-4.01,-4.23,-4.30,8.38,8.38,8.37
68.69,12.39,4.04,12.40,4.06,-4.04,-4.26,-4.30,8.35,8.36,8.34
69.37,12.39,4.09,12.38,4.07,-4.06,-4.28,-4.29,8.33,8.31,8.30
70.07,12.38,4.11,12.34,4.07,-4.09,-4.30,-4.29,8.29,8.26,8.27
70.77,12.27,4.04,12.32,4.09,-4.10,-4.32,-4.28,8.16,8.21,8.23
71.48,12.29,4.10,12.31,4.12,-4.12,-4.35,-4.28,8.17,8.19,8.19
72.19,12.34,4.19,12.29,4.15,-4.14,-4.37,-4.27,8.20,8.16,8.15
72.91,12.29,4.18,12.28,4.17,-4.15,-4.39,-4.27,8.14,8.13,8.11
73.64,12.23,4.16,12.25,4.17,-4.17,-4.42,-4.26,8.06,8.08,8.07
74.38,12.20,4.16,12.21,4.17,-4.20,-4.44,-4.26,8.00,8.01,8.03
75.12,12.20,4.20,12.19,4.20,-4.23,-4.46,-4.26,7.97,7.97,8.00
75.87,12.20,4.25,12.20,4.25,-4.26,-4.49,-4.25,7.94,7.93,7.95
76.63,12.20,4.29,12.20,4.29,-4.30,-4.51,-4.26,7.90,7.90,7.91
77.40,12.20,4.33,12.20,4.33,-4.33,-4.53,-4.26,7.87,7.87,7.87
78.17,12.20,4.37,12.20,4.38,-4.36,-4.56,-4.26,7.84,7.85,7.82
78.95,12.20,4.42,12.20,4.42,-4.38,-4.58,-4.27,7.82,7.82,7.78
79.74,12.19,4.45,12.18,4.44,-4.41,-4.60,-4.28,7.78,7.77,7.74
80.54,12.14,4.44,12.13,4.44,-4.42,-4.63,-4.29,7.71,7.71,7.69
81.35,12.07,4.42,12.08,4.43,-4.44,-4.65,-4.31,7.63,7.63,7.65
82.16,12.02,4.41,12.03,4.43,-4.46,-4.68,-4.33,7.56,7.57,7.60
82.98,12.01,4.46,12.01,4.46,-4.49,-4.70,-4.35,7.52,7.52,7.55
83.81,12.01,4.51,12.00,4.50,-4.52,-4.72,-4.37,7.49,7.48,7.50
84.65,12.01,4.56,12.01,4.56,-4.56,-4.75,-4.40,7.45,7.45,7.45
85.50,12.01,4.61,12.01,4.61,-4.61,-4.77,-4.43,7.40,7.40,7.39
86.35,12.01,4.66,12.01,4.67,-4.66,-4.80,-4.46,7.35,7.35,7.34
87.22,12.01,4.72,12.01,4.73,-4.71,-4.82,-4.50,7.30,7.30,7.28
88.09,12.01,4.77,12.01,4.78,-4.76,-4.84,-4.54,7.25,7.25,7.23
88.97,12.01,4.84,11.99,4.82,-4.79,-4.87,-4.59,7.22,7.20,7.17
89.86,11.95,4.84,11.96,4.84,-4.82,-4.89,-4.63,7.12,7.14,7.11
90.76,11.92,4.86,11.91,4.86,-4.86,-4.92,-4.69,7.06,7.06,7.06
91.66,11.87,4.87,11.87,4.87,-4.90,-4.94,-4.74,6.97,6.97,7.00
92.58,11.83,4.89,11.84,4.90,-4.94,-4.97,-4.80,6.89,6.90,6.93
93.51,11.82,4.95,11.82,4.95,-4.99,-4.99,-4.86,6.83,6.83,6.87
94.44,11.82,5.01,11.81,5.01,-5.03,-5.02,-4.92,6.79,6.78,6.81
95.39,11.82,5.08,11.83,5.08,-5.08,-5.04,-4.99,6.74,6.75,6.74
96.34,11.83,5.15,11.84,5.16,-5.12,-5.06,-5.06,6.71,6.72,6.68
97.30,11.84,5.24,11.82,5.22,-5.15,-5.09,-5.13,6.68,6.67,6.60
98.28,11.79,5.25,11.77,5.24,-5.19,-5.11,-5.21,6.60,6.58,6.54
99.26,11.68,5.22,11.68,5.22,-5.23,-5.14,-5.29,6.45,6.45,6.46
100.25,11.59,5.20,11.60,5.21,-5.27,-5.16,-5.37,6.32,6.33,6.39
101.25,11.53,5.22,11.55,5.24,-5.31,-5.19,-5.45,6.22,6.24,6.31
102.27,11.54,5.31,11.53,5.29,-5.34,-5.21,-5.54,6.20,6.19,6.23
103.29,11.53,5.37,11.53,5.38,-5.36,-5.24,-5.62,6.16,6.17,6.16
104.32,11.53,5.45,11.53,5.45,-5.39,-5.27,-5.71,6.14,6.14,6.08
105.37,11.51,5.51,11.49,5.49,-5.42,-5.29,-5.80,6.09,6.07,5.99
106.42,11.42,5.50,11.41,5.49,-5.46,-5.32,-5.88,5.96,5.95,5.92
107.48,11.31,5.47,11.32,5.48,-5.50,-5.34,-5.97,5.81,5.82,5.84
108.56,11.22,5.45,11.24,5.47,-5.53,-5.37,-6.05,5.69,5.70,5.77
109.64,11.19,5.50,11.19,5.50,-5.56,-5.39,-6.14,5.63,5.63,5.69
110.74,11.18,5.56,11.17,5.55,-5.58,-5.42,-6.22,5.60,5.59,5.62
111.85,11.17,5.62,11.19,5.64,-5.61,-5.44,-6.30,5.56,5.58,5.55
112.97,11.19,5.71,11.18,5.70,-5.64,-5.47,-6.38,5.55,5.54,5.48
114.10,11.19,5.77,11.15,5.73,-5.68,-5.50,-6.45,5.51,5.47,5.42
115.24,11.07,5.72,11.08,5.72,-5.72,-5.52,-6.52,5.34,5.35,5.35
116.39,10.99,5.70,11.00,5.71,-5.76,-5.55,-6.58,5.23,5.24,5.29
117.55,10.93,5.70,10.96,5.73,-5.78,-5.57,-6.64,5.14,5.18,5.23
118.73,10.97,5.80,10.97,5.80,-5.80,-5.60,-6.69,5.17,5.17,5.17
119.92,11.02,5.90,10.98,5.87,-5.81,-5.62,-6.73,5.20,5.16,5.12
121.12,10.96,5.91,10.95,5.89,-5.84,-5.65,-6.77,5.12,5.11,5.05
122.33,10.88,5.88,10.88,5.88,-5.88,-5.67,-6.80,5.00,5.00,5.00
123.55,10.80,5.84,10.82,5.87,-5.92,-5.70,-6.83,4.88,4.90,4.96
124.79,10.79,5.88,10.80,5.90,-5.96,-5.72,-6.84,4.83,4.84,4.91
126.03,10.83,5.98,10.82,5.96,-5.99,-5.75,-6.85,4.84,4.83,4.85
127.29,10.86,6.05,10.87,6.06,-6.02,-5.77,-6.84,4.84,4.85,4.81
128.57,10.88,6.12,10.87,6.12,-6.05,-5.79,-6.84,4.83,4.82,4.76
129.85,10.88,6.17,10.82,6.11,-6.08,-5.82,-6.82,4.80,4.74,4.71
131.15,10.72,6.06,10.75,6.09,-6.10,-5.84,-6.80,4.62,4.65,4.66
132.46,10.66,6.04,10.70,6.09,-6.11,-5.86,-6.77,4.54,4.59,4.61
133.79,10.68,6.12,10.67,6.11,-6.12,-5.89,-6.74,4.56,4.55,4.56
135.12,10.70,6.19,10.64,6.12,-6.12,-5.91,-6.69,4.58,4.52,4.51
136.48,10.58,6.11,10.58,6.12,-6.11,-5.93,-6.65,4.47,4.47,4.47
137.84,10.46,6.05,10.53,6.11,-6.11,-5.95,-6.60,4.34,4.41,4.41
139.22,10.49,6.12,10.47,6.10,-6.12,-5.97,-6.54,4.37,4.35,4.37
140.61,10.49,6.17,10.45,6.13,-6.13,-5.99,-6.48,4.36,4.32,4.32
142.02,10.39,6.12,10.43,6.16,-6.15,-6.01,-6.42,4.24,4.28,4.26
143.44,10.39,6.18,10.37,6.15,-6.17,-6.03,-6.36,4.22,4.21,4.21
144.87,10.34,6.17,10.32,6.16,-6.18,-6.05,-6.30,4.16,4.14,4.17
146.32,10.28,6.16,10.31,6.20,-6.20,-6.07,-6.23,4.08,4.11,4.12
147.78,10.30,6.23,10.30,6.23,-6.22,-6.08,-6.17,4.08,4.08,4.06
149.26,10.32,6.30,10.29,6.27,-6.24,-6.10,-6.10,4.08,4.05,4.02
150.75,10.26,6.29,10.25,6.28,-6.26,-6.11,-6.04,4.00,3.99,3.97
152.26,10.18,6.26,10.18,6.25,-6.27,-6.13,-5.98,3.91,3.91,3.92
153.78,10.09,6.20,10.13,6.25,-6.27,-6.14,-5.92,3.81,3.86,3.89
155.32,10.11,6.27,10.12,6.28,-6.28,-6.15,-5.86,3.83,3.84,3.84
156.88,10.15,6.35,10.09,6.29,-6.27,-6.16,-5.80,3.87,3.82,3.80
158.44,10.06,6.29,10.05,6.29,-6.27,-6.17,-5.75,3.79,3.78,3.77
160.03,9.94,6.22,9.99,6.26,-6.27,-6.18,-5.70,3.67,3.72,3.72
161.63,9.92,6.24,9.92,6.24,-6.26,-6.18,-5.65,3.65,3.66,3.68
163.24,9.92,6.28,9.89,6.25,-6.26,-6.19,-5.60,3.66,3.63,3.64
164.88,9.85,6.25,9.86,6.26,-6.25,-6.19,-5.56,3.60,3.61,3.60
166.53,9.82,6.26,9.81,6.25,-6.24,-6.20,-5.53,3.58,3.58,3.56
168.19,9.75,6.22,9.75,6.23,-6.22,-6.20,-5.49,3.53,3.53,3.52
169.87,9.70,6.21,9.69,6.21,-6.20,-6.20,-5.46,3.49,3.49,3.49
171.57,9.62,6.17,9.63,6.18,-6.18,-6.20,-5.44,3.43,3.45,3.45
173.29,9.58,6.17,9.57,6.16,-6.16,-6.20,-5.42,3.42,3.41,3.41
175.02,9.52,6.14,9.52,6.14,-6.14,-6.19,-5.40,3.38,3.38,3.38
176.77,9.47,6.12,9.46,6.11,-6.11,-6.19,-5.39,3.36,3.35,3.35
178.54,9.41,6.09,9.40,6.08,-6.09,-6.18,-5.38,3.32,3.31,3.32
180.32,9.34,6.04,9.35,6.06,-6.08,-6.17,-5.37,3.26,3.28,3.30
182.13,9.31,6.04,9.32,6.05,-6.06,-6.16,-5.37,3.25,3.26,3.27
183.95,9.31,6.06,9.29,6.05,-6.04,-6.15,-5.37,3.27,3.25,3.25
185.79,9.27,6.05,9.27,6.04,-6.02,-6.14,-5.38,3.25,3.25,3.22
187.65,9.23,6.02,9.22,6.02,-6.00,-6.12,-5.39,3.23,3.22,3.21
189.52,9.17,5.98,9.18,5.99,-5.98,-6.11,-5.41,3.19,3.20,3.19
191.42,9.13,5.96,9.13,5.96,-5.96,-6.09,-5.43,3.16,3.17,3.17
193.33,9.11,5.96,9.08,5.93,-5.95,-6.07,-5.45,3.16,3.13,3.15
195.27,9.02,5.88,9.05,5.91,-5.93,-6.05,-5.47,3.09,3.12,3.14
197.22,9.01,5.88,9.02,5.90,-5.91,-6.03,-5.50,3.10,3.11,3.12
199.19,9.02,5.91,9.00,5.89,-5.89,-6.00,-5.53,3.13,3.11,3.11
201.18,8.98,5.89,8.97,5.88,-5.87,-5.98,-5.57,3.11,3.10,3.09
203.19,8.93,5.85,8.94,5.86,-5.85,-5.95,-5.60,3.08,3.09,3.07
205.23,8.88,5.82,8.89,5.83,-5.82,-5.92,-5.64,3.06,3.08,3.06
207.28,8.86,5.81,8.83,5.79,-5.78,-5.89,-5.68,3.08,3.05,3.04
209.35,8.77,5.75,8.77,5.74,-5.74,-5.86,-5.72,3.03,3.03,3.02
211.44,8.68,5.67,8.70,5.69,-5.69,-5.83,-5.76,2.99,3.01,3.01
213.56,8.62,5.63,8.62,5.63,-5.64,-5.79,-5.80,2.98,2.98,2.99
215.69,8.57,5.60,8.55,5.58,-5.60,-5.76,-5.84,2.97,2.96,2.97
217.85,8.49,5.53,8.49,5.54,-5.55,-5.72,-5.88,2.94,2.94,2.96
220.03,8.43,5.50,8.43,5.50,-5.51,-5.68,-5.92,2.92,2.92,2.93
222.23,8.38,5.46,8.39,5.47,-5.47,-5.64,-5.95,2.90,2.91,2.92
224.45,8.36,5.45,8.36,5.45,-5.44,-5.60,-5.99,2.92,2.92,2.91
226.70,8.33,5.43,8.31,5.41,-5.40,-5.56,-6.02,2.92,2.91,2.90
228.96,8.27,5.38,8.27,5.38,-5.37,-5.51,-6.05,2.90,2.90,2.89
231.25,8.20,5.31,8.21,5.33,-5.32,-5.47,-6.07,2.88,2.89,2.89
233.57,8.17,5.29,8.16,5.28,-5.27,-5.42,-6.09,2.90,2.89,2.88
235.90,8.11,5.23,8.11,5.23,-5.22,-5.38,-6.10,2.89,2.88,2.88
238.26,8.06,5.19,8.04,5.17,-5.17,-5.33,-6.11,2.89,2.87,2.87
240.64,7.97,5.09,7.98,5.10,-5.12,-5.28,-6.10,2.85,2.87,2.88
243.05,7.92,5.04,7.93,5.05,-5.07,-5.23,-6.10,2.85,2.86,2.88
245.48,7.90,5.02,7.89,5.01,-5.02,-5.18,-6.08,2.88,2.87,2.88
247.93,7.86,4.97,7.86,4.97,-4.98,-5.12,-6.06,2.88,2.88,2.88
250.41,7.83,4.94,7.82,4.94,-4.94,-5.07,-6.03,2.89,2.89,2.89
252.92,7.77,4.88,7.79,4.90,-4.90,-5.02,-6.00,2.87,2.89,2.89
255.45,7.77,4.88,7.76,4.87,-4.86,-4.96,-5.95,2.91,2.90,2.89
258.00,7.71,4.82,7.72,4.83,-4.82,-4.91,-5.90,2.89,2.90,2.88
260.58,7.69,4.81,7.67,4.79,-4.77,-4.85,-5.84,2.91,2.89,2.88
263.19,7.60,4.73,7.60,4.73,-4.73,-4.79,-5.77,2.87,2.87,2.87
265.82,7.51,4.65,7.53,4.67,-4.67,-4.73,-5.70,2.83,2.85,2.85
268.48,7.45,4.60,7.45,4.60,-4.62,-4.67,-5.62,2.83,2.83,2.85
271.16,7.40,4.57,7.39,4.56,-4.56,-4.62,-5.53,2.84,2.83,2.83
273.87,7.32,4.50,7.33,4.51,-4.50,-4.56,-5.44,2.82,2.83,2.82
276.61,7.28,4.47,7.25,4.44,-4.43,-4.49,-5.35,2.84,2.82,2.81
279.38,7.16,4.35,7.17,4.37,-4.38,-4.43,-5.25,2.78,2.80,2.81
282.17,7.10,4.31,7.10,4.31,-4.32,-4.37,-5.14,2.78,2.79,2.79
284.99,7.04,4.25,7.04,4.25,-4.26,-4.31,-5.04,2.78,2.78,2.79
287.84,6.99,4.21,6.98,4.21,-4.20,-4.25,-4.93,2.79,2.79,2.78
290.72,6.92,4.15,6.91,4.14,-4.14,-4.19,-4.82,2.78,2.77,2.77
293.63,6.85,4.09,6.85,4.09,-4.09,-4.12,-4.70,2.76,2.77,2.76
296.57,6.76,4.00,6.81,4.04,-4.04,-4.06,-4.59,2.71,2.76,2.76
299.53,6.81,4.04,6.74,3.98,-4.00,-3.99,-4.47,2.80,2.74,2.76
302.53,6.69,3.93,6.69,3.93,-3.96,-3.93,-4.36,2.73,2.73,2.76
305.55,6.59,3.84,6.66,3.91,-3.91,-3.87,-4.24,2.68,2.75,2.75
308.61,6.64,3.90,6.62,3.87,-3.85,-3.80,-4.13,2.78,2.76,2.74
311.69,6.64,3.90,6.58,3.85,-3.80,-3.74,-4.02,2.84,2.79,2.74
314.81,6.49,3.76,6.51,3.78,-3.73,-3.67,-3.90,2.76,2.78,2.73
317.96,6.40,3.68,6.39,3.67,-3.67,-3.61,-3.79,2.73,2.72,2.72
321.14,6.27,3.55,6.28,3.57,-3.61,-3.54,-3.68,2.66,2.67,2.72
324.35,6.20,3.49,6.20,3.50,-3.54,-3.47,-3.57,2.66,2.66,2.71
327.59,6.15,3.45,6.14,3.45,-3.48,-3.41,-3.46,2.67,2.67,2.69
330.87,6.10,3.41,6.10,3.41,-3.41,-3.34,-3.36,2.69,2.68,2.69
334.18,6.06,3.37,6.05,3.37,-3.35,-3.28,-3.25,2.71,2.71,2.69
337.52,5.99,3.30,6.00,3.32,-3.29,-3.21,-3.15,2.70,2.71,2.69
340.90,5.96,3.29,5.94,3.26,-3.24,-3.14,-3.05,2.72,2.70,2.67
344.30,5.86,3.19,5.87,3.20,-3.18,-3.08,-2.95,2.68,2.69,2.67
347.75,5.77,3.10,5.77,3.11,-3.12,-3.01,-2.86,2.65,2.65,2.67
351.23,5.71,3.05,5.68,3.02,-3.05,-2.94,-2.77,2.66,2.62,2.66
354.74,5.57,2.91,5.63,2.97,-2.98,-2.88,-2.67,2.58,2.64,2.65
358.28,5.57,2.92,5.57,2.92,-2.91,-2.81,-2.58,2.65,2.66,2.65
361.87,5.58,2.93,5.51,2.86,-2.84,-2.74,-2.50,2.73,2.66,2.65
365.49,5.42,2.77,5.44,2.79,-2.78,-2.68,-2.41,2.64,2.66,2.65
369.14,5.32,2.67,5.37,2.72,-2.71,-2.61,-2.33,2.61,2.65,2.65
372.83,5.29,2.64,5.29,2.64,-2.65,-2.54,-2.25,2.64,2.63,2.64
376.56,5.28,2.64,5.21,2.57,-2.59,-2.48,-2.17,2.69,2.62,2.64
380.33,5.12,2.49,5.14,2.51,-2.52,-2.41,-2.09,2.59,2.62,2.63
384.13,5.02,2.39,5.09,2.46,-2.46,-2.34,-2.01,2.56,2.63,2.63
387.97,5.07,2.45,5.02,2.41,-2.40,-2.28,-1.94,2.67,2.62,2.62
391.85,5.02,2.41,4.97,2.36,-2.34,-2.21,-1.87,2.68,2.63,2.61
395.77,4.84,2.24,4.89,2.29,-2.28,-2.15,-1.80,2.56,2.61,2.59
399.73,4.77,2.19,4.78,2.20,-2.21,-2.08,-1.73,2.56,2.57,2.58
403.72,4.71,2.14,4.70,2.13,-2.14,-2.01,-1.66,2.56,2.56,2.57
407.76,4.65,2.10,4.64,2.09,-2.08,-1.95,-1.59,2.57,2.57,2.55
411.84,4.57,2.03,4.55,2.01,-2.01,-1.88,-1.53,2.56,2.54,2.54
415.96,4.45,1.92,4.44,1.92,-1.93,-1.81,-1.46,2.52,2.51,2.53
420.12,4.33,1.81,4.36,1.84,-1.85,-1.75,-1.40,2.48,2.51,2.52
424.32,4.28,1.76,4.31,1.80,-1.78,-1.68,-1.34,2.50,2.53,2.52
428.56,4.30,1.78,4.25,1.73,-1.70,-1.61,-1.28,2.59,2.54,2.51
432.85,4.21,1.69,4.17,1.64,-1.63,-1.55,-1.22,2.58,2.54,2.52
437.18,4.02,1.48,4.08,1.54,-1.56,-1.48,-1.16,2.46,2.52,2.54
441.55,4.00,1.44,4.02,1.45,-1.49,-1.42,-1.11,2.50,2.52,2.56
445.96,4.03,1.44,4.00,1.41,-1.44,-1.35,-1.05,2.59,2.56,2.59
450.42,4.03,1.40,4.02,1.40,-1.39,-1.28,-0.99,2.64,2.63,2.63
454.93,4.01,1.34,4.02,1.35,-1.34,-1.22,-0.94,2.67,2.68,2.67
459.48,4.02,1.30,3.99,1.27,-1.29,-1.15,-0.88,2.73,2.70,2.72
464.07,3.97,1.21,3.99,1.23,-1.23,-1.09,-0.83,2.74,2.76,2.76
468.71,3.96,1.15,4.02,1.21,-1.17,-1.02,-0.78,2.79,2.85,2.81
473.40,4.09,1.23,4.01,1.16,-1.10,-0.95,-0.72,2.99,2.91,2.86
478.13,4.00,1.09,3.95,1.05,-1.03,-0.89,-0.67,2.97,2.92,2.90
482.91,3.83,0.88,3.87,0.92,-0.95,-0.82,-0.62,2.88,2.92,2.94
487.74,3.71,0.73,3.80,0.82,-0.87,-0.75,-0.56,2.84,2.93,2.98
492.62,3.82,0.81,3.78,0.76,-0.80,-0.69,-0.51,3.02,2.98,3.01
497.55,3.84,0.81,3.75,0.71,-0.73,-0.62,-0.46,3.11,3.02,3.03
502.52,3.65,0.60,3.70,0.65,-0.65,-0.56,-0.41,3.00,3.05,3.05
507.55,3.58,0.52,3.64,0.58,-0.57,-0.49,-0.35,3.01,3.07,3.06
