frequency,raw,error,smoothed,error_smoothed,equalization,parametric_eq,fixed_band_eq,equalized_raw,equalized_smoothed,target
20.00,1.09,-2.41,1.09,-2.42,2.44,2.04,0.68,3.53,3.53,3.50
20.20,1.13,-2.41,1.13,-2.41,2.42,2.02,0.70,3.55,3.55,3.54
20.40,1.18,-2.39,1.18,-2.40,2.39,2.01,0.72,3.57,3.57,3.57
20.61,1.22,-2.38,1.22,-2.38,2.37,1.99,0.74,3.59,3.59,3.60
20.81,1.27,-2.36,1.27,-2.37,2.35,1.97,0.76,3.62,3.61,3.63
21.02,1.31,-2.35,1.31,-2.35,2.33,1.95,0.79,3.63,3.64,3.66
21.23,1.36,-2.32,1.36,-2.32,2.30,1.93,0.81,3.66,3.66,3.68
21.44,1.41,-2.28,1.41,-2.28,2.28,1.92,0.84,3.69,3.69,3.69
21.66,1.46,-2.24,1.46,-2.24,2.25,1.90,0.86,3.71,3.71,3.70
21.87,1.51,-2.20,1.51,-2.21,2.23,1.88,0.89,3.74,3.73,3.71
22.09,1.54,-2.18,1.54,-2.18,2.20,1.86,0.92,3.74,3.74,3.72
22.31,1.56,-2.17,1.56,-2.17,2.18,1.84,0.95,3.74,3.74,3.73
22.54,1.57,-2.16,1.57,-2.16,2.16,1.82,0.98,3.73,3.73,3.73
22.76,1.58,-2.15,1.58,-2.15,2.14,1.80,1.01,3.72,3.72,3.73
22.99,1.59,-2.14,1.60,-2.13,2.12,1.79,1.04,3.71,3.72,3.73
23.22,1.63,-2.11,1.63,-2.11,2.10,1.77,1.07,3.73,3.72,3.74
23.45,1.67,-2.07,1.67,-2.07,2.07,1.75,1.10,3.74,3.73,3.74
23.69,1.71,-2.04,1.71,-2.03,2.03,1.73,1.13,3.74,3.74,3.75
23.92,1.76,-1.99,1.76,-1.99,1.99,1.71,1.16,3.75,3.75,3.75
24.16,1.80,-1.96,1.80,-1.95,1.95,1.69,1.20,3.75,3.75,3.76
24.40,1.85,-1.91,1.85,-1.90,1.90,1.67,1.23,3.75,3.75,3.76
24.65,1.89,-1.86,1.89,-1.86,1.87,1.65,1.27,3.75,3.76,3.75
24.89,1.94,-1.81,1.94,-1.81,1.83,1.63,1.30,3.77,3.77,3.74
25.14,1.97,-1.77,1.96,-1.78,1.80,1.61,1.34,3.77,3.76,3.74
25.39,1.98,-1.75,1.98,-1.76,1.76,1.59,1.37,3.74,3.74,3.73
25.65,1.99,-1.74,1.99,-1.74,1.73,1.57,1.41,3.72,3.72,3.73
25.91,2.00,-1.72,2.00,-1.72,1.70,1.55,1.44,3.70,3.70,3.72
26.16,2.03,-1.68,2.03,-1.68,1.66,1.53,1.47,3.69,3.69,3.71
26.43,2.07,-1.64,2.07,-1.64,1.63,1.51,1.51,3.70,3.70,3.71
26.69,2.12,-1.58,2.12,-1.59,1.59,1.49,1.54,3.71,3.71,3.70
26.96,2.16,-1.54,2.15,-1.55,1.56,1.47,1.57,3.71,3.71,3.70
27.23,2.18,-1.51,2.18,-1.51,1.52,1.45,1.60,3.70,3.70,3.69
27.50,2.20,-1.49,2.20,-1.48,1.49,1.43,1.63,3.69,3.70,3.69
27.77,2.22,-1.45,2.22,-1.46,1.47,1.41,1.66,3.69,3.69,3.67
28.05,2.23,-1.44,2.23,-1.44,1.45,1.39,1.69,3.68,3.68,3.67
28.33,2.23,-1.43,2.23,-1.43,1.42,1.37,1.71,3.65,3.65,3.65
28.62,2.23,-1.41,2.23,-1.42,1.40,1.35,1.73,3.63,3.62,3.64
28.90,2.23,-1.41,2.24,-1.40,1.36,1.33,1.75,3.59,3.60,3.64
29.19,2.27,-1.36,2.28,-1.36,1.33,1.30,1.77,3.60,3.60,3.63
29.48,2.34,-1.30,2.34,-1.30,1.29,1.28,1.79,3.63,3.63,3.64
29.78,2.40,-1.23,2.40,-1.23,1.25,1.26,1.80,3.65,3.65,3.63
30.08,2.45,-1.17,2.44,-1.18,1.22,1.24,1.81,3.67,3.65,3.62
30.38,2.45,-1.16,2.45,-1.16,1.19,1.22,1.81,3.64,3.64,3.61
30.68,2.45,-1.16,2.45,-1.15,1.16,1.20,1.82,3.61,3.62,3.61
30.99,2.45,-1.15,2.45,-1.15,1.15,1.18,1.82,3.60,3.60,3.59
31.30,2.45,-1.14,2.45,-1.15,1.14,1.16,1.81,3.59,3.59,3.59
31.61,2.45,-1.14,2.45,-1.14,1.14,1.14,1.80,3.59,3.59,3.59
31.93,2.45,-1.13,2.45,-1.13,1.13,1.12,1.79,3.58,3.58,3.58
32.24,2.45,-1.11,2.44,-1.12,1.12,1.10,1.78,3.56,3.56,3.56
32.57,2.45,-1.11,2.44,-1.12,1.09,1.08,1.76,3.54,3.53,3.56
32.89,2.45,-1.12,2.46,-1.09,1.06,1.05,1.74,3.50,3.52,3.57
33.22,2.50,-1.05,2.51,-1.05,1.02,1.03,1.72,3.52,3.53,3.55
33.55,2.58,-0.97,2.58,-0.98,0.98,1.01,1.69,3.56,3.55,3.55
33.89,2.65,-0.89,2.64,-0.90,0.94,0.99,1.66,3.59,3.57,3.54
34.23,2.68,-0.86,2.67,-0.86,0.90,0.97,1.63,3.58,3.58,3.54
34.57,2.68,-0.85,2.68,-0.84,0.87,0.95,1.60,3.55,3.56,3.53
34.92,2.68,-0.84,2.68,-0.84,0.85,0.93,1.56,3.53,3.54,3.52
35.27,2.68,-0.84,2.68,-0.84,0.84,0.91,1.52,3.52,3.52,3.52
35.62,2.68,-0.83,2.68,-0.83,0.83,0.89,1.48,3.51,3.51,3.51
35.97,2.68,-0.83,2.68,-0.83,0.82,0.87,1.44,3.50,3.50,3.51
36.33,2.68,-0.83,2.67,-0.83,0.80,0.84,1.40,3.48,3.47,3.50
36.70,2.68,-0.81,2.68,-0.81,0.77,0.82,1.35,3.45,3.45,3.49
37.06,2.69,-0.79,2.72,-0.77,0.73,0.80,1.31,3.42,3.45,3.48
37.43,2.78,-0.70,2.78,-0.69,0.69,0.78,1.26,3.47,3.47,3.48
37.81,2.87,-0.60,2.85,-0.61,0.64,0.76,1.22,3.51,3.49,3.46
38.19,2.91,-0.54,2.90,-0.56,0.60,0.74,1.17,3.51,3.50,3.45
38.57,2.91,-0.54,2.92,-0.53,0.56,0.72,1.12,3.47,3.48,3.45
38.95,2.91,-0.53,2.91,-0.52,0.53,0.70,1.07,3.44,3.44,3.43
39.34,2.91,-0.51,2.91,-0.51,0.51,0.68,1.03,3.42,3.42,3.42
39.74,2.91,-0.50,2.91,-0.50,0.50,0.66,0.98,3.40,3.40,3.41
40.14,2.91,-0.51,2.91,-0.50,0.49,0.64,0.93,3.40,3.40,3.41
40.54,2.91,-0.49,2.91,-0.49,0.49,0.62,0.88,3.40,3.40,3.40
40.94,2.91,-0.49,2.91,-0.49,0.49,0.59,0.84,3.40,3.40,3.40
41.35,2.91,-0.47,2.91,-0.48,0.49,0.57,0.79,3.40,3.40,3.38
41.76,2.91,-0.47,2.91,-0.47,0.48,0.55,0.74,3.39,3.39,3.38
42.18,2.91,-0.46,2.91,-0.46,0.47,0.53,0.69,3.38,3.38,3.37
42.60,2.91,-0.44,2.91,-0.44,0.44,0.51,0.65,3.35,3.35,3.35
43.03,2.91,-0.43,2.90,-0.43,0.40,0.49,0.60,3.31,3.31,3.34
43.46,2.91,-0.40,2.90,-0.41,0.36,0.47,0.56,3.27,3.26,3.31
43.90,2.91,-0.37,2.94,-0.35,0.30,0.45,0.51,3.21,3.24,3.28
44.33,2.99,-0.26,3.00,-0.25,0.24,0.43,0.47,3.23,3.24,3.25
44.78,3.09,-0.14,3.07,-0.16,0.18,0.41,0.42,3.27,3.25,3.23
45.23,3.14,-0.06,3.13,-0.07,0.13,0.39,0.38,3.27,3.25,3.20
45.68,3.14,-0.04,3.15,-0.03,0.08,0.37,0.33,3.22,3.22,3.18
46.13,3.14,-0.02,3.14,-0.02,0.03,0.35,0.29,3.17,3.18,3.16
46.60,3.14,-0.02,3.14,-0.01,0.00,0.32,0.25,3.14,3.14,3.15
47.06,3.14,0.00,3.14,0.00,-0.02,0.30,0.21,3.12,3.12,3.14
47.53,3.14,0.02,3.14,0.01,-0.02,0.28,0.16,3.11,3.11,3.12
48.01,3.14,0.01,3.14,0.02,-0.03,0.26,0.12,3.11,3.11,3.12
48.49,3.14,0.02,3.14,0.03,-0.03,0.24,0.08,3.11,3.11,3.12
48.97,3.14,0.04,3.14,0.04,-0.03,0.22,0.04,3.11,3.11,3.10
49.46,3.14,0.05,3.14,0.04,-0.03,0.20,0.00,3.11,3.11,3.09
49.96,3.14,0.04,3.14,0.04,-0.03,0.18,-0.04,3.10,3.10,3.10
50.46,3.14,0.03,3.14,0.04,-0.04,0.16,-0.08,3.10,3.10,3.11
50.96,3.14,0.03,3.14,0.03,-0.04,0.14,-0.12,3.10,3.10,3.11
51.47,3.14,0.04,3.14,0.04,-0.04,0.11,-0.16,3.10,3.10,3.10
51.99,3.14,0.05,3.14,0.04,-0.05,0.09,-0.19,3.09,3.09,3.09
52.51,3.14,0.05,3.14,0.05,-0.05,0.07,-0.23,3.08,3.08,3.09
53.03,3.14,0.07,3.14,0.06,-0.07,0.05,-0.27,3.07,3.07,3.07
53.56,3.14,0.08,3.14,0.08,-0.09,0.03,-0.30,3.05,3.05,3.05
54.10,3.14,0.10,3.14,0.11,-0.11,0.01,-0.34,3.03,3.03,3.03
54.64,3.14,0.14,3.14,0.14,-0.13,-0.02,-0.37,3.01,3.01,3.00
55.18,3.14,0.17,3.14,0.16,-0.16,-0.04,-0.41,2.98,2.98,2.97
55.74,3.14,0.20,3.14,0.19,-0.19,-0.06,-0.44,2.95,2.95,2.94
56.29,3.14,0.22,3.14,0.22,-0.21,-0.08,-0.47,2.92,2.92,2.92
56.86,3.14,0.25,3.14,0.25,-0.24,-0.10,-0.50,2.90,2.90,2.89
57.42,3.14,0.29,3.14,0.29,-0.27,-0.13,-0.53,2.87,2.87,2.85
58.00,3.14,0.32,3.14,0.32,-0.31,-0.15,-0.56,2.82,2.82,2.81
58.58,3.14,0.36,3.13,0.35,-0.37,-0.17,-0.59,2.77,2.76,2.78
59.16,3.14,0.38,3.13,0.38,-0.43,-0.19,-0.62,2.71,2.70,2.76
59.76,3.14,0.42,3.17,0.45,-0.50,-0.22,-0.65,2.64,2.67,2.72
60.35,3.22,0.54,3.24,0.56,-0.57,-0.24,-0.67,2.65,2.67,2.68
60.96,3.36,0.71,3.31,0.67,-0.64,-0.26,-0.70,2.71,2.67,2.65
61.57,3.37,0.78,3.37,0.77,-0.72,-0.29,-0.72,2.65,2.65,2.59
62.18,3.37,0.82,3.38,0.83,-0.79,-0.31,-0.74,2.58,2.60,2.55
62.80,3.37,0.85,3.37,0.86,-0.85,-0.33,-0.76,2.52,2.52,2.52
63.43,3.37,0.90,3.37,0.89,-0.90,-0.36,-0.78,2.47,2.47,2.47
64.07,3.37,0.92,3.37,0.93,-0.94,-0.38,-0.80,2.43,2.43,2.44
64.71,3.37,0.96,3.37,0.96,-0.97,-0.41,-0.82,2.40,2.40,2.41
65.35,3.37,0.99,3.37,0.99,-1.00,-0.43,-0.83,2.37,2.37,2.38
66.01,3.37,1.03,3.37,1.02,-1.03,-0.46,-0.85,2.34,2.34,2.34
66.67,3.37,1.05,3.37,1.05,-1.06,-0.48,-0.86,2.31,2.31,2.32
67.33,3.37,1.08,3.37,1.08,-1.09,-0.51,-0.88,2.28,2.28,2.29
68.01,3.37,1.10,3.37,1.10,-1.11,-0.53,-0.89,2.26,2.26,2.27
68.69,3.37,1.12,3.37,1.12,-1.12,-0.56,-0.90,2.25,2.25,2.25
69.37,3.37,1.14,3.38,1.15,-1.12,-0.58,-0.92,2.25,2.26,2.23
70.07,3.37,1.16,3.38,1.16,-1.11,-0.61,-0.93,2.26,2.27,2.21
70.77,3.37,1.17,3.33,1.13,-1.10,-0.64,-0.94,2.27,2.23,2.20
71.48,3.26,1.08,3.26,1.08,-1.08,-0.66,-0.95,2.18,2.18,2.18
72.19,3.14,0.98,3.18,1.03,-1.07,-0.69,-0.96,2.07,2.12,2.16
72.91,3.14,1.00,3.13,1.00,-1.05,-0.72,-0.97,2.08,2.08,2.14
73.64,3.14,1.03,3.13,1.01,-1.05,-0.75,-0.98,2.09,2.08,2.11
74.38,3.14,1.04,3.14,1.05,-1.05,-0.78,-0.99,2.09,2.09,2.10
75.12,3.14,1.07,3.14,1.07,-1.06,-0.80,-1.01,2.08,2.08,2.07
75.87,3.14,1.10,3.14,1.09,-1.08,-0.83,-1.02,2.06,2.06,2.04
76.63,3.14,1.11,3.14,1.11,-1.10,-0.86,-1.03,2.04,2.04,2.03
77.40,3.14,1.13,3.14,1.13,-1.12,-0.89,-1.04,2.02,2.02,2.01
78.17,3.14,1.15,3.14,1.14,-1.14,-0.92,-1.05,2.00,2.00,1.99
78.95,3.14,1.15,3.14,1.15,-1.15,-0.95,-1.07,1.99,1.99,1.99
79.74,3.14,1.16,3.14,1.16,-1.16,-0.98,-1.08,1.98,1.98,1.98
80.54,3.14,1.16,3.14,1.16,-1.16,-1.01,-1.10,1.98,1.98,1.97
81.35,3.14,1.17,3.14,1.16,-1.16,-1.04,-1.11,1.97,1.97,1.97
82.16,3.14,1.17,3.14,1.16,-1.16,-1.07,-1.13,1.98,1.98,1.97
82.98,3.14,1.16,3.14,1.16,-1.16,-1.10,-1.15,1.98,1.98,1.98
83.81,3.14,1.16,3.14,1.16,-1.15,-1.13,-1.17,1.99,1.99,1.98
84.65,3.14,1.15,3.14,1.15,-1.15,-1.17,-1.18,1.99,1.99,1.99
85.50,3.14,1.13,3.14,1.14,-1.14,-1.20,-1.20,2.00,2.00,2.01
86.35,3.14,1.13,3.14,1.12,-1.12,-1.23,-1.23,2.01,2.01,2.01
87.22,3.14,1.11,3.14,1.11,-1.11,-1.26,-1.25,2.03,2.03,2.03
88.09,3.14,1.10,3.14,1.10,-1.10,-1.29,-1.27,2.04,2.04,2.03
88.97,3.14,1.09,3.14,1.09,-1.09,-1.33,-1.29,2.05,2.05,2.05
89.86,3.14,1.07,3.14,1.08,-1.08,-1.36,-1.32,2.06,2.06,2.07
90.76,3.14,1.08,3.14,1.07,-1.07,-1.39,-1.35,2.07,2.07,2.06
91.66,3.14,1.06,3.14,1.07,-1.07,-1.43,-1.37,2.07,2.07,2.07
92.58,3.14,1.07,3.14,1.06,-1.06,-1.46,-1.40,2.08,2.08,2.07
93.51,3.14,1.06,3.14,1.06,-1.06,-1.49,-1.43,2.08,2.08,2.08
94.44,3.14,1.05,3.14,1.06,-1.06,-1.52,-1.46,2.08,2.08,2.09
95.39,3.14,1.06,3.14,1.06,-1.06,-1.56,-1.49,2.08,2.08,2.08
96.34,3.14,1.07,3.14,1.06,-1.06,-1.59,-1.52,2.08,2.08,2.07
97.30,3.14,1.07,3.14,1.07,-1.06,-1.62,-1.55,2.08,2.08,2.07
98.28,3.14,1.07,3.14,1.07,-1.06,-1.66,-1.59,2.08,2.08,2.07
99.26,3.14,1.08,3.14,1.08,-1.06,-1.69,-1.62,2.07,2.07,2.06
100.25,3.14,1.09,3.14,1.09,-1.07,-1.72,-1.65,2.07,2.07,2.05
101.25,3.14,1.10,3.14,1.10,-1.09,-1.76,-1.69,2.05,2.05,2.04
102.27,3.14,1.11,3.13,1.10,-1.12,-1.79,-1.72,2.02,2.01,2.03
103.29,3.14,1.13,3.13,1.12,-1.17,-1.82,-1.76,1.97,1.96,2.01
104.32,3.14,1.15,3.16,1.17,-1.22,-1.85,-1.80,1.92,1.94,1.99
105.37,3.20,1.24,3.22,1.26,-1.29,-1.89,-1.83,1.91,1.94,1.96
106.42,3.33,1.40,3.30,1.37,-1.35,-1.92,-1.87,1.98,1.94,1.93
107.48,3.37,1.49,3.36,1.47,-1.42,-1.95,-1.90,1.95,1.93,1.88
108.56,3.37,1.53,3.38,1.54,-1.50,-1.98,-1.94,1.87,1.88,1.83
109.64,3.37,1.57,3.37,1.58,-1.56,-2.01,-1.97,1.80,1.81,1.80
110.74,3.37,1.62,3.37,1.62,-1.63,-2.05,-2.01,1.74,1.74,1.75
111.85,3.37,1.66,3.37,1.67,-1.68,-2.08,-2.04,1.68,1.68,1.71
112.97,3.37,1.73,3.37,1.72,-1.73,-2.11,-2.07,1.64,1.64,1.64
114.10,3.37,1.76,3.37,1.77,-1.78,-2.14,-2.10,1.59,1.59,1.61
115.24,3.37,1.82,3.37,1.82,-1.82,-2.17,-2.13,1.55,1.55,1.55
116.39,3.37,1.87,3.37,1.87,-1.86,-2.20,-2.16,1.51,1.51,1.50
117.55,3.37,1.92,3.37,1.91,-1.91,-2.23,-2.19,1.46,1.46,1.45
118.73,3.37,1.95,3.37,1.95,-1.94,-2.25,-2.21,1.42,1.42,1.42
119.92,3.37,1.98,3.37,1.98,-1.98,-2.28,-2.23,1.39,1.39,1.39
121.12,3.37,2.01,3.37,2.01,-2.01,-2.31,-2.26,1.36,1.36,1.36
122.33,3.37,2.04,3.37,2.04,-2.04,-2.34,-2.27,1.33,1.33,1.33
123.55,3.37,2.05,3.37,2.06,-2.06,-2.36,-2.29,1.31,1.31,1.32
124.79,3.37,2.08,3.37,2.08,-2.08,-2.39,-2.30,1.29,1.29,1.29
126.03,3.37,2.10,3.37,2.10,-2.10,-2.41,-2.32,1.26,1.26,1.27
127.29,3.37,2.12,3.37,2.12,-2.13,-2.44,-2.33,1.24,1.24,1.25
128.57,3.37,2.15,3.37,2.15,-2.15,-2.46,-2.33,1.22,1.22,1.22
129.85,3.37,2.17,3.37,2.17,-2.17,-2.49,-2.34,1.20,1.20,1.20
131.15,3.37,2.20,3.37,2.19,-2.19,-2.51,-2.34,1.18,1.18,1.17
132.46,3.37,2.22,3.37,2.22,-2.21,-2.53,-2.35,1.16,1.16,1.15
133.79,3.37,2.23,3.37,2.23,-2.24,-2.55,-2.35,1.13,1.13,1.14
135.12,3.37,2.26,3.37,2.25,-2.26,-2.57,-2.34,1.11,1.11,1.11
136.48,3.37,2.27,3.37,2.28,-2.28,-2.60,-2.34,1.09,1.09,1.10
137.84,3.37,2.30,3.37,2.31,-2.30,-2.61,-2.34,1.07,1.07,1.07
139.22,3.37,2.34,3.37,2.33,-2.32,-2.63,-2.33,1.05,1.05,1.03
140.61,3.37,2.36,3.37,2.35,-2.35,-2.65,-2.33,1.02,1.02,1.01
142.02,3.37,2.37,3.37,2.37,-2.37,-2.67,-2.32,1.00,1.00,1.00
143.44,3.37,2.39,3.37,2.39,-2.39,-2.69,-2.32,0.98,0.98,0.98
144.87,3.37,2.42,3.37,2.42,-2.42,-2.70,-2.31,0.95,0.95,0.95
146.32,3.37,2.46,3.37,2.45,-2.45,-2.72,-2.30,0.92,0.92,0.91
147.78,3.37,2.48,3.37,2.48,-2.49,-2.73,-2.30,0.88,0.88,0.89
149.26,3.37,2.52,3.37,2.52,-2.53,-2.75,-2.29,0.84,0.84,0.85
150.75,3.37,2.57,3.37,2.57,-2.58,-2.76,-2.28,0.79,0.79,0.80
152.26,3.37,2.63,3.37,2.63,-2.64,-2.77,-2.28,0.73,0.73,0.74
153.78,3.37,2.69,3.37,2.69,-2.70,-2.79,-2.27,0.67,0.67,0.68
155.32,3.37,2.75,3.37,2.75,-2.76,-2.80,-2.27,0.61,0.61,0.62
156.88,3.37,2.81,3.37,2.81,-2.81,-2.81,-2.27,0.56,0.56,0.56
158.44,3.37,2.87,3.38,2.88,-2.84,-2.82,-2.27,0.53,0.54,0.50
160.03,3.37,2.93,3.37,2.93,-2.87,-2.83,-2.27,0.50,0.50,0.44
161.63,3.37,2.97,3.32,2.92,-2.89,-2.84,-2.27,0.48,0.43,0.40
163.24,3.23,2.88,3.25,2.89,-2.89,-2.85,-2.27,0.33,0.35,0.35
164.88,3.14,2.82,3.18,2.86,-2.90,-2.85,-2.28,0.24,0.28,0.32
166.53,3.14,2.85,3.13,2.84,-2.89,-2.86,-2.29,0.24,0.24,0.29
168.19,3.14,2.88,3.13,2.87,-2.89,-2.87,-2.29,0.25,0.24,0.26
169.87,3.14,2.90,3.14,2.89,-2.88,-2.87,-2.30,0.25,0.25,0.24
171.57,3.14,2.90,3.14,2.90,-2.88,-2.88,-2.32,0.26,0.26,0.24
173.29,3.14,2.90,3.14,2.90,-2.89,-2.88,-2.33,0.25,0.25,0.24
175.02,3.14,2.90,3.14,2.90,-2.89,-2.88,-2.35,0.25,0.25,0.24
176.77,3.14,2.90,3.14,2.90,-2.90,-2.89,-2.36,0.24,0.24,0.24
178.54,3.14,2.90,3.14,2.90,-2.90,-2.89,-2.38,0.24,0.24,0.24
180.32,3.14,2.89,3.14,2.90,-2.90,-2.89,-2.40,0.24,0.24,0.24
182.13,3.14,2.89,3.14,2.89,-2.90,-2.89,-2.43,0.24,0.24,0.25
183.95,3.14,2.89,3.14,2.89,-2.90,-2.89,-2.45,0.24,0.24,0.25
185.79,3.14,2.89,3.14,2.90,-2.90,-2.89,-2.48,0.24,0.24,0.25
187.65,3.14,2.91,3.14,2.91,-2.91,-2.89,-2.51,0.23,0.23,0.23
189.52,3.14,2.92,3.14,2.92,-2.92,-2.89,-2.54,0.22,0.22,0.21
191.42,3.14,2.94,3.14,2.94,-2.93,-2.89,-2.57,0.21,0.21,0.20
193.33,3.14,2.95,3.14,2.95,-2.95,-2.88,-2.60,0.19,0.19,0.19
195.27,3.14,2.96,3.14,2.96,-2.96,-2.88,-2.63,0.18,0.18,0.18
197.22,3.14,2.97,3.14,2.98,-2.98,-2.88,-2.67,0.16,0.16,0.17
199.19,3.14,3.00,3.14,3.00,-3.00,-2.87,-2.71,0.14,0.14,0.14
201.18,3.14,3.02,3.14,3.01,-3.01,-2.87,-2.75,0.13,0.13,0.12
203.19,3.14,3.03,3.14,3.03,-3.03,-2.86,-2.78,0.11,0.11,0.11
205.23,3.14,3.05,3.14,3.04,-3.05,-2.86,-2.82,0.09,0.09,0.09
207.28,3.14,3.06,3.14,3.06,-3.06,-2.85,-2.86,0.08,0.08,0.08
209.35,3.14,3.07,3.14,3.08,-3.08,-2.85,-2.90,0.06,0.06,0.06
211.44,3.14,3.10,3.14,3.10,-3.09,-2.84,-2.94,0.05,0.05,0.04
213.56,3.14,3.11,3.14,3.11,-3.11,-2.83,-2.98,0.03,0.03,0.03
215.69,3.14,3.11,3.14,3.12,-3.12,-2.82,-3.02,0.02,0.02,0.03
217.85,3.14,3.13,3.14,3.13,-3.13,-2.81,-3.06,0.00,0.00,0.01
220.03,3.14,3.15,3.14,3.15,-3.15,-2.80,-3.09,-0.01,-0.01,-0.01
222.23,3.14,3.17,3.14,3.16,-3.16,-2.79,-3.13,-0.02,-0.02,-0.03
224.45,3.14,3.16,3.14,3.17,-3.17,-2.78,-3.16,-0.04,-0.04,-0.02
226.70,3.14,3.17,3.14,3.17,-3.18,-2.77,-3.19,-0.04,-0.04,-0.03
228.96,3.14,3.17,3.14,3.17,-3.17,-2.76,-3.22,-0.03,-0.03,-0.03
231.25,3.14,3.16,3.15,3.18,-3.16,-2.75,-3.24,-0.02,-0.01,-0.02
233.57,3.14,3.17,3.14,3.17,-3.13,-2.74,-3.27,0.01,0.01,-0.03
235.90,3.14,3.18,3.10,3.13,-3.09,-2.73,-3.28,0.04,0.00,-0.04
238.26,3.03,3.06,3.03,3.07,-3.06,-2.71,-3.30,-0.03,-0.02,-0.03
240.64,2.93,2.96,2.96,2.99,-3.02,-2.70,-3.31,-0.09,-0.05,-0.03
243.05,2.91,2.92,2.91,2.92,-2.98,-2.69,-3.32,-0.07,-0.06,-0.01
245.48,2.91,2.91,2.90,2.90,-2.94,-2.67,-3.32,-0.03,-0.03,-0.00
247.93,2.91,2.89,2.91,2.90,-2.90,-2.66,-3.31,0.01,0.01,0.01
250.41,2.91,2.89,2.91,2.88,-2.87,-2.64,-3.31,0.04,0.04,0.02
252.92,2.91,2.86,2.91,2.86,-2.85,-2.63,-3.30,0.06,0.06,0.04
255.45,2.91,2.84,2.91,2.85,-2.84,-2.61,-3.28,0.07,0.07,0.07
258.00,2.91,2.82,2.91,2.83,-2.83,-2.60,-3.26,0.08,0.08,0.09
260.58,2.91,2.82,2.91,2.81,-2.81,-2.58,-3.23,0.10,0.10,0.09
263.19,2.91,2.79,2.91,2.80,-2.80,-2.56,-3.21,0.11,0.11,0.12
265.82,2.91,2.78,2.91,2.78,-2.78,-2.55,-3.17,0.13,0.13,0.13
268.48,2.91,2.76,2.91,2.76,-2.77,-2.53,-3.14,0.14,0.14,0.15
271.16,2.91,2.73,2.91,2.74,-2.75,-2.51,-3.10,0.16,0.16,0.17
273.87,2.91,2.72,2.91,2.72,-2.72,-2.49,-3.05,0.19,0.19,0.19
276.61,2.91,2.69,2.91,2.70,-2.68,-2.47,-3.01,0.23,0.23,0.22
279.38,2.91,2.68,2.92,2.69,-2.63,-2.45,-2.96,0.28,0.29,0.23
282.17,2.91,2.65,2.89,2.62,-2.58,-2.44,-2.91,0.33,0.31,0.26
284.99,2.86,2.57,2.82,2.53,-2.52,-2.42,-2.85,0.34,0.30,0.29
287.84,2.69,2.37,2.74,2.43,-2.46,-2.40,-2.80,0.23,0.29,0.31
290.72,2.68,2.34,2.69,2.35,-2.40,-2.38,-2.74,0.28,0.29,0.34
293.63,2.68,2.32,2.66,2.30,-2.35,-2.36,-2.68,0.33,0.32,0.36
296.57,2.68,2.28,2.68,2.29,-2.30,-2.33,-2.62,0.38,0.38,0.40
299.53,2.68,2.27,2.68,2.27,-2.26,-2.31,-2.57,0.42,0.42,0.41
302.53,2.68,2.26,2.68,2.25,-2.23,-2.29,-2.51,0.45,0.45,0.42
305.55,2.68,2.22,2.68,2.23,-2.21,-2.27,-2.45,0.47,0.47,0.46
308.61,2.68,2.21,2.68,2.21,-2.20,-2.25,-2.39,0.48,0.48,0.47
311.69,2.68,2.19,2.68,2.18,-2.19,-2.22,-2.33,0.49,0.49,0.49
314.81,2.68,2.17,2.68,2.17,-2.18,-2.20,-2.27,0.50,0.50,0.51
317.96,2.68,2.16,2.68,2.16,-2.17,-2.18,-2.21,0.50,0.50,0.52
321.14,2.68,2.16,2.68,2.16,-2.17,-2.16,-2.15,0.51,0.51,0.52
324.35,2.68,2.16,2.68,2.16,-2.17,-2.13,-2.10,0.51,0.51,0.52
327.59,2.68,2.15,2.68,2.15,-2.16,-2.11,-2.04,0.52,0.52,0.53
330.87,2.68,2.14,2.68,2.14,-2.13,-2.08,-1.99,0.55,0.55,0.54
334.18,2.68,2.14,2.70,2.15,-2.10,-2.06,-1.93,0.58,0.60,0.54
337.52,2.68,2.12,2.68,2.12,-2.06,-2.03,-1.88,0.62,0.62,0.56
340.90,2.68,2.10,2.62,2.04,-2.01,-2.01,-1.83,0.67,0.60,0.58
344.30,2.50,1.90,2.54,1.95,-1.96,-1.98,-1.78,0.54,0.58,0.60
347.75,2.45,1.84,2.47,1.86,-1.91,-1.96,-1.73,0.54,0.57,0.61
351.23,2.45,1.82,2.43,1.80,-1.86,-1.93,-1.68,0.59,0.58,0.63
354.74,2.45,1.80,2.44,1.79,-1.81,-1.91,-1.64,0.64,0.64,0.65
358.28,2.45,1.77,2.45,1.77,-1.77,-1.88,-1.59,0.68,0.68,0.68
361.87,2.45,1.75,2.45,1.75,-1.74,-1.85,-1.55,0.71,0.71,0.70
365.49,2.45,1.72,2.45,1.73,-1.72,-1.83,-1.51,0.73,0.73,0.73
369.14,2.45,1.71,2.45,1.71,-1.70,-1.80,-1.47,0.75,0.75,0.74
372.83,2.45,1.69,2.45,1.69,-1.69,-1.77,-1.43,0.76,0.76,0.75
376.56,2.45,1.68,2.45,1.67,-1.68,-1.75,-1.39,0.77,0.77,0.77
380.33,2.45,1.65,2.45,1.65,-1.67,-1.72,-1.35,0.78,0.78,0.80
384.13,2.45,1.63,2.45,1.64,-1.65,-1.69,-1.32,0.80,0.80,0.82
387.97,2.45,1.63,2.45,1.62,-1.63,-1.66,-1.28,0.82,0.82,0.82
391.85,2.45,1.62,2.46,1.62,-1.60,-1.63,-1.25,0.85,0.86,0.83
395.77,2.45,1.60,2.46,1.61,-1.56,-1.60,-1.22,0.89,0.89,0.85
399.73,2.45,1.59,2.42,1.56,-1.52,-1.58,-1.19,0.93,0.90,0.86
403.72,2.37,1.50,2.36,1.49,-1.48,-1.55,-1.15,0.89,0.88,0.87
407.76,2.26,1.38,2.29,1.41,-1.44,-1.52,-1.12,0.82,0.85,0.88
411.84,2.23,1.34,2.24,1.35,-1.40,-1.49,-1.10,0.83,0.84,0.89
415.96,2.23,1.33,2.22,1.33,-1.36,-1.46,-1.07,0.87,0.86,0.89
420.12,2.23,1.33,2.23,1.33,-1.33,-1.43,-1.04,0.90,0.89,0.90
424.32,2.23,1.33,2.23,1.32,-1.32,-1.40,-1.01,0.91,0.91,0.90
428.56,2.23,1.32,2.23,1.32,-1.31,-1.37,-0.99,0.92,0.92,0.91
432.85,2.23,1.32,2.23,1.32,-1.32,-1.34,-0.96,0.91,0.91,0.91
437.18,2.23,1.31,2.23,1.31,-1.32,-1.31,-0.94,0.91,0.91,0.92
441.55,2.23,1.30,2.23,1.30,-1.31,-1.27,-0.91,0.92,0.92,0.93
445.96,2.23,1.29,2.23,1.30,-1.28,-1.24,-0.89,0.95,0.95,0.94
450.42,2.23,1.29,2.24,1.30,-1.25,-1.21,-0.86,0.98,0.99,0.94
454.93,2.23,1.27,2.21,1.26,-1.21,-1.18,-0.84,1.02,1.00,0.96
459.48,2.18,1.22,2.14,1.18,-1.16,-1.15,-0.81,1.01,0.98,0.96
464.07,2.03,1.05,2.07,1.09,-1.12,-1.12,-0.79,0.91,0.95,0.98
468.71,2.00,1.00,2.01,1.02,-1.07,-1.08,-0.77,0.93,0.94,1.00
473.40,2.00,1.00,1.99,0.98,-1.03,-1.05,-0.74,0.97,0.95,1.00
478.13,2.00,0.98,2.00,0.98,-1.00,-1.02,-0.72,1.00,1.00,1.02
482.91,2.00,0.97,2.00,0.97,-0.97,-0.99,-0.69,1.03,1.03,1.03
487.74,2.00,0.94,2.00,0.94,-0.94,-0.95,-0.67,1.06,1.06,1.06
492.62,2.00,0.91,2.00,0.92,-0.91,-0.92,-0.64,1.09,1.09,1.08
497.55,2.00,0.89,2.02,0.91,-0.87,-0.89,-0.62,1.13,1.15,1.10
502.52,2.00,0.88,2.00,0.87,-0.82,-0.86,-0.59,1.18,1.18,1.12
507.55,2.00,0.86,1.94,0.79,-0.76,-0.82,-0.57,1.24,1.18,1.14
512.62,1.83,0.66,1.87,0.69,-0.70,-0.79,-0.54,1.13,1.16,1.17
517.75,1.77,0.57,1.80,0.60,-0.64,-0.75,-0.51,1.13,1.15,1.20
522.93,1.77,0.55,1.76,0.53,-0.59,-0.72,-0.49,1.18,1.17,1.22
528.16,1.77,0.53,1.76,0.52,-0.54,-0.69,-0.46,1.23,1.22,1.24
533.44,1.77,0.51,1.77,0.51,-0.50,-0.65,-0.43,1.27,1.27,1.26
538.77,1.77,0.49,1.77,0.49,-0.47,-0.62,-0.40,1.30,1.30,1.28
544.16,1.77,0.47,1.77,0.47,-0.46,-0.58,-0.37,1.31,1.31,1.30
549.60,1.77,0.45,1.77,0.45,-0.46,-0.55,-0.34,1.31,1.31,1.32
555.10,1.77,0.45,1.77,0.44,-0.46,-0.51,-0.31,1.31,1.31,1.32
