frequency,raw,error,smoothed,error_smoothed,equalization,parametric_eq,fixed_band_eq,equalized_raw,equalized_smoothed,target
20.00,1.09,-2.43,1.09,-2.43,2.45,2.25,0.61,3.54,3.54,3.51
20.20,1.13,-2.42,1.13,-2.42,2.43,2.23,0.63,3.56,3.56,3.55
20.40,1.18,-2.40,1.18,-2.41,2.40,2.21,0.65,3.58,3.58,3.58
20.61,1.22,-2.39,1.22,-2.39,2.38,2.19,0.68,3.60,3.60,3.61
20.81,1.27,-2.37,1.27,-2.38,2.36,2.17,0.70,3.63,3.63,3.64
21.02,1.31,-2.36,1.31,-2.36,2.34,2.15,0.72,3.65,3.65,3.67
21.23,1.36,-2.33,1.36,-2.33,2.31,2.13,0.74,3.67,3.67,3.69
21.44,1.41,-2.29,1.41,-2.29,2.29,2.10,0.77,3.70,3.70,3.70
21.66,1.46,-2.25,1.46,-2.25,2.26,2.08,0.79,3.72,3.72,3.71
21.87,1.51,-2.21,1.51,-2.22,2.24,2.06,0.82,3.75,3.74,3.72
22.09,1.54,-2.19,1.54,-2.19,2.21,2.03,0.84,3.75,3.75,3.73
22.31,1.56,-2.18,1.56,-2.18,2.19,2.01,0.87,3.75,3.75,3.74
22.54,1.57,-2.17,1.57,-2.17,2.17,1.98,0.90,3.74,3.74,3.74
22.76,1.58,-2.16,1.58,-2.16,2.15,1.95,0.93,3.73,3.73,3.74
22.99,1.59,-2.15,1.60,-2.15,2.13,1.93,0.96,3.72,3.73,3.74
23.22,1.63,-2.12,1.63,-2.12,2.11,1.90,0.98,3.74,3.74,3.75
23.45,1.67,-2.08,1.67,-2.09,2.08,1.87,1.01,3.75,3.75,3.75
23.69,1.71,-2.05,1.71,-2.05,2.04,1.84,1.05,3.75,3.76,3.76
23.92,1.76,-2.00,1.76,-2.01,2.00,1.81,1.08,3.76,3.76,3.76
24.16,1.80,-1.97,1.80,-1.96,1.96,1.79,1.11,3.76,3.76,3.77
24.40,1.85,-1.92,1.85,-1.92,1.92,1.76,1.14,3.77,3.77,3.77
24.65,1.89,-1.87,1.89,-1.87,1.88,1.73,1.17,3.77,3.77,3.76
24.89,1.94,-1.82,1.94,-1.82,1.84,1.70,1.21,3.78,3.78,3.76
25.14,1.97,-1.79,1.96,-1.79,1.81,1.67,1.24,3.78,3.77,3.76
25.39,1.98,-1.77,1.98,-1.77,1.78,1.64,1.27,3.76,3.76,3.75
25.65,1.99,-1.76,1.99,-1.75,1.74,1.61,1.31,3.73,3.73,3.75
25.91,2.00,-1.74,2.00,-1.73,1.71,1.58,1.34,3.71,3.71,3.74
26.16,2.03,-1.69,2.03,-1.70,1.68,1.54,1.37,3.71,3.71,3.72
26.43,2.07,-1.66,2.07,-1.65,1.64,1.51,1.40,3.71,3.71,3.72
26.69,2.12,-1.59,2.12,-1.60,1.60,1.48,1.43,3.72,3.72,3.71
26.96,2.16,-1.55,2.15,-1.56,1.57,1.45,1.46,3.73,3.72,3.71
27.23,2.18,-1.52,2.18,-1.52,1.54,1.42,1.49,3.72,3.72,3.70
27.50,2.20,-1.50,2.20,-1.49,1.51,1.39,1.52,3.71,3.71,3.70
27.77,2.22,-1.46,2.22,-1.47,1.49,1.36,1.55,3.70,3.70,3.68
28.05,2.23,-1.45,2.23,-1.45,1.46,1.33,1.57,3.69,3.69,3.68
28.33,2.23,-1.44,2.23,-1.44,1.44,1.30,1.60,3.67,3.67,3.67
28.62,2.23,-1.43,2.23,-1.44,1.41,1.26,1.62,3.64,3.64,3.66
28.90,2.23,-1.43,2.24,-1.41,1.38,1.23,1.64,3.61,3.62,3.66
29.19,2.27,-1.38,2.28,-1.38,1.34,1.20,1.66,3.61,3.62,3.65
29.48,2.34,-1.32,2.34,-1.31,1.31,1.17,1.67,3.65,3.64,3.66
29.78,2.40,-1.25,2.40,-1.25,1.27,1.14,1.68,3.67,3.67,3.64
30.08,2.45,-1.19,2.44,-1.20,1.23,1.11,1.69,3.68,3.67,3.63
30.38,2.45,-1.17,2.45,-1.17,1.20,1.08,1.70,3.65,3.65,3.62
30.68,2.45,-1.17,2.45,-1.16,1.18,1.05,1.70,3.63,3.63,3.62
30.99,2.45,-1.16,2.45,-1.16,1.16,1.02,1.70,3.61,3.61,3.61
31.30,2.45,-1.16,2.45,-1.16,1.16,0.99,1.70,3.60,3.60,3.61
31.61,2.45,-1.16,2.45,-1.15,1.15,0.96,1.69,3.60,3.60,3.61
31.93,2.45,-1.15,2.45,-1.14,1.15,0.93,1.68,3.60,3.60,3.60
32.24,2.45,-1.13,2.44,-1.14,1.13,0.90,1.67,3.58,3.58,3.58
32.57,2.45,-1.12,2.44,-1.13,1.11,0.87,1.65,3.56,3.55,3.57
32.89,2.45,-1.13,2.46,-1.11,1.07,0.84,1.63,3.52,3.54,3.58
33.22,2.50,-1.07,2.51,-1.06,1.03,0.81,1.61,3.53,3.54,3.57
33.55,2.58,-0.99,2.58,-0.99,0.99,0.79,1.59,3.57,3.57,3.57
33.89,2.65,-0.91,2.64,-0.92,0.96,0.76,1.56,3.60,3.59,3.56
34.23,2.68,-0.88,2.67,-0.88,0.92,0.73,1.53,3.60,3.59,3.56
34.57,2.68,-0.86,2.68,-0.86,0.89,0.70,1.50,3.57,3.58,3.54
34.92,2.68,-0.86,2.68,-0.86,0.87,0.67,1.47,3.55,3.55,3.54
35.27,2.68,-0.86,2.68,-0.86,0.86,0.65,1.43,3.54,3.54,3.54
35.62,2.68,-0.85,2.68,-0.85,0.85,0.62,1.40,3.53,3.53,3.53
35.97,2.68,-0.85,2.68,-0.85,0.84,0.59,1.36,3.52,3.52,3.53
36.33,2.68,-0.84,2.67,-0.85,0.82,0.56,1.32,3.50,3.49,3.52
36.70,2.68,-0.83,2.68,-0.83,0.79,0.54,1.28,3.47,3.47,3.51
37.06,2.69,-0.81,2.72,-0.79,0.75,0.51,1.24,3.44,3.47,3.50
37.43,2.78,-0.72,2.78,-0.71,0.71,0.48,1.20,3.49,3.49,3.50
37.81,2.87,-0.62,2.85,-0.63,0.66,0.46,1.15,3.53,3.51,3.48
38.19,2.91,-0.56,2.90,-0.58,0.62,0.43,1.11,3.53,3.52,3.47
38.57,2.91,-0.56,2.92,-0.55,0.58,0.41,1.06,3.49,3.50,3.47
38.95,2.91,-0.55,2.91,-0.54,0.55,0.38,1.02,3.46,3.46,3.46
39.34,2.91,-0.53,2.91,-0.54,0.53,0.36,0.98,3.44,3.44,3.44
39.74,2.91,-0.52,2.91,-0.53,0.52,0.33,0.93,3.43,3.43,3.43
40.14,2.91,-0.53,2.91,-0.52,0.51,0.31,0.89,3.42,3.42,3.44
40.54,2.91,-0.51,2.91,-0.52,0.51,0.28,0.84,3.42,3.42,3.42
40.94,2.91,-0.51,2.91,-0.51,0.51,0.26,0.80,3.42,3.42,3.42
41.35,2.91,-0.50,2.91,-0.50,0.51,0.23,0.75,3.42,3.42,3.41
41.76,2.91,-0.49,2.91,-0.49,0.50,0.21,0.71,3.41,3.41,3.40
42.18,2.91,-0.48,2.91,-0.48,0.49,0.19,0.67,3.40,3.40,3.39
42.60,2.91,-0.47,2.91,-0.47,0.47,0.16,0.62,3.38,3.38,3.37
43.03,2.91,-0.45,2.90,-0.46,0.43,0.14,0.58,3.34,3.33,3.36
43.46,2.91,-0.43,2.90,-0.43,0.38,0.12,0.54,3.29,3.28,3.34
43.90,2.91,-0.39,2.94,-0.37,0.33,0.09,0.49,3.24,3.26,3.30
44.33,2.99,-0.29,3.00,-0.28,0.27,0.07,0.45,3.26,3.27,3.28
44.78,3.09,-0.16,3.07,-0.18,0.21,0.05,0.41,3.30,3.28,3.25
45.23,3.14,-0.09,3.13,-0.10,0.15,0.03,0.37,3.29,3.28,3.23
45.68,3.14,-0.06,3.15,-0.06,0.10,0.00,0.33,3.24,3.25,3.20
46.13,3.14,-0.05,3.14,-0.04,0.06,-0.02,0.29,3.20,3.20,3.19
46.60,3.14,-0.04,3.14,-0.03,0.03,-0.04,0.25,3.17,3.17,3.18
47.06,3.14,-0.03,3.14,-0.02,0.01,-0.06,0.21,3.15,3.15,3.16
47.53,3.14,-0.01,3.14,-0.02,0.00,-0.08,0.17,3.14,3.14,3.15
48.01,3.14,-0.01,3.14,-0.01,-0.00,-0.10,0.13,3.14,3.14,3.15
48.49,3.14,-0.01,3.14,-0.00,-0.00,-0.12,0.09,3.14,3.14,3.15
48.97,3.14,0.01,3.14,0.01,-0.00,-0.15,0.05,3.14,3.14,3.13
49.46,3.14,0.02,3.14,0.01,-0.01,-0.17,0.01,3.13,3.13,3.12
49.96,3.14,0.02,3.14,0.01,-0.01,-0.19,-0.02,3.13,3.13,3.12
50.46,3.14,0.00,3.14,0.01,-0.01,-0.21,-0.06,3.13,3.13,3.14
50.96,3.14,0.00,3.14,0.01,-0.01,-0.23,-0.10,3.13,3.13,3.14
51.47,3.14,0.01,3.14,0.01,-0.01,-0.25,-0.13,3.13,3.13,3.13
51.99,3.14,0.02,3.14,0.01,-0.02,-0.27,-0.17,3.12,3.12,3.12
52.51,3.14,0.02,3.14,0.02,-0.03,-0.29,-0.20,3.11,3.11,3.12
53.03,3.14,0.04,3.14,0.03,-0.04,-0.31,-0.24,3.10,3.10,3.10
53.56,3.14,0.05,3.14,0.05,-0.06,-0.33,-0.27,3.08,3.08,3.08
54.10,3.14,0.07,3.14,0.08,-0.08,-0.35,-0.31,3.06,3.06,3.06
54.64,3.14,0.10,3.14,0.10,-0.10,-0.37,-0.34,3.04,3.04,3.03
55.18,3.14,0.14,3.14,0.13,-0.13,-0.38,-0.37,3.01,3.01,3.00
55.74,3.14,0.17,3.14,0.16,-0.16,-0.40,-0.40,2.98,2.98,2.97
56.29,3.14,0.19,3.14,0.19,-0.18,-0.42,-0.43,2.96,2.96,2.95
56.86,3.14,0.22,3.14,0.22,-0.21,-0.44,-0.46,2.93,2.93,2.92
57.42,3.14,0.26,3.14,0.26,-0.24,-0.46,-0.49,2.90,2.90,2.88
58.00,3.14,0.29,3.14,0.29,-0.28,-0.48,-0.52,2.86,2.86,2.85
58.58,3.14,0.33,3.13,0.31,-0.34,-0.50,-0.55,2.80,2.80,2.81
59.16,3.14,0.35,3.13,0.34,-0.40,-0.52,-0.57,2.74,2.73,2.79
59.76,3.14,0.38,3.17,0.42,-0.47,-0.53,-0.60,2.67,2.71,2.76
60.35,3.22,0.51,3.24,0.52,-0.54,-0.55,-0.62,2.68,2.70,2.71
60.96,3.36,0.68,3.31,0.64,-0.61,-0.57,-0.65,2.75,2.70,2.68
61.57,3.37,0.75,3.37,0.74,-0.68,-0.59,-0.67,2.69,2.68,2.62
62.18,3.37,0.78,3.38,0.79,-0.75,-0.61,-0.69,2.62,2.63,2.59
62.80,3.37,0.82,3.37,0.82,-0.82,-0.63,-0.71,2.55,2.56,2.55
63.43,3.37,0.86,3.37,0.86,-0.87,-0.64,-0.73,2.50,2.50,2.51
64.07,3.37,0.89,3.37,0.89,-0.91,-0.66,-0.75,2.46,2.46,2.48
64.71,3.37,0.93,3.37,0.93,-0.94,-0.68,-0.76,2.43,2.43,2.44
65.35,3.37,0.96,3.37,0.96,-0.96,-0.70,-0.78,2.41,2.41,2.41
66.01,3.37,0.99,3.37,0.99,-0.99,-0.71,-0.79,2.38,2.38,2.37
66.67,3.37,1.01,3.37,1.02,-1.02,-0.73,-0.81,2.34,2.34,2.36
67.33,3.37,1.04,3.37,1.04,-1.06,-0.75,-0.82,2.31,2.31,2.33
68.01,3.37,1.06,3.37,1.06,-1.08,-0.77,-0.84,2.29,2.29,2.31
68.69,3.37,1.08,3.37,1.09,-1.09,-0.78,-0.85,2.28,2.28,2.28
69.37,3.37,1.11,3.38,1.12,-1.08,-0.80,-0.86,2.29,2.30,2.26
70.07,3.37,1.13,3.38,1.13,-1.08,-0.82,-0.87,2.29,2.30,2.24
70.77,3.37,1.14,3.33,1.10,-1.06,-0.84,-0.88,2.31,2.27,2.23
71.48,3.26,1.04,3.26,1.04,-1.05,-0.85,-0.90,2.21,2.21,2.22
72.19,3.14,0.95,3.18,0.99,-1.03,-0.87,-0.91,2.11,2.15,2.19
72.91,3.14,0.97,3.13,0.96,-1.02,-0.89,-0.92,2.12,2.11,2.17
73.64,3.14,1.00,3.13,0.98,-1.02,-0.91,-0.93,2.12,2.11,2.14
74.38,3.14,1.01,3.14,1.02,-1.02,-0.92,-0.94,2.12,2.12,2.13
75.12,3.14,1.04,3.14,1.04,-1.03,-0.94,-0.95,2.11,2.11,2.10
75.87,3.14,1.06,3.14,1.06,-1.04,-0.96,-0.96,2.09,2.09,2.08
76.63,3.14,1.08,3.14,1.08,-1.07,-0.97,-0.98,2.07,2.07,2.06
77.40,3.14,1.10,3.14,1.10,-1.09,-0.99,-0.99,2.05,2.05,2.04
78.17,3.14,1.12,3.14,1.11,-1.11,-1.00,-1.00,2.03,2.03,2.02
78.95,3.14,1.12,3.14,1.12,-1.12,-1.02,-1.02,2.02,2.02,2.02
79.74,3.14,1.13,3.14,1.13,-1.13,-1.03,-1.03,2.01,2.01,2.01
80.54,3.14,1.14,3.14,1.13,-1.13,-1.05,-1.05,2.01,2.01,2.00
81.35,3.14,1.14,3.14,1.14,-1.14,-1.06,-1.06,2.00,2.00,2.00
82.16,3.14,1.14,3.14,1.14,-1.14,-1.08,-1.08,2.00,2.00,2.00
82.98,3.14,1.13,3.14,1.13,-1.13,-1.09,-1.09,2.01,2.01,2.01
83.81,3.14,1.13,3.14,1.13,-1.13,-1.10,-1.11,2.01,2.01,2.01
84.65,3.14,1.12,3.14,1.12,-1.12,-1.11,-1.13,2.02,2.02,2.01
85.50,3.14,1.11,3.14,1.11,-1.11,-1.13,-1.15,2.03,2.03,2.03
86.35,3.14,1.10,3.14,1.10,-1.10,-1.13,-1.17,2.04,2.04,2.04
87.22,3.14,1.09,3.14,1.09,-1.09,-1.14,-1.19,2.05,2.05,2.05
88.09,3.14,1.08,3.14,1.08,-1.08,-1.15,-1.22,2.06,2.06,2.06
88.97,3.14,1.07,3.14,1.07,-1.07,-1.15,-1.24,2.07,2.07,2.07
89.86,3.14,1.05,3.14,1.06,-1.06,-1.16,-1.27,2.08,2.08,2.09
90.76,3.14,1.06,3.14,1.05,-1.05,-1.16,-1.29,2.09,2.09,2.08
91.66,3.14,1.04,3.14,1.05,-1.05,-1.15,-1.32,2.09,2.09,2.09
92.58,3.14,1.05,3.14,1.05,-1.04,-1.15,-1.35,2.10,2.10,2.09
93.51,3.14,1.04,3.14,1.04,-1.04,-1.14,-1.37,2.10,2.10,2.10
94.44,3.14,1.04,3.14,1.04,-1.04,-1.13,-1.40,2.10,2.10,2.10
95.39,3.14,1.04,3.14,1.04,-1.04,-1.12,-1.43,2.09,2.09,2.09
96.34,3.14,1.05,3.14,1.05,-1.05,-1.11,-1.46,2.09,2.09,2.09
97.30,3.14,1.05,3.14,1.05,-1.05,-1.11,-1.50,2.09,2.09,2.09
98.28,3.14,1.06,3.14,1.06,-1.05,-1.11,-1.53,2.09,2.09,2.08
99.26,3.14,1.07,3.14,1.07,-1.05,-1.12,-1.56,2.09,2.09,2.07
100.25,3.14,1.08,3.14,1.08,-1.06,-1.15,-1.59,2.08,2.08,2.06
101.25,3.14,1.09,3.14,1.09,-1.08,-1.18,-1.63,2.06,2.06,2.05
102.27,3.14,1.10,3.13,1.10,-1.11,-1.22,-1.66,2.02,2.02,2.04
103.29,3.14,1.13,3.13,1.11,-1.16,-1.27,-1.70,1.98,1.97,2.01
104.32,3.14,1.15,3.16,1.17,-1.22,-1.32,-1.73,1.92,1.95,1.99
105.37,3.20,1.23,3.22,1.26,-1.28,-1.37,-1.77,1.92,1.94,1.96
106.42,3.33,1.39,3.30,1.37,-1.35,-1.43,-1.80,1.98,1.95,1.94
107.48,3.37,1.48,3.36,1.47,-1.42,-1.48,-1.84,1.95,1.94,1.89
108.56,3.37,1.53,3.38,1.54,-1.49,-1.53,-1.87,1.88,1.89,1.84
109.64,3.37,1.57,3.37,1.58,-1.56,-1.57,-1.91,1.81,1.81,1.80
110.74,3.37,1.62,3.37,1.62,-1.63,-1.62,-1.94,1.74,1.74,1.75
111.85,3.37,1.66,3.37,1.67,-1.69,-1.66,-1.97,1.68,1.68,1.71
112.97,3.37,1.73,3.37,1.72,-1.73,-1.70,-2.00,1.63,1.63,1.64
114.10,3.37,1.77,3.37,1.77,-1.78,-1.74,-2.04,1.59,1.59,1.60
115.24,3.37,1.83,3.37,1.83,-1.82,-1.78,-2.06,1.55,1.55,1.54
116.39,3.37,1.87,3.37,1.87,-1.87,-1.81,-2.09,1.50,1.50,1.50
117.55,3.37,1.92,3.37,1.92,-1.91,-1.85,-2.12,1.46,1.46,1.45
118.73,3.37,1.96,3.37,1.96,-1.95,-1.88,-2.14,1.42,1.42,1.41
119.92,3.37,1.99,3.37,1.99,-1.99,-1.92,-2.16,1.38,1.38,1.38
121.12,3.37,2.02,3.37,2.02,-2.02,-1.95,-2.19,1.35,1.35,1.35
122.33,3.37,2.05,3.37,2.04,-2.04,-1.98,-2.20,1.32,1.32,1.32
123.55,3.37,2.06,3.37,2.07,-2.07,-2.01,-2.22,1.30,1.30,1.31
124.79,3.37,2.09,3.37,2.09,-2.09,-2.04,-2.23,1.28,1.28,1.28
126.03,3.37,2.11,3.37,2.11,-2.12,-2.07,-2.25,1.25,1.25,1.25
127.29,3.37,2.13,3.37,2.14,-2.14,-2.10,-2.26,1.23,1.23,1.24
128.57,3.37,2.16,3.37,2.16,-2.16,-2.13,-2.27,1.21,1.21,1.21
129.85,3.37,2.19,3.37,2.19,-2.18,-2.16,-2.27,1.19,1.19,1.18
131.15,3.37,2.21,3.37,2.21,-2.20,-2.19,-2.28,1.16,1.16,1.16
132.46,3.37,2.23,3.37,2.23,-2.23,-2.22,-2.28,1.14,1.14,1.14
133.79,3.37,2.24,3.37,2.25,-2.25,-2.25,-2.28,1.12,1.12,1.12
135.12,3.37,2.28,3.37,2.27,-2.27,-2.28,-2.28,1.09,1.09,1.09
136.48,3.37,2.29,3.37,2.29,-2.30,-2.31,-2.28,1.07,1.07,1.08
137.84,3.37,2.32,3.37,2.32,-2.32,-2.34,-2.27,1.05,1.05,1.05
139.22,3.37,2.36,3.37,2.35,-2.34,-2.37,-2.27,1.03,1.03,1.01
140.61,3.37,2.38,3.37,2.37,-2.36,-2.39,-2.27,1.00,1.00,0.99
142.02,3.37,2.38,3.37,2.39,-2.39,-2.42,-2.26,0.98,0.98,0.98
143.44,3.37,2.41,3.37,2.41,-2.41,-2.45,-2.26,0.96,0.96,0.96
144.87,3.37,2.44,3.37,2.44,-2.44,-2.48,-2.25,0.93,0.93,0.93
146.32,3.37,2.48,3.37,2.47,-2.47,-2.51,-2.24,0.90,0.90,0.89
147.78,3.37,2.50,3.37,2.50,-2.51,-2.53,-2.24,0.86,0.86,0.87
149.26,3.37,2.54,3.37,2.54,-2.55,-2.56,-2.23,0.82,0.82,0.83
150.75,3.37,2.59,3.37,2.59,-2.60,-2.59,-2.23,0.77,0.77,0.78
152.26,3.37,2.65,3.37,2.65,-2.66,-2.61,-2.23,0.71,0.71,0.72
153.78,3.37,2.71,3.37,2.71,-2.73,-2.64,-2.22,0.64,0.64,0.66
155.32,3.37,2.77,3.37,2.77,-2.78,-2.67,-2.22,0.59,0.59,0.59
156.88,3.37,2.83,3.37,2.83,-2.83,-2.69,-2.22,0.54,0.54,0.54
158.44,3.37,2.89,3.38,2.90,-2.86,-2.72,-2.22,0.51,0.52,0.48
160.03,3.37,2.95,3.37,2.95,-2.89,-2.74,-2.22,0.48,0.48,0.42
161.63,3.37,2.99,3.32,2.95,-2.91,-2.77,-2.22,0.46,0.41,0.38
163.24,3.23,2.90,3.25,2.91,-2.92,-2.79,-2.23,0.31,0.33,0.33
164.88,3.14,2.84,3.18,2.88,-2.92,-2.81,-2.23,0.22,0.26,0.30
166.53,3.14,2.87,3.13,2.86,-2.92,-2.84,-2.24,0.22,0.21,0.27
168.19,3.14,2.90,3.13,2.89,-2.91,-2.86,-2.25,0.23,0.22,0.24
169.87,3.14,2.92,3.14,2.92,-2.91,-2.88,-2.26,0.23,0.23,0.22
171.57,3.14,2.93,3.14,2.92,-2.91,-2.90,-2.27,0.23,0.23,0.21
173.29,3.14,2.92,3.14,2.92,-2.91,-2.92,-2.29,0.23,0.23,0.22
175.02,3.14,2.92,3.14,2.92,-2.92,-2.94,-2.31,0.22,0.22,0.22
176.77,3.14,2.92,3.14,2.92,-2.92,-2.96,-2.32,0.22,0.22,0.21
178.54,3.14,2.92,3.14,2.92,-2.92,-2.98,-2.34,0.22,0.22,0.22
180.32,3.14,2.92,3.14,2.92,-2.92,-3.00,-2.37,0.22,0.22,0.22
182.13,3.14,2.91,3.14,2.91,-2.92,-3.01,-2.39,0.22,0.22,0.23
183.95,3.14,2.91,3.14,2.91,-2.92,-3.03,-2.41,0.22,0.22,0.22
185.79,3.14,2.91,3.14,2.92,-2.92,-3.04,-2.44,0.22,0.22,0.23
187.65,3.14,2.93,3.14,2.93,-2.93,-3.06,-2.47,0.21,0.21,0.21
189.52,3.14,2.94,3.14,2.94,-2.94,-3.07,-2.50,0.20,0.20,0.19
191.42,3.14,2.96,3.14,2.96,-2.95,-3.08,-2.53,0.19,0.19,0.18
193.33,3.14,2.97,3.14,2.97,-2.97,-3.09,-2.57,0.17,0.17,0.17
195.27,3.14,2.98,3.14,2.98,-2.98,-3.10,-2.60,0.16,0.16,0.16
197.22,3.14,2.99,3.14,3.00,-3.00,-3.11,-2.64,0.14,0.14,0.15
199.19,3.14,3.02,3.14,3.02,-3.01,-3.12,-2.68,0.12,0.12,0.12
201.18,3.14,3.03,3.14,3.03,-3.03,-3.12,-2.71,0.11,0.11,0.11
203.19,3.14,3.04,3.14,3.05,-3.05,-3.13,-2.75,0.09,0.09,0.10
205.23,3.14,3.06,3.14,3.06,-3.06,-3.13,-2.79,0.08,0.08,0.08
207.28,3.14,3.07,3.14,3.08,-3.08,-3.14,-2.83,0.06,0.06,0.07
209.35,3.14,3.09,3.14,3.10,-3.09,-3.14,-2.87,0.04,0.04,0.05
211.44,3.14,3.12,3.14,3.11,-3.11,-3.14,-2.91,0.03,0.03,0.02
213.56,3.14,3.13,3.14,3.13,-3.13,-3.14,-2.95,0.01,0.01,0.01
215.69,3.14,3.13,3.14,3.14,-3.14,-3.13,-2.99,0.00,0.00,0.01
217.85,3.14,3.15,3.14,3.15,-3.15,-3.13,-3.03,-0.01,-0.01,-0.01
220.03,3.14,3.16,3.14,3.16,-3.16,-3.13,-3.07,-0.03,-0.03,-0.02
222.23,3.14,3.18,3.14,3.18,-3.18,-3.12,-3.10,-0.04,-0.04,-0.04
224.45,3.14,3.18,3.14,3.18,-3.19,-3.11,-3.14,-0.05,-0.05,-0.04
226.70,3.14,3.19,3.14,3.18,-3.20,-3.10,-3.17,-0.06,-0.06,-0.05
228.96,3.14,3.18,3.14,3.18,-3.19,-3.10,-3.20,-0.05,-0.05,-0.04
231.25,3.14,3.18,3.15,3.19,-3.17,-3.08,-3.22,-0.03,-0.02,-0.04
233.57,3.14,3.18,3.14,3.19,-3.14,-3.07,-3.25,-0.00,0.00,-0.05
235.90,3.14,3.19,3.10,3.15,-3.11,-3.06,-3.26,0.03,-0.01,-0.05
238.26,3.03,3.08,3.03,3.08,-3.07,-3.04,-3.28,-0.04,-0.04,-0.05
240.64,2.93,2.97,2.96,3.00,-3.03,-3.03,-3.29,-0.10,-0.07,-0.04
243.05,2.91,2.94,2.91,2.94,-2.99,-3.01,-3.30,-0.08,-0.08,-0.03
245.48,2.91,2.92,2.90,2.92,-2.95,-2.99,-3.30,-0.04,-0.05,-0.01
247.93,2.91,2.91,2.91,2.91,-2.91,-2.98,-3.30,-0.00,-0.00,0.00
250.41,2.91,2.90,2.91,2.89,-2.88,-2.96,-3.30,0.03,0.03,0.01
252.92,2.91,2.88,2.91,2.88,-2.86,-2.94,-3.29,0.05,0.05,0.03
255.45,2.91,2.85,2.91,2.86,-2.85,-2.91,-3.28,0.06,0.06,0.06
258.00,2.91,2.84,2.91,2.84,-2.84,-2.89,-3.26,0.07,0.07,0.07
260.58,2.91,2.83,2.91,2.82,-2.82,-2.87,-3.23,0.09,0.09,0.08
263.19,2.91,2.80,2.91,2.81,-2.81,-2.84,-3.21,0.10,0.10,0.11
265.82,2.91,2.79,2.91,2.79,-2.79,-2.82,-3.18,0.12,0.12,0.12
268.48,2.91,2.77,2.91,2.77,-2.78,-2.79,-3.14,0.13,0.13,0.14
271.16,2.91,2.74,2.91,2.75,-2.76,-2.76,-3.11,0.15,0.15,0.16
273.87,2.91,2.73,2.91,2.73,-2.73,-2.73,-3.07,0.18,0.18,0.18
276.61,2.91,2.70,2.91,2.71,-2.69,-2.71,-3.02,0.22,0.22,0.21
279.38,2.91,2.68,2.92,2.70,-2.64,-2.68,-2.98,0.27,0.28,0.23
282.17,2.91,2.66,2.89,2.63,-2.58,-2.65,-2.93,0.32,0.30,0.25
284.99,2.86,2.58,2.82,2.54,-2.53,-2.62,-2.88,0.33,0.29,0.28
287.84,2.69,2.38,2.74,2.44,-2.47,-2.59,-2.83,0.22,0.28,0.31
290.72,2.68,2.35,2.69,2.35,-2.41,-2.55,-2.77,0.27,0.28,0.33
293.63,2.68,2.33,2.66,2.30,-2.35,-2.52,-2.72,0.33,0.31,0.35
296.57,2.68,2.29,2.68,2.30,-2.30,-2.49,-2.66,0.38,0.37,0.39
299.53,2.68,2.27,2.68,2.28,-2.26,-2.46,-2.61,0.42,0.42,0.41
302.53,2.68,2.27,2.68,2.25,-2.24,-2.42,-2.55,0.44,0.44,0.41
305.55,2.68,2.23,2.68,2.24,-2.22,-2.39,-2.50,0.46,0.46,0.45
308.61,2.68,2.22,2.68,2.21,-2.21,-2.35,-2.44,0.47,0.47,0.46
311.69,2.68,2.19,2.68,2.19,-2.20,-2.32,-2.39,0.48,0.48,0.49
314.81,2.68,2.17,2.68,2.18,-2.19,-2.29,-2.33,0.49,0.49,0.51
317.96,2.68,2.17,2.68,2.17,-2.18,-2.25,-2.28,0.50,0.50,0.51
321.14,2.68,2.17,2.68,2.17,-2.18,-2.22,-2.23,0.50,0.50,0.51
324.35,2.68,2.17,2.68,2.16,-2.17,-2.18,-2.17,0.51,0.51,0.51
327.59,2.68,2.15,2.68,2.16,-2.16,-2.15,-2.12,0.52,0.52,0.53
330.87,2.68,2.14,2.68,2.15,-2.14,-2.11,-2.07,0.54,0.54,0.54
334.18,2.68,2.14,2.70,2.15,-2.11,-2.07,-2.03,0.57,0.59,0.54
337.52,2.68,2.13,2.68,2.12,-2.06,-2.04,-1.98,0.61,0.61,0.55
340.90,2.68,2.11,2.62,2.05,-2.02,-2.00,-1.93,0.66,0.60,0.57
344.30,2.50,1.91,2.54,1.95,-1.96,-1.97,-1.89,0.53,0.58,0.59
347.75,2.45,1.84,2.47,1.87,-1.91,-1.93,-1.84,0.54,0.56,0.61
351.23,2.45,1.82,2.43,1.81,-1.86,-1.90,-1.80,0.59,0.58,0.63
354.74,2.45,1.80,2.44,1.79,-1.81,-1.86,-1.76,0.64,0.63,0.65
358.28,2.45,1.77,2.45,1.77,-1.77,-1.82,-1.72,0.68,0.68,0.68
361.87,2.45,1.75,2.45,1.75,-1.74,-1.79,-1.69,0.71,0.71,0.70
365.49,2.45,1.73,2.45,1.73,-1.72,-1.75,-1.65,0.73,0.73,0.72
369.14,2.45,1.72,2.45,1.71,-1.70,-1.72,-1.62,0.75,0.75,0.73
372.83,2.45,1.70,2.45,1.70,-1.69,-1.68,-1.58,0.76,0.76,0.75
376.56,2.45,1.68,2.45,1.67,-1.68,-1.65,-1.55,0.77,0.77,0.77
380.33,2.45,1.65,2.45,1.65,-1.67,-1.61,-1.52,0.78,0.78,0.80
384.13,2.45,1.63,2.45,1.64,-1.65,-1.58,-1.49,0.79,0.79,0.82
387.97,2.45,1.63,2.45,1.63,-1.63,-1.54,-1.46,0.82,0.82,0.82
391.85,2.45,1.62,2.46,1.62,-1.60,-1.51,-1.43,0.85,0.86,0.83
395.77,2.45,1.60,2.46,1.61,-1.56,-1.47,-1.41,0.89,0.89,0.85
399.73,2.45,1.59,2.42,1.56,-1.52,-1.44,-1.38,0.93,0.90,0.86
403.72,2.37,1.50,2.36,1.49,-1.48,-1.40,-1.36,0.89,0.88,0.87
407.76,2.26,1.38,2.29,1.42,-1.44,-1.37,-1.34,0.82,0.85,0.87
411.84,2.23,1.35,2.24,1.35,-1.40,-1.33,-1.31,0.83,0.84,0.88
415.96,2.23,1.34,2.22,1.33,-1.37,-1.30,-1.29,0.86,0.85,0.89
420.12,2.23,1.33,2.23,1.33,-1.34,-1.27,-1.27,0.89,0.89,0.90
424.32,2.23,1.33,2.23,1.32,-1.32,-1.23,-1.25,0.91,0.91,0.90
428.56,2.23,1.32,2.23,1.32,-1.31,-1.20,-1.23,0.92,0.92,0.91
432.85,2.23,1.32,2.23,1.32,-1.32,-1.17,-1.21,0.91,0.91,0.91
437.18,2.23,1.31,2.23,1.31,-1.32,-1.13,-1.19,0.91,0.91,0.92
441.55,2.23,1.30,2.23,1.30,-1.31,-1.10,-1.17,0.92,0.92,0.93
445.96,2.23,1.29,2.23,1.30,-1.28,-1.07,-1.15,0.95,0.95,0.94
450.42,2.23,1.29,2.24,1.30,-1.25,-1.04,-1.13,0.98,0.99,0.94
454.93,2.23,1.27,2.21,1.26,-1.21,-1.00,-1.11,1.02,1.00,0.96
459.48,2.18,1.22,2.14,1.18,-1.16,-0.97,-1.09,1.01,0.98,0.96
464.07,2.03,1.05,2.07,1.09,-1.12,-0.94,-1.07,0.91,0.95,0.98
468.71,2.00,1.00,2.01,1.02,-1.07,-0.91,-1.05,0.93,0.94,1.00
473.40,2.00,1.00,1.99,0.98,-1.03,-0.88,-1.03,0.97,0.95,1.00
478.13,2.00,0.98,2.00,0.98,-1.00,-0.85,-1.01,1.00,1.00,1.02
482.91,2.00,0.97,2.00,0.97,-0.97,-0.81,-0.98,1.03,1.03,1.03
487.74,2.00,0.94,2.00,0.94,-0.94,-0.78,-0.96,1.06,1.06,1.06
492.62,2.00,0.91,2.00,0.92,-0.91,-0.75,-0.94,1.09,1.09,1.09
497.55,2.00,0.89,2.02,0.91,-0.86,-0.72,-0.91,1.13,1.15,1.11
502.52,2.00,0.87,2.00,0.87,-0.82,-0.69,-0.88,1.18,1.18,1.13
507.55,2.00,0.85,1.94,0.79,-0.76,-0.66,-0.86,1.24,1.18,1.14
512.62,1.83,0.65,1.87,0.69,-0.70,-0.63,-0.83,1.13,1.17,1.17
517.75,1.77,0.56,1.80,0.60,-0.64,-0.60,-0.80,1.13,1.16,1.20
522.93,1.77,0.55,1.76,0.53,-0.59,-0.57,-0.77,1.18,1.17,1.22
528.16,1.77,0.53,1.76,0.52,-0.54,-0.54,-0.74,1.23,1.22,1.24
533.44,1.77,0.51,1.77,0.51,-0.50,-0.51,-0.71,1.27,1.27,1.26
538.77,1.77,0.49,1.77,0.48,-0.47,-0.48,-0.68,1.30,1.30,1.28
544.16,1.77,0.47,1.77,0.47,-0.46,-0.45,-0.64,1.31,1.31,1.30
549.60,1.77,0.45,1.77,0.45,-0.46,-0.42,-0.61,1.31,1.31,1.32
