frequency,raw,error,smoothed,error_smoothed,equalization,parametric_eq,fixed_band_eq,equalized_raw,equalized_smoothed,target
20.00,-2.16,-8.52,-2.16,-8.51,6.00,6.34,2.54,3.84,3.84,6.35
20.20,-2.09,-8.43,-2.10,-8.44,6.00,6.32,2.62,3.91,3.90,6.33
20.40,-2.03,-8.36,-2.03,-8.36,6.00,6.29,2.69,3.97,3.97,6.32
20.61,-1.97,-8.29,-1.96,-8.28,6.00,6.27,2.77,4.03,4.04,6.32
20.81,-1.89,-8.20,-1.90,-8.20,6.00,6.25,2.85,4.11,4.10,6.30
21.02,-1.82,-8.12,-1.82,-8.12,6.00,6.22,2.94,4.18,4.18,6.29
21.23,-1.75,-8.04,-1.75,-8.04,6.00,6.20,3.02,4.25,4.25,6.28
21.44,-1.68,-7.97,-1.68,-7.97,6.00,6.18,3.11,4.32,4.32,6.29
21.66,-1.62,-7.90,-1.61,-7.89,6.00,6.16,3.20,4.38,4.39,6.28
21.87,-1.54,-7.81,-1.54,-7.82,6.00,6.13,3.29,4.46,4.46,6.27
22.09,-1.47,-7.73,-1.47,-7.74,6.00,6.11,3.39,4.53,4.53,6.26
22.31,-1.40,-7.66,-1.40,-7.66,6.00,6.10,3.49,4.60,4.60,6.26
22.54,-1.34,-7.58,-1.33,-7.59,6.00,6.08,3.59,4.66,4.67,6.25
22.76,-1.25,-7.51,-1.26,-7.51,6.00,6.06,3.69,4.75,4.74,6.26
22.99,-1.18,-7.43,-1.18,-7.43,6.00,6.04,3.80,4.82,4.82,6.25
23.22,-1.11,-7.35,-1.11,-7.36,6.00,6.03,3.91,4.89,4.89,6.24
23.45,-1.04,-7.28,-1.04,-7.28,6.00,6.01,4.02,4.96,4.96,6.24
23.69,-0.98,-7.21,-0.97,-7.20,6.00,6.00,4.13,5.02,5.03,6.23
23.92,-0.89,-7.13,-0.90,-7.13,6.00,5.98,4.25,5.11,5.10,6.23
24.16,-0.82,-7.06,-0.82,-7.06,6.00,5.97,4.36,5.18,5.18,6.23
24.40,-0.75,-7.00,-0.75,-6.99,6.00,5.96,4.48,5.25,5.25,6.24
24.65,-0.68,-6.92,-0.68,-6.91,6.00,5.95,4.60,5.32,5.32,6.24
24.89,-0.60,-6.83,-0.60,-6.84,6.00,5.94,4.73,5.40,5.40,6.23
25.14,-0.53,-6.75,-0.53,-6.76,6.00,5.93,4.85,5.47,5.47,6.22
25.39,-0.46,-6.68,-0.46,-6.68,6.00,5.93,4.98,5.54,5.54,6.22
25.65,-0.39,-6.60,-0.39,-6.61,6.00,5.92,5.10,5.61,5.61,6.21
25.91,-0.33,-6.53,-0.32,-6.53,6.00,5.91,5.23,5.67,5.68,6.21
26.16,-0.24,-6.46,-0.25,-6.46,6.01,5.91,5.35,5.76,5.76,6.22
26.43,-0.18,-6.38,-0.17,-6.38,6.01,5.90,5.48,5.84,5.84,6.20
26.69,-0.10,-6.31,-0.10,-6.31,6.01,5.89,5.60,5.91,5.91,6.20
26.96,-0.03,-6.23,-0.03,-6.22,6.01,5.88,5.72,5.99,5.98,6.20
27.23,0.04,-6.15,0.05,-6.15,6.00,5.87,5.84,6.05,6.05,6.19
27.50,0.13,-6.06,0.12,-6.07,5.98,5.86,5.95,6.11,6.10,6.19
27.77,0.20,-6.00,0.20,-6.00,5.95,5.84,6.06,6.15,6.15,6.20
28.05,0.27,-5.93,0.27,-5.92,5.91,5.82,6.17,6.17,6.18,6.20
28.33,0.35,-5.85,0.34,-5.85,5.85,5.79,6.26,6.20,6.20,6.19
28.62,0.41,-5.78,0.42,-5.78,5.79,5.76,6.36,6.21,6.21,6.19
28.90,0.49,-5.72,0.49,-5.71,5.72,5.72,6.44,6.21,6.21,6.20
29.19,0.57,-5.63,0.56,-5.63,5.65,5.68,6.51,6.21,6.21,6.20
29.48,0.64,-5.56,0.64,-5.56,5.57,5.63,6.58,6.20,6.21,6.20
29.78,0.71,-5.48,0.71,-5.49,5.49,5.57,6.63,6.20,6.20,6.20
30.08,0.78,-5.43,0.78,-5.42,5.42,5.51,6.67,6.20,6.20,6.21
30.38,0.85,-5.35,0.86,-5.34,5.34,5.45,6.71,6.20,6.20,6.20
30.68,0.94,-5.27,0.93,-5.27,5.27,5.37,6.72,6.21,6.20,6.20
30.99,1.01,-5.18,1.01,-5.19,5.20,5.30,6.73,6.21,6.20,6.20
31.30,1.07,-5.12,1.08,-5.12,5.12,5.22,6.72,6.20,6.20,6.20
31.61,1.15,-5.05,1.14,-5.05,5.05,5.13,6.71,6.19,6.19,6.19
31.93,1.20,-4.98,1.21,-4.98,4.97,5.05,6.67,6.18,6.18,6.18
32.24,1.28,-4.90,1.28,-4.90,4.90,4.96,6.63,6.17,6.18,6.18
32.57,1.35,-4.81,1.35,-4.82,4.82,4.87,6.57,6.18,6.17,6.17
32.89,1.43,-4.74,1.42,-4.74,4.75,4.78,6.50,6.17,6.17,6.16
33.22,1.49,-4.68,1.49,-4.67,4.68,4.69,6.42,6.16,6.16,6.16
33.55,1.56,-4.60,1.55,-4.60,4.60,4.60,6.33,6.16,6.16,6.16
33.89,1.62,-4.53,1.62,-4.53,4.53,4.51,6.23,6.14,6.14,6.15
34.23,1.69,-4.45,1.68,-4.45,4.45,4.42,6.12,6.14,6.13,6.13
34.57,1.75,-4.38,1.75,-4.38,4.38,4.33,6.00,6.12,6.12,6.13
34.92,1.81,-4.30,1.82,-4.31,4.30,4.24,5.88,6.12,6.12,6.12
35.27,1.88,-4.24,1.88,-4.23,4.22,4.15,5.74,6.11,6.11,6.12
35.62,1.96,-4.13,1.95,-4.14,4.15,4.07,5.61,6.10,6.10,6.09
35.97,2.03,-4.06,2.02,-4.06,4.07,3.98,5.47,6.09,6.09,6.09
36.33,2.09,-3.99,2.09,-3.98,3.99,3.90,5.33,6.07,6.07,6.07
36.70,2.15,-3.90,2.15,-3.91,3.91,3.81,5.18,6.06,6.06,6.06
37.06,2.22,-3.83,2.22,-3.83,3.82,3.73,5.03,6.04,6.04,6.04
37.43,2.29,-3.74,2.29,-3.74,3.74,3.65,4.88,6.03,6.03,6.03
37.81,2.36,-3.66,2.35,-3.66,3.66,3.57,4.73,6.01,6.01,6.02
38.19,2.42,-3.58,2.42,-3.58,3.58,3.48,4.58,5.99,6.00,5.99
38.57,2.49,-3.49,2.48,-3.49,3.49,3.40,4.42,5.98,5.98,5.98
38.95,2.55,-3.41,2.55,-3.41,3.41,3.33,4.27,5.96,5.95,5.95
39.34,2.61,-3.32,2.61,-3.32,3.32,3.25,4.12,5.93,5.93,5.93
39.74,2.67,-3.25,2.67,-3.24,3.24,3.17,3.97,5.91,5.91,5.91
40.14,2.72,-3.16,2.73,-3.16,3.16,3.09,3.82,5.88,5.89,5.89
40.54,2.79,-3.08,2.79,-3.08,3.08,3.01,3.67,5.87,5.87,5.87
40.94,2.86,-2.99,2.86,-2.99,2.99,2.94,3.52,5.85,5.85,5.84
41.35,2.92,-2.91,2.92,-2.91,2.91,2.86,3.37,5.83,5.83,5.83
41.76,2.99,-2.83,2.98,-2.83,2.83,2.78,3.23,5.82,5.81,5.81
42.18,3.04,-2.76,3.04,-2.75,2.75,2.71,3.09,5.79,5.79,5.80
42.60,3.10,-2.67,3.09,-2.68,2.67,2.63,2.95,5.77,5.77,5.77
43.03,3.15,-2.60,3.15,-2.60,2.59,2.55,2.81,5.74,5.74,5.74
43.46,3.21,-2.52,3.21,-2.51,2.51,2.48,2.67,5.72,5.72,5.72
43.90,3.27,-2.42,3.27,-2.43,2.43,2.40,2.54,5.71,5.70,5.70
44.33,3.33,-2.35,3.33,-2.35,2.35,2.32,2.40,5.68,5.68,5.68
44.78,3.39,-2.27,3.39,-2.27,2.27,2.25,2.27,5.65,5.65,5.65
45.23,3.44,-2.19,3.44,-2.19,2.18,2.17,2.14,5.63,5.62,5.63
45.68,3.50,-2.10,3.50,-2.10,2.09,2.09,2.01,5.59,5.59,5.59
46.13,3.56,-2.00,3.56,-2.00,2.01,2.01,1.89,5.56,5.56,5.56
46.60,3.61,-1.91,3.61,-1.91,1.91,1.93,1.76,5.53,5.53,5.53
47.06,3.68,-1.82,3.67,-1.82,1.82,1.86,1.64,5.50,5.49,5.50
47.53,3.73,-1.74,3.73,-1.73,1.73,1.78,1.52,5.45,5.46,5.47
48.01,3.79,-1.63,3.79,-1.64,1.63,1.70,1.40,5.42,5.42,5.42
48.49,3.85,-1.54,3.84,-1.54,1.54,1.61,1.28,5.38,5.38,5.39
48.97,3.91,-1.44,3.90,-1.44,1.44,1.53,1.17,5.35,5.35,5.34
49.46,3.96,-1.36,3.96,-1.35,1.35,1.45,1.05,5.31,5.31,5.31
49.96,4.02,-1.25,4.01,-1.26,1.26,1.37,0.94,5.28,5.28,5.26
50.46,4.07,-1.17,4.07,-1.17,1.17,1.28,0.83,5.24,5.24,5.24
50.96,4.13,-1.08,4.12,-1.08,1.09,1.20,0.72,5.21,5.21,5.21
51.47,4.17,-1.01,4.17,-1.01,1.01,1.12,0.61,5.17,5.17,5.17
51.99,4.22,-0.93,4.22,-0.93,0.92,1.03,0.51,5.14,5.14,5.14
52.51,4.27,-0.84,4.27,-0.84,0.84,0.94,0.41,5.11,5.11,5.11
53.03,4.32,-0.77,4.31,-0.76,0.76,0.86,0.30,5.07,5.07,5.08
53.56,4.37,-0.67,4.36,-0.68,0.67,0.77,0.20,5.04,5.04,5.04
54.10,4.41,-0.60,4.41,-0.59,0.59,0.68,0.11,4.99,5.00,5.00
54.64,4.46,-0.51,4.46,-0.50,0.50,0.59,0.01,4.96,4.96,4.97
55.18,4.51,-0.41,4.50,-0.42,0.42,0.50,-0.08,4.93,4.92,4.92
55.74,4.56,-0.33,4.56,-0.33,0.34,0.41,-0.18,4.89,4.89,4.88
56.29,4.61,-0.26,4.61,-0.25,0.26,0.32,-0.27,4.86,4.86,4.86
56.86,4.66,-0.18,4.66,-0.17,0.18,0.22,-0.35,4.84,4.84,4.84
57.42,4.71,-0.09,4.71,-0.10,0.11,0.13,-0.44,4.81,4.81,4.80
58.00,4.76,-0.01,4.75,-0.02,0.03,0.04,-0.52,4.79,4.78,4.77
58.58,4.80,0.04,4.80,0.04,-0.05,-0.05,-0.60,4.75,4.75,4.76
59.16,4.84,0.11,4.84,0.11,-0.12,-0.15,-0.68,4.71,4.72,4.73
59.76,4.89,0.19,4.89,0.19,-0.20,-0.24,-0.75,4.68,4.68,4.70
60.35,4.94,0.28,4.93,0.28,-0.29,-0.33,-0.82,4.65,4.65,4.66
60.96,4.99,0.37,4.98,0.37,-0.38,-0.42,-0.89,4.61,4.61,4.61
61.57,5.03,0.47,5.03,0.47,-0.47,-0.52,-0.96,4.56,4.56,4.56
62.18,5.08,0.56,5.08,0.56,-0.56,-0.61,-1.02,4.52,4.52,4.52
62.80,5.13,0.65,5.13,0.66,-0.65,-0.70,-1.08,4.48,4.48,4.47
63.43,5.18,0.75,5.18,0.75,-0.74,-0.79,-1.14,4.44,4.44,4.43
64.07,5.23,0.83,5.22,0.83,-0.82,-0.88,-1.20,4.40,4.40,4.39
64.71,5.27,0.91,5.26,0.91,-0.91,-0.96,-1.25,4.36,4.36,4.35
65.35,5.31,0.99,5.30,0.99,-0.99,-1.05,-1.30,4.32,4.31,4.32
66.01,5.34,1.06,5.34,1.06,-1.07,-1.13,-1.35,4.27,4.27,4.28
66.67,5.39,1.14,5.38,1.14,-1.15,-1.22,-1.40,4.24,4.24,4.25
67.33,5.43,1.23,5.42,1.22,-1.22,-1.30,-1.44,4.20,4.20,4.20
68.01,5.47,1.31,5.47,1.31,-1.30,-1.38,-1.48,4.16,4.16,4.16
68.69,5.51,1.39,5.51,1.38,-1.38,-1.45,-1.53,4.12,4.12,4.12
69.37,5.55,1.46,5.55,1.46,-1.46,-1.53,-1.57,4.08,4.08,4.09
70.07,5.59,1.53,5.59,1.54,-1.54,-1.60,-1.61,4.04,4.04,4.05
70.77,5.63,1.62,5.63,1.62,-1.62,-1.67,-1.65,4.00,4.01,4.01
71.48,5.67,1.70,5.67,1.70,-1.70,-1.74,-1.68,3.97,3.97,3.96
72.19,5.71,1.79,5.70,1.78,-1.77,-1.81,-1.72,3.93,3.93,3.92
72.91,5.73,1.84,5.73,1.85,-1.84,-1.87,-1.76,3.88,3.89,3.88
73.64,5.76,1.92,5.76,1.92,-1.91,-1.94,-1.80,3.84,3.84,3.84
74.38,5.79,1.99,5.78,1.98,-1.98,-2.00,-1.83,3.81,3.80,3.80
75.12,5.81,2.04,5.81,2.04,-2.04,-2.06,-1.87,3.76,3.77,3.77
75.87,5.84,2.09,5.84,2.10,-2.10,-2.12,-1.91,3.73,3.74,3.74
76.63,5.88,2.16,5.87,2.16,-2.16,-2.18,-1.95,3.71,3.71,3.71
77.40,5.91,2.23,5.90,2.22,-2.22,-2.24,-1.99,3.68,3.68,3.68
78.17,5.94,2.29,5.94,2.28,-2.29,-2.29,-2.03,3.65,3.65,3.65
78.95,5.97,2.34,5.97,2.34,-2.35,-2.35,-2.07,3.62,3.62,3.63
79.74,6.01,2.40,6.00,2.41,-2.41,-2.40,-2.12,3.59,3.59,3.60
80.54,6.05,2.48,6.04,2.47,-2.47,-2.46,-2.16,3.57,3.57,3.57
81.35,6.08,2.53,6.08,2.54,-2.53,-2.51,-2.21,3.54,3.55,3.54
82.16,6.12,2.60,6.11,2.60,-2.59,-2.57,-2.25,3.52,3.52,3.52
82.98,6.15,2.66,6.14,2.66,-2.65,-2.62,-2.30,3.50,3.49,3.48
83.81,6.17,2.72,6.16,2.72,-2.70,-2.68,-2.36,3.46,3.46,3.44
84.65,6.18,2.76,6.18,2.76,-2.76,-2.74,-2.41,3.42,3.42,3.42
85.50,6.19,2.81,6.19,2.81,-2.82,-2.79,-2.46,3.37,3.37,3.38
86.35,6.21,2.86,6.21,2.86,-2.87,-2.85,-2.52,3.33,3.34,3.35
87.22,6.24,2.92,6.23,2.92,-2.93,-2.90,-2.58,3.31,3.30,3.32
88.09,6.27,2.99,6.26,2.98,-2.99,-2.96,-2.64,3.28,3.27,3.28
88.97,6.30,3.05,6.30,3.05,-3.05,-3.02,-2.70,3.24,3.25,3.25
89.86,6.33,3.12,6.33,3.12,-3.11,-3.07,-2.77,3.21,3.22,3.21
90.76,6.37,3.19,6.36,3.19,-3.18,-3.13,-2.84,3.19,3.18,3.17
91.66,6.40,3.25,6.39,3.25,-3.24,-3.19,-2.91,3.15,3.15,3.14
92.58,6.42,3.31,6.42,3.31,-3.31,-3.25,-2.98,3.11,3.11,3.11
93.51,6.45,3.37,6.44,3.37,-3.38,-3.31,-3.05,3.07,3.07,3.07
94.44,6.47,3.43,6.47,3.43,-3.44,-3.37,-3.13,3.02,3.02,3.04
95.39,6.50,3.50,6.50,3.50,-3.51,-3.42,-3.20,2.98,2.99,3.00
96.34,6.53,3.57,6.52,3.57,-3.58,-3.48,-3.28,2.95,2.95,2.95
97.30,6.56,3.64,6.56,3.64,-3.64,-3.54,-3.36,2.91,2.92,2.92
98.28,6.59,3.70,6.59,3.71,-3.70,-3.60,-3.45,2.88,2.88,2.88
99.26,6.62,3.78,6.61,3.77,-3.76,-3.66,-3.53,2.86,2.85,2.84
100.25,6.63,3.83,6.63,3.82,-3.81,-3.72,-3.62,2.82,2.82,2.80
101.25,6.64,3.85,6.63,3.86,-3.85,-3.78,-3.70,2.79,2.79,2.78
102.27,6.64,3.89,6.63,3.89,-3.88,-3.84,-3.79,2.76,2.75,2.75
103.29,6.63,3.91,6.63,3.91,-3.91,-3.90,-3.88,2.72,2.72,2.71
104.32,6.63,3.93,6.62,3.93,-3.94,-3.96,-3.97,2.69,2.68,2.69
105.37,6.62,3.96,6.62,3.96,-3.97,-4.02,-4.06,2.65,2.65,2.66
106.42,6.62,3.98,6.62,3.99,-4.00,-4.07,-4.14,2.61,2.61,2.63
107.48,6.63,4.03,6.63,4.03,-4.04,-4.13,-4.23,2.58,2.59,2.60
108.56,6.66,4.09,6.65,4.09,-4.09,-4.19,-4.32,2.56,2.56,2.57
109.64,6.69,4.15,6.68,4.15,-4.15,-4.24,-4.40,2.54,2.53,2.53
110.74,6.72,4.21,6.72,4.21,-4.21,-4.30,-4.49,2.50,2.51,2.51
111.85,6.76,4.28,6.75,4.28,-4.28,-4.35,-4.57,2.48,2.47,2.47
112.97,6.79,4.35,6.79,4.35,-4.35,-4.40,-4.65,2.44,2.44,2.44
114.10,6.83,4.41,6.82,4.42,-4.42,-4.46,-4.72,2.41,2.40,2.41
115.24,6.86,4.49,6.85,4.49,-4.49,-4.51,-4.79,2.37,2.37,2.37
116.39,6.88,4.55,6.88,4.55,-4.55,-4.56,-4.86,2.32,2.33,2.32
117.55,6.91,4.61,6.90,4.61,-4.61,-4.61,-4.93,2.30,2.29,2.30
118.73,6.93,4.67,6.93,4.67,-4.66,-4.65,-4.99,2.26,2.27,2.25
119.92,6.96,4.72,6.95,4.72,-4.71,-4.70,-5.04,2.25,2.24,2.23
121.12,6.97,4.76,6.96,4.76,-4.75,-4.74,-5.09,2.21,2.21,2.21
122.33,6.97,4.79,6.97,4.79,-4.79,-4.78,-5.14,2.18,2.18,2.18
123.55,6.97,4.82,6.96,4.82,-4.82,-4.83,-5.18,2.15,2.15,2.14
124.79,6.96,4.83,6.96,4.84,-4.85,-4.87,-5.21,2.11,2.11,2.12
126.03,6.96,4.87,6.95,4.87,-4.87,-4.90,-5.24,2.08,2.08,2.08
127.29,6.95,4.89,6.95,4.89,-4.90,-4.94,-5.26,2.04,2.04,2.05
128.57,6.95,4.92,6.95,4.93,-4.93,-4.98,-5.28,2.01,2.01,2.02
129.85,6.95,4.96,6.94,4.96,-4.96,-5.01,-5.29,1.98,1.98,1.98
131.15,6.95,5.00,6.95,5.00,-5.00,-5.04,-5.30,1.95,1.95,1.95
132.46,6.95,5.04,6.95,5.04,-5.03,-5.07,-5.30,1.91,1.91,1.91
133.79,6.95,5.07,6.95,5.07,-5.07,-5.10,-5.30,1.88,1.88,1.87
135.12,6.95,5.11,6.95,5.10,-5.10,-5.13,-5.29,1.84,1.84,1.84
136.48,6.95,5.12,6.95,5.13,-5.14,-5.15,-5.28,1.81,1.81,1.82
137.84,6.95,5.16,6.95,5.16,-5.17,-5.18,-5.26,1.78,1.78,1.79
139.22,6.95,5.20,6.95,5.19,-5.20,-5.20,-5.25,1.75,1.75,1.74
140.61,6.95,5.23,6.95,5.23,-5.23,-5.23,-5.23,1.72,1.72,1.72
142.02,6.95,5.26,6.95,5.26,-5.25,-5.25,-5.21,1.69,1.69,1.69
143.44,6.95,5.29,6.95,5.28,-5.28,-5.27,-5.19,1.67,1.67,1.66
144.87,6.95,5.30,6.95,5.31,-5.30,-5.29,-5.17,1.64,1.64,1.65
146.32,6.95,5.33,6.95,5.33,-5.33,-5.31,-5.15,1.62,1.62,1.62
147.78,6.95,5.35,6.95,5.35,-5.35,-5.33,-5.13,1.59,1.59,1.60
149.26,6.95,5.38,6.95,5.38,-5.37,-5.35,-5.11,1.57,1.57,1.57
150.75,6.95,5.40,6.95,5.40,-5.40,-5.37,-5.09,1.55,1.55,1.54
152.26,6.95,5.42,6.95,5.42,-5.42,-5.39,-5.07,1.53,1.53,1.53
153.78,6.95,5.44,6.95,5.44,-5.44,-5.41,-5.05,1.50,1.50,1.50
155.32,6.95,5.47,6.95,5.47,-5.47,-5.43,-5.04,1.48,1.48,1.48
156.88,6.95,5.49,6.95,5.50,-5.50,-5.45,-5.02,1.45,1.45,1.45
158.44,6.95,5.53,6.95,5.52,-5.52,-5.47,-5.01,1.42,1.42,1.42
160.03,6.95,5.55,6.95,5.55,-5.55,-5.49,-5.01,1.39,1.39,1.40
161.63,6.95,5.58,6.94,5.58,-5.58,-5.51,-5.00,1.36,1.36,1.37
163.24,6.95,5.62,6.95,5.62,-5.62,-5.54,-5.00,1.33,1.33,1.33
164.88,6.95,5.65,6.95,5.65,-5.65,-5.56,-5.00,1.29,1.29,1.30
166.53,6.96,5.69,6.95,5.69,-5.69,-5.59,-5.01,1.27,1.26,1.27
168.19,6.96,5.72,6.96,5.72,-5.72,-5.61,-5.02,1.23,1.23,1.24
169.87,6.97,5.77,6.96,5.76,-5.76,-5.64,-5.03,1.21,1.21,1.20
171.57,6.97,5.79,6.96,5.79,-5.79,-5.67,-5.05,1.18,1.17,1.17
173.29,6.96,5.82,6.96,5.82,-5.81,-5.70,-5.06,1.14,1.14,1.14
175.02,6.95,5.84,6.94,5.84,-5.84,-5.73,-5.09,1.11,1.11,1.10
176.77,6.93,5.86,6.93,5.86,-5.85,-5.75,-5.12,1.07,1.07,1.07
178.54,6.91,5.86,6.90,5.87,-5.86,-5.78,-5.15,1.04,1.04,1.04
180.32,6.88,5.88,6.88,5.87,-5.87,-5.81,-5.18,1.00,1.01,1.00
182.13,6.85,5.88,6.84,5.87,-5.88,-5.84,-5.23,0.97,0.97,0.97
183.95,6.81,5.87,6.81,5.87,-5.88,-5.87,-5.27,0.93,0.93,0.94
185.79,6.77,5.87,6.77,5.88,-5.88,-5.90,-5.32,0.89,0.89,0.89
187.65,6.75,5.88,6.74,5.88,-5.88,-5.93,-5.37,0.86,0.86,0.86
189.52,6.72,5.89,6.71,5.89,-5.89,-5.95,-5.42,0.83,0.83,0.82
191.42,6.69,5.89,6.69,5.89,-5.89,-5.98,-5.48,0.80,0.80,0.79
193.33,6.66,5.89,6.66,5.90,-5.90,-6.00,-5.54,0.76,0.76,0.76
195.27,6.64,5.91,6.63,5.91,-5.91,-6.03,-5.61,0.73,0.72,0.73
197.22,6.62,5.93,6.62,5.92,-5.93,-6.05,-5.68,0.69,0.69,0.69
199.19,6.61,5.93,6.60,5.94,-5.94,-6.07,-5.75,0.66,0.66,0.67
201.18,6.60,5.96,6.60,5.96,-5.97,-6.09,-5.82,0.63,0.63,0.64
203.19,6.61,5.99,6.61,5.99,-5.99,-6.11,-5.89,0.61,0.61,0.62
205.23,6.62,6.02,6.61,6.02,-6.02,-6.13,-5.97,0.60,0.60,0.59
207.28,6.63,6.05,6.62,6.05,-6.04,-6.14,-6.05,0.58,0.58,0.58
209.35,6.63,6.08,6.63,6.08,-6.07,-6.16,-6.13,0.55,0.55,0.54
211.44,6.63,6.11,6.63,6.10,-6.10,-6.17,-6.21,0.53,0.53,0.52
213.56,6.63,6.12,6.63,6.12,-6.12,-6.18,-6.29,0.50,0.50,0.51
215.69,6.63,6.14,6.63,6.14,-6.15,-6.19,-6.37,0.48,0.48,0.48
217.85,6.63,6.17,6.63,6.16,-6.17,-6.19,-6.45,0.46,0.46,0.46
220.03,6.63,6.19,6.63,6.19,-6.19,-6.20,-6.53,0.44,0.44,0.44
222.23,6.63,6.21,6.63,6.21,-6.21,-6.21,-6.60,0.42,0.42,0.42
224.45,6.63,6.23,6.63,6.23,-6.23,-6.21,-6.67,0.40,0.40,0.39
226.70,6.63,6.24,6.62,6.24,-6.25,-6.21,-6.74,0.38,0.38,0.38
228.96,6.63,6.25,6.63,6.26,-6.26,-6.21,-6.80,0.36,0.36,0.37
231.25,6.63,6.27,6.63,6.27,-6.28,-6.21,-6.86,0.34,0.35,0.35
233.57,6.64,6.29,6.63,6.30,-6.30,-6.21,-6.91,0.34,0.34,0.34
235.90,6.64,6.31,6.64,6.31,-6.31,-6.20,-6.95,0.33,0.33,0.32
238.26,6.65,6.33,6.64,6.32,-6.32,-6.20,-6.99,0.33,0.32,0.31
240.64,6.64,6.31,6.64,6.33,-6.32,-6.19,-7.02,0.31,0.32,0.32
243.05,6.64,6.32,6.63,6.33,-6.32,-6.18,-7.05,0.32,0.32,0.31
245.48,6.63,6.33,6.62,6.32,-6.31,-6.17,-7.06,0.32,0.31,0.30
247.93,6.60,6.31,6.60,6.30,-6.30,-6.16,-7.07,0.30,0.30,0.29
250.41,6.58,6.27,6.57,6.27,-6.28,-6.15,-7.06,0.30,0.29,0.30
252.92,6.54,6.23,6.54,6.24,-6.25,-6.14,-7.05,0.28,0.29,0.30
255.45,6.52,6.22,6.52,6.22,-6.23,-6.12,-7.03,0.29,0.29,0.30
258.00,6.50,6.20,6.49,6.20,-6.20,-6.11,-7.00,0.30,0.29,0.30
260.58,6.47,6.17,6.47,6.17,-6.17,-6.09,-6.96,0.30,0.30,0.29
263.19,6.44,6.14,6.43,6.14,-6.13,-6.07,-6.92,0.30,0.30,0.30
265.82,6.39,6.10,6.39,6.10,-6.10,-6.06,-6.86,0.29,0.30,0.29
268.48,6.36,6.06,6.35,6.06,-6.06,-6.04,-6.80,0.30,0.29,0.29
271.16,6.32,6.03,6.31,6.02,-6.02,-6.02,-6.73,0.29,0.29,0.29
273.87,6.26,5.96,6.27,5.98,-5.98,-6.00,-6.66,0.27,0.28,0.29
276.61,6.23,5.94,6.22,5.94,-5.94,-5.97,-6.58,0.28,0.28,0.29
279.38,6.19,5.91,6.19,5.91,-5.91,-5.95,-6.50,0.28,0.28,0.27
282.17,6.16,5.87,6.16,5.87,-5.87,-5.93,-6.41,0.29,0.29,0.29
284.99,6.13,5.83,6.12,5.83,-5.83,-5.91,-6.32,0.29,0.29,0.29
287.84,6.09,5.79,6.09,5.80,-5.80,-5.88,-6.23,0.29,0.29,0.30
290.72,6.06,5.77,6.06,5.77,-5.77,-5.86,-6.14,0.29,0.29,0.28
293.63,6.04,5.75,6.03,5.74,-5.74,-5.83,-6.04,0.30,0.29,0.29
296.57,6.01,5.70,6.01,5.71,-5.72,-5.81,-5.95,0.29,0.29,0.30
299.53,5.99,5.69,5.99,5.69,-5.70,-5.78,-5.85,0.29,0.29,0.30
302.53,5.98,5.67,5.98,5.67,-5.68,-5.75,-5.76,0.29,0.29,0.30
305.55,5.98,5.66,5.98,5.67,-5.67,-5.72,-5.67,0.31,0.31,0.31
308.61,5.98,5.66,5.98,5.66,-5.66,-5.70,-5.57,0.32,0.32,0.32
311.69,5.98,5.65,5.97,5.65,-5.64,-5.67,-5.48,0.33,0.33,0.32
314.81,5.97,5.64,5.97,5.64,-5.63,-5.64,-5.39,0.34,0.34,0.33
317.96,5.96,5.62,5.96,5.62,-5.61,-5.61,-5.31,0.35,0.35,0.34
321.14,5.94,5.59,5.93,5.59,-5.58,-5.58,-5.22,0.35,0.35,0.34
324.35,5.91,5.56,5.91,5.55,-5.55,-5.55,-5.14,0.35,0.35,0.34
327.59,5.87,5.50,5.87,5.52,-5.52,-5.52,-5.07,0.35,0.36,0.37
330.87,5.85,5.48,5.84,5.47,-5.48,-5.49,-4.99,0.37,0.36,0.36
334.18,5.81,5.44,5.80,5.43,-5.44,-5.46,-4.92,0.37,0.37,0.36
337.52,5.77,5.39,5.77,5.40,-5.40,-5.43,-4.85,0.37,0.38,0.38
340.90,5.75,5.36,5.74,5.36,-5.36,-5.39,-4.79,0.39,0.38,0.39
344.30,5.72,5.32,5.72,5.32,-5.33,-5.36,-4.72,0.39,0.39,0.39
347.75,5.70,5.29,5.70,5.29,-5.30,-5.33,-4.67,0.40,0.40,0.40
351.23,5.68,5.27,5.68,5.26,-5.27,-5.30,-4.61,0.41,0.41,0.41
354.74,5.67,5.24,5.66,5.24,-5.25,-5.26,-4.56,0.42,0.42,0.43
358.28,5.65,5.22,5.65,5.22,-5.22,-5.23,-4.51,0.42,0.43,0.43
361.87,5.64,5.21,5.64,5.20,-5.20,-5.19,-4.47,0.43,0.43,0.42
365.49,5.63,5.18,5.62,5.18,-5.18,-5.16,-4.43,0.44,0.44,0.44
369.14,5.61,5.16,5.61,5.16,-5.16,-5.12,-4.39,0.45,0.45,0.45
372.83,5.60,5.14,5.59,5.14,-5.14,-5.09,-4.36,0.46,0.46,0.46
376.56,5.57,5.11,5.57,5.11,-5.11,-5.05,-4.33,0.46,0.46,0.46
380.33,5.55,5.08,5.55,5.08,-5.08,-5.01,-4.30,0.47,0.47,0.46
384.13,5.52,5.04,5.52,5.04,-5.04,-4.98,-4.28,0.48,0.48,0.47
387.97,5.49,5.00,5.48,5.00,-5.00,-4.94,-4.25,0.49,0.49,0.48
391.85,5.45,4.95,5.45,4.95,-4.95,-4.90,-4.23,0.50,0.50,0.50
395.77,5.41,4.91,5.41,4.91,-4.90,-4.86,-4.22,0.50,0.51,0.50
399.73,5.37,4.86,5.36,4.85,-4.85,-4.82,-4.20,0.51,0.51,0.51
403.72,5.32,4.79,5.32,4.79,-4.80,-4.77,-4.19,0.52,0.52,0.53
407.76,5.27,4.73,5.27,4.74,-4.75,-4.73,-4.18,0.52,0.52,0.53
411.84,5.24,4.69,5.23,4.69,-4.70,-4.68,-4.17,0.54,0.53,0.54
415.96,5.20,4.64,5.20,4.65,-4.65,-4.64,-4.17,0.55,0.55,0.55
420.12,5.17,4.61,5.16,4.61,-4.60,-4.59,-4.16,0.56,0.56,0.55
424.32,5.13,4.57,5.12,4.56,-4.55,-4.54,-4.16,0.57,0.57,0.56
428.56,5.09,4.51,5.08,4.51,-4.50,-4.49,-4.15,0.58,0.58,0.58
432.85,5.04,4.44,5.04,4.45,-4.45,-4.44,-4.15,0.58,0.59,0.60
437.18,5.00,4.41,4.99,4.40,-4.40,-4.39,-4.14,0.60,0.59,0.59
441.55,4.95,4.35,4.95,4.35,-4.34,-4.33,-4.14,0.60,0.60,0.60
445.96,4.90,4.29,4.90,4.29,-4.29,-4.28,-4.13,0.61,0.61,0.60
450.42,4.85,4.23,4.84,4.23,-4.23,-4.22,-4.12,0.62,0.61,0.61
454.93,4.79,4.16,4.79,4.17,-4.17,-4.17,-4.11,0.61,0.62,0.62
459.48,4.75,4.11,4.74,4.11,-4.12,-4.11,-4.10,0.63,0.63,0.63
464.07,4.70,4.04,4.70,4.05,-4.06,-4.05,-4.09,0.64,0.64,0.65
468.71,4.66,4.01,4.66,4.00,-4.00,-3.99,-4.07,0.66,0.66,0.65
473.40,4.62,3.96,4.61,3.95,-3.94,-3.92,-4.05,0.67,0.67,0.66
478.13,4.56,3.89,4.56,3.89,-3.89,-3.86,-4.03,0.67,0.67,0.67
482.91,4.51,3.83,4.50,3.83,-3.83,-3.80,-4.00,0.67,0.67,0.68
487.74,4.46,3.77,4.45,3.77,-3.78,-3.73,-3.97,0.68,0.68,0.69
492.62,4.41,3.71,4.41,3.72,-3.72,-3.67,-3.93,0.68,0.69,0.70
497.55,4.38,3.67,4.37,3.67,-3.66,-3.60,-3.89,0.71,0.71,0.71
502.52,4.34,3.62,4.33,3.62,-3.60,-3.54,-3.85,0.73,0.73,0.72
507.55,4.29,3.55,4.29,3.55,-3.54,-3.47,-3.80,0.74,0.74,0.74
512.62,4.24,3.49,4.23,3.48,-3.48,-3.40,-3.74,0.75,0.75,0.74
517.75,4.17,3.40,4.17,3.41,-3.42,-3.34,-3.69,0.74,0.75,0.76
522.93,4.12,3.34,4.12,3.35,-3.36,-3.27,-3.63,0.76,0.76,0.77
528.16,4.07,3.28,4.07,3.29,-3.29,-3.20,-3.56,0.77,0.78,0.78
533.44,4.04,3.24,4.03,3.23,-3.22,-3.13,-3.49,0.81,0.80,0.79
538.77,3.98,3.17,3.98,3.17,-3.16,-3.07,-3.42,0.82,0.82,0.80
544.16,3.92,3.09,3.92,3.10,-3.09,-3.00,-3.34,0.82,0.83,0.82
549.60,3.86,3.02,3.86,3.02,-3.03,-2.93,-3.26,0.83,0.83,0.83
