frequency,raw,error,smoothed,error_smoothed,equalization,parametric_eq,fixed_band_eq,equalized_raw,equalized_smoothed,target
20.00,-17.67,-20.70,-17.66,-20.70,6.00,6.14,2.64,-11.67,-11.66,3.03
20.20,-17.53,-20.56,-17.53,-20.56,6.00,6.14,2.72,-11.53,-11.53,3.03
20.40,-17.38,-20.43,-17.39,-20.43,6.00,6.14,2.80,-11.38,-11.39,3.04
20.61,-17.25,-20.30,-17.25,-20.30,6.00,6.13,2.88,-11.25,-11.25,3.05
20.81,-17.11,-20.17,-17.11,-20.17,6.00,6.13,2.96,-11.11,-11.11,3.05
21.02,-16.98,-20.04,-16.97,-20.03,6.00,6.13,3.05,-10.98,-10.97,3.06
21.23,-16.84,-19.90,-16.84,-19.90,6.00,6.13,3.13,-10.84,-10.84,3.06
21.44,-16.69,-19.77,-16.70,-19.77,6.00,6.12,3.23,-10.69,-10.70,3.07
21.66,-16.56,-19.64,-16.55,-19.63,6.00,6.12,3.32,-10.56,-10.55,3.08
21.87,-16.41,-19.49,-16.41,-19.50,6.00,6.12,3.42,-10.41,-10.41,3.08
22.09,-16.27,-19.37,-16.27,-19.37,6.00,6.11,3.51,-10.27,-10.27,3.09
22.31,-16.13,-19.23,-16.13,-19.23,6.00,6.11,3.62,-10.13,-10.13,3.10
22.54,-15.99,-19.09,-15.99,-19.09,6.00,6.11,3.72,-9.99,-9.99,3.10
22.76,-15.84,-18.95,-15.85,-18.96,6.00,6.10,3.83,-9.84,-9.85,3.11
22.99,-15.71,-18.83,-15.70,-18.82,6.00,6.10,3.94,-9.71,-9.70,3.12
23.22,-15.56,-18.69,-15.56,-18.69,6.00,6.10,4.05,-9.56,-9.56,3.13
23.45,-15.41,-18.55,-15.42,-18.56,6.00,6.09,4.16,-9.41,-9.42,3.14
23.69,-15.28,-18.43,-15.27,-18.42,6.00,6.09,4.28,-9.28,-9.27,3.15
23.92,-15.13,-18.29,-15.13,-18.29,6.00,6.09,4.40,-9.13,-9.13,3.16
24.16,-14.98,-18.15,-14.99,-18.15,6.00,6.08,4.52,-8.98,-8.99,3.17
24.40,-14.83,-18.01,-14.84,-18.02,6.00,6.08,4.65,-8.83,-8.84,3.18
24.65,-14.70,-17.89,-14.69,-17.89,6.00,6.07,4.78,-8.70,-8.69,3.20
24.89,-14.54,-17.75,-14.55,-17.75,6.00,6.07,4.90,-8.54,-8.55,3.21
25.14,-14.40,-17.62,-14.40,-17.62,6.00,6.07,5.03,-8.40,-8.40,3.22
25.39,-14.25,-17.48,-14.26,-17.48,6.00,6.06,5.16,-8.25,-8.26,3.23
25.65,-14.12,-17.35,-14.11,-17.35,6.00,6.06,5.30,-8.12,-8.11,3.24
25.91,-13.97,-17.22,-13.97,-17.22,6.00,6.05,5.43,-7.97,-7.97,3.25
26.16,-13.82,-17.09,-13.82,-17.09,6.00,6.05,5.56,-7.82,-7.82,3.26
26.43,-13.68,-16.95,-13.68,-16.95,6.00,6.04,5.69,-7.68,-7.68,3.27
26.69,-13.54,-16.82,-13.53,-16.82,6.00,6.04,5.83,-7.54,-7.53,3.28
26.96,-13.39,-16.69,-13.39,-16.69,6.00,6.04,5.96,-7.39,-7.39,3.30
27.23,-13.25,-16.56,-13.24,-16.56,6.00,6.03,6.09,-7.25,-7.24,3.31
27.50,-13.10,-16.43,-13.10,-16.43,6.00,6.03,6.21,-7.10,-7.10,3.33
27.77,-12.95,-16.29,-12.95,-16.29,6.00,6.02,6.33,-6.95,-6.95,3.34
28.05,-12.80,-16.16,-12.81,-16.16,6.00,6.02,6.45,-6.80,-6.81,3.36
28.33,-12.66,-16.03,-12.66,-16.03,6.00,6.01,6.57,-6.66,-6.66,3.37
28.62,-12.52,-15.91,-12.52,-15.90,6.00,6.01,6.67,-6.52,-6.52,3.39
28.90,-12.37,-15.77,-12.38,-15.77,6.00,6.00,6.78,-6.37,-6.38,3.40
29.19,-12.24,-15.65,-12.23,-15.65,6.00,6.00,6.87,-6.24,-6.23,3.42
29.48,-12.08,-15.51,-12.09,-15.52,6.00,5.99,6.96,-6.08,-6.09,3.43
29.78,-11.95,-15.39,-11.95,-15.39,6.00,5.99,7.04,-5.95,-5.95,3.44
30.08,-11.81,-15.26,-11.80,-15.26,6.00,5.98,7.11,-5.81,-5.80,3.45
30.38,-11.67,-15.14,-11.67,-15.14,6.00,5.98,7.17,-5.67,-5.67,3.47
30.68,-11.53,-15.01,-11.53,-15.01,6.00,5.97,7.22,-5.53,-5.53,3.48
30.99,-11.40,-14.90,-11.39,-14.89,6.00,5.97,7.26,-5.40,-5.39,3.50
31.30,-11.26,-14.77,-11.25,-14.76,6.00,5.96,7.29,-5.26,-5.25,3.51
31.61,-11.11,-14.63,-11.11,-14.64,6.00,5.96,7.31,-5.11,-5.11,3.53
31.93,-10.97,-14.50,-10.97,-14.50,6.00,5.95,7.32,-4.97,-4.97,3.54
32.24,-10.82,-14.38,-10.83,-14.38,6.00,5.95,7.32,-4.82,-4.83,3.55
32.57,-10.69,-14.25,-10.69,-14.25,6.00,5.94,7.31,-4.69,-4.69,3.56
32.89,-10.54,-14.13,-10.54,-14.12,6.00,5.94,7.30,-4.54,-4.54,3.58
33.22,-10.39,-13.99,-10.39,-13.99,6.00,5.93,7.27,-4.39,-4.39,3.59
33.55,-10.24,-13.85,-10.25,-13.86,6.00,5.93,7.24,-4.24,-4.25,3.61
33.89,-10.11,-13.72,-10.10,-13.72,6.00,5.92,7.20,-4.11,-4.10,3.62
34.23,-9.97,-13.60,-9.96,-13.60,6.00,5.92,7.15,-3.97,-3.96,3.64
34.57,-9.83,-13.47,-9.83,-13.47,6.00,5.91,7.09,-3.83,-3.83,3.64
34.92,-9.69,-13.34,-9.69,-13.34,6.00,5.91,7.04,-3.69,-3.69,3.65
35.27,-9.56,-13.23,-9.55,-13.22,6.00,5.90,6.98,-3.56,-3.55,3.67
35.62,-9.42,-13.09,-9.42,-13.10,6.00,5.90,6.91,-3.42,-3.42,3.68
35.97,-9.28,-12.97,-9.29,-12.97,6.00,5.89,6.84,-3.28,-3.29,3.69
36.33,-9.16,-12.86,-9.16,-12.85,6.00,5.89,6.78,-3.16,-3.16,3.69
36.70,-9.04,-12.74,-9.04,-12.74,6.00,5.88,6.71,-3.04,-3.04,3.70
37.06,-8.91,-12.62,-8.91,-12.62,6.00,5.88,6.64,-2.91,-2.91,3.71
37.43,-8.79,-12.51,-8.80,-12.51,6.00,5.87,6.57,-2.79,-2.80,3.72
37.81,-8.69,-12.41,-8.69,-12.41,6.00,5.87,6.50,-2.69,-2.69,3.72
38.19,-8.58,-12.31,-8.58,-12.31,6.00,5.87,6.43,-2.58,-2.58,3.73
38.57,-8.48,-12.21,-8.47,-12.21,6.00,5.86,6.37,-2.48,-2.47,3.74
38.95,-8.36,-12.11,-8.37,-12.11,6.00,5.86,6.30,-2.36,-2.37,3.75
39.34,-8.26,-12.02,-8.27,-12.02,6.00,5.86,6.24,-2.26,-2.27,3.75
39.74,-8.17,-11.93,-8.16,-11.92,6.00,5.85,6.19,-2.17,-2.16,3.76
40.14,-8.06,-11.81,-8.06,-11.82,6.00,5.85,6.13,-2.06,-2.06,3.76
40.54,-7.95,-11.71,-7.95,-11.71,6.00,5.85,6.08,-1.95,-1.95,3.76
40.94,-7.84,-11.61,-7.84,-11.61,6.00,5.85,6.03,-1.84,-1.84,3.77
41.35,-7.74,-11.51,-7.74,-11.51,6.00,5.85,5.99,-1.74,-1.74,3.78
41.76,-7.63,-11.42,-7.63,-11.41,6.00,5.84,5.95,-1.63,-1.63,3.78
42.18,-7.52,-11.31,-7.52,-11.31,6.00,5.84,5.91,-1.52,-1.52,3.79
42.60,-7.41,-11.21,-7.42,-11.21,6.00,5.84,5.88,-1.41,-1.42,3.79
43.03,-7.31,-11.11,-7.31,-11.11,6.00,5.84,5.86,-1.31,-1.31,3.80
43.46,-7.21,-11.01,-7.20,-11.01,6.00,5.84,5.83,-1.21,-1.20,3.81
43.90,-7.10,-10.91,-7.10,-10.91,6.00,5.84,5.82,-1.10,-1.10,3.81
44.33,-6.99,-10.82,-6.99,-10.82,6.00,5.85,5.80,-0.99,-0.99,3.83
44.78,-6.89,-10.72,-6.88,-10.72,6.00,5.85,5.79,-0.89,-0.88,3.83
45.23,-6.78,-10.61,-6.78,-10.62,6.00,5.85,5.79,-0.78,-0.78,3.84
45.68,-6.67,-10.52,-6.67,-10.52,6.00,5.86,5.79,-0.67,-0.67,3.85
46.13,-6.56,-10.42,-6.56,-10.42,6.00,5.86,5.79,-0.56,-0.56,3.86
46.60,-6.46,-10.33,-6.46,-10.33,6.00,5.86,5.80,-0.46,-0.46,3.87
47.06,-6.35,-10.23,-6.35,-10.23,6.00,5.87,5.81,-0.35,-0.35,3.87
47.53,-6.24,-10.13,-6.24,-10.13,6.00,5.88,5.83,-0.24,-0.24,3.89
48.01,-6.14,-10.03,-6.14,-10.03,6.00,5.88,5.85,-0.14,-0.14,3.89
48.49,-6.04,-9.94,-6.04,-9.94,6.00,5.89,5.87,-0.04,-0.04,3.90
48.97,-5.94,-9.85,-5.94,-9.85,6.00,5.90,5.90,0.06,0.06,3.91
49.46,-5.84,-9.77,-5.84,-9.76,6.00,5.91,5.93,0.16,0.16,3.92
49.96,-5.75,-9.67,-5.75,-9.67,6.00,5.92,5.96,0.25,0.25,3.92
50.46,-5.65,-9.57,-5.65,-9.58,6.00,5.93,6.00,0.35,0.35,3.93
50.96,-5.55,-9.48,-5.55,-9.48,6.00,5.95,6.04,0.45,0.45,3.94
51.47,-5.45,-9.39,-5.45,-9.39,6.00,5.96,6.08,0.55,0.55,3.94
51.99,-5.35,-9.29,-5.34,-9.29,6.00,5.97,6.12,0.65,0.66,3.94
52.51,-5.25,-9.19,-5.25,-9.19,6.00,5.99,6.17,0.75,0.75,3.94
53.03,-5.15,-9.09,-5.15,-9.10,6.00,6.00,6.21,0.85,0.85,3.94
53.56,-5.06,-9.01,-5.05,-9.00,6.00,6.02,6.25,0.94,0.95,3.95
54.10,-4.96,-8.91,-4.95,-8.90,6.00,6.03,6.30,1.04,1.05,3.95
54.64,-4.85,-8.80,-4.85,-8.80,6.00,6.05,6.34,1.15,1.15,3.95
55.18,-4.74,-8.69,-4.75,-8.69,6.00,6.07,6.38,1.26,1.25,3.94
55.74,-4.65,-8.59,-4.64,-8.59,6.00,6.08,6.42,1.35,1.36,3.94
56.29,-4.54,-8.49,-4.55,-8.48,6.00,6.10,6.46,1.46,1.45,3.94
56.86,-4.45,-8.38,-4.45,-8.38,6.00,6.11,6.50,1.55,1.55,3.93
57.42,-4.35,-8.28,-4.35,-8.28,6.00,6.13,6.53,1.65,1.65,3.93
58.00,-4.26,-8.17,-4.26,-8.18,6.00,6.14,6.55,1.74,1.74,3.92
58.58,-4.17,-8.08,-4.17,-8.08,6.00,6.15,6.57,1.83,1.83,3.91
59.16,-4.07,-7.97,-4.07,-7.97,6.00,6.16,6.59,1.93,1.93,3.90
59.76,-3.99,-7.87,-3.98,-7.87,6.00,6.17,6.60,2.01,2.02,3.89
60.35,-3.88,-7.76,-3.89,-7.76,6.00,6.17,6.60,2.12,2.11,3.87
60.96,-3.80,-7.65,-3.80,-7.65,6.00,6.17,6.60,2.20,2.20,3.86
61.57,-3.71,-7.55,-3.71,-7.55,6.00,6.17,6.59,2.29,2.29,3.84
62.18,-3.63,-7.45,-3.62,-7.45,6.00,6.16,6.57,2.37,2.38,3.83
62.80,-3.54,-7.36,-3.54,-7.36,6.00,6.15,6.54,2.46,2.46,3.81
63.43,-3.47,-7.26,-3.47,-7.26,6.00,6.14,6.51,2.53,2.53,3.79
64.07,-3.40,-7.16,-3.39,-7.16,6.00,6.12,6.47,2.60,2.61,3.77
64.71,-3.32,-7.07,-3.31,-7.06,6.00,6.09,6.42,2.68,2.69,3.75
65.35,-3.22,-6.96,-3.23,-6.96,6.00,6.06,6.36,2.78,2.77,3.73
66.01,-3.15,-6.86,-3.15,-6.86,6.00,6.03,6.30,2.85,2.85,3.71
66.67,-3.08,-6.77,-3.07,-6.76,6.00,5.99,6.23,2.92,2.93,3.69
67.33,-2.99,-6.67,-2.99,-6.66,6.01,5.95,6.16,3.01,3.02,3.68
68.01,-2.91,-6.55,-2.91,-6.56,6.02,5.90,6.08,3.11,3.11,3.65
68.69,-2.83,-6.45,-2.82,-6.45,6.02,5.85,5.99,3.20,3.20,3.62
69.37,-2.73,-6.34,-2.73,-6.34,6.02,5.79,5.90,3.28,3.28,3.60
70.07,-2.65,-6.23,-2.65,-6.23,6.00,5.74,5.81,3.36,3.36,3.58
70.77,-2.56,-6.11,-2.56,-6.11,5.97,5.68,5.71,3.42,3.42,3.56
71.48,-2.47,-6.00,-2.47,-6.00,5.93,5.61,5.61,3.46,3.46,3.54
72.19,-2.38,-5.89,-2.38,-5.89,5.86,5.55,5.51,3.49,3.49,3.51
72.91,-2.28,-5.78,-2.29,-5.78,5.78,5.48,5.41,3.49,3.49,3.50
73.64,-2.20,-5.67,-2.19,-5.67,5.68,5.42,5.31,3.49,3.49,3.47
74.38,-2.11,-5.56,-2.10,-5.55,5.57,5.35,5.20,3.46,3.47,3.46
75.12,-1.99,-5.43,-2.00,-5.44,5.45,5.28,5.10,3.45,3.45,3.43
75.87,-1.90,-5.32,-1.90,-5.32,5.33,5.21,5.00,3.42,3.42,3.42
76.63,-1.80,-5.20,-1.80,-5.20,5.20,5.14,4.89,3.40,3.40,3.40
77.40,-1.71,-5.09,-1.71,-5.09,5.09,5.08,4.79,3.38,3.38,3.38
78.17,-1.61,-4.98,-1.61,-4.98,4.98,5.01,4.69,3.36,3.37,3.36
78.95,-1.52,-4.87,-1.53,-4.87,4.87,4.94,4.59,3.35,3.34,3.34
79.74,-1.45,-4.78,-1.45,-4.77,4.77,4.87,4.49,3.32,3.32,3.32
80.54,-1.38,-4.68,-1.38,-4.68,4.68,4.81,4.40,3.30,3.30,3.30
81.35,-1.31,-4.59,-1.31,-4.59,4.59,4.74,4.30,3.28,3.28,3.28
82.16,-1.25,-4.51,-1.24,-4.50,4.51,4.68,4.21,3.26,3.26,3.26
82.98,-1.19,-4.42,-1.19,-4.43,4.43,4.61,4.12,3.24,3.24,3.24
83.81,-1.15,-4.36,-1.14,-4.36,4.36,4.55,4.04,3.21,3.22,3.22
84.65,-1.11,-4.30,-1.10,-4.30,4.30,4.49,3.95,3.19,3.20,3.19
85.50,-1.07,-4.24,-1.07,-4.24,4.24,4.43,3.87,3.18,3.17,3.17
86.35,-1.05,-4.19,-1.05,-4.19,4.20,4.36,3.79,3.15,3.15,3.15
87.22,-1.04,-4.16,-1.03,-4.16,4.16,4.31,3.72,3.12,3.13,3.12
88.09,-1.03,-4.12,-1.03,-4.13,4.13,4.25,3.64,3.10,3.10,3.10
88.97,-1.03,-4.11,-1.02,-4.10,4.10,4.19,3.57,3.08,3.08,3.08
89.86,-1.03,-4.08,-1.02,-4.08,4.08,4.13,3.51,3.06,3.06,3.06
90.76,-1.03,-4.06,-1.03,-4.06,4.06,4.08,3.44,3.04,3.03,3.03
91.66,-1.04,-4.05,-1.04,-4.05,4.05,4.02,3.38,3.01,3.01,3.01
92.58,-1.05,-4.03,-1.04,-4.03,4.03,3.97,3.32,2.98,2.98,2.99
93.51,-1.06,-4.02,-1.05,-4.02,4.01,3.91,3.26,2.95,2.96,2.96
94.44,-1.06,-4.00,-1.06,-4.00,3.99,3.86,3.21,2.94,2.94,2.94
95.39,-1.06,-3.97,-1.06,-3.97,3.97,3.80,3.15,2.91,2.91,2.91
96.34,-1.06,-3.95,-1.06,-3.95,3.95,3.75,3.10,2.89,2.89,2.90
97.30,-1.06,-3.92,-1.06,-3.92,3.92,3.70,3.06,2.87,2.87,2.87
98.28,-1.06,-3.89,-1.06,-3.90,3.90,3.65,3.01,2.84,2.84,2.84
99.26,-1.06,-3.87,-1.06,-3.87,3.87,3.60,2.97,2.81,2.81,2.81
100.25,-1.06,-3.85,-1.06,-3.84,3.84,3.55,2.93,2.79,2.79,2.79
101.25,-1.06,-3.82,-1.06,-3.82,3.82,3.50,2.89,2.76,2.76,2.76
102.27,-1.06,-3.79,-1.05,-3.78,3.79,3.45,2.85,2.73,2.73,2.73
103.29,-1.06,-3.75,-1.05,-3.75,3.76,3.40,2.82,2.71,2.71,2.69
104.32,-1.06,-3.72,-1.06,-3.72,3.73,3.35,2.78,2.67,2.67,2.66
105.37,-1.07,-3.70,-1.07,-3.70,3.70,3.30,2.75,2.63,2.63,2.63
106.42,-1.08,-3.67,-1.07,-3.67,3.66,3.25,2.72,2.59,2.59,2.59
107.48,-1.08,-3.63,-1.07,-3.63,3.62,3.20,2.69,2.54,2.55,2.56
108.56,-1.06,-3.57,-1.06,-3.57,3.57,3.15,2.66,2.52,2.51,2.52
109.64,-1.04,-3.51,-1.04,-3.52,3.52,3.10,2.63,2.48,2.48,2.48
110.74,-1.03,-3.46,-1.02,-3.46,3.46,3.05,2.61,2.43,2.44,2.44
111.85,-1.00,-3.39,-1.00,-3.39,3.39,3.00,2.58,2.39,2.39,2.40
112.97,-0.97,-3.32,-0.96,-3.32,3.31,2.95,2.56,2.35,2.35,2.35
114.10,-0.93,-3.24,-0.92,-3.23,3.23,2.90,2.53,2.30,2.31,2.31
115.24,-0.87,-3.13,-0.88,-3.14,3.14,2.85,2.51,2.28,2.26,2.26
116.39,-0.84,-3.06,-0.83,-3.05,3.05,2.80,2.49,2.22,2.22,2.23
117.55,-0.79,-2.96,-0.78,-2.96,2.96,2.74,2.46,2.17,2.18,2.18
118.73,-0.73,-2.87,-0.72,-2.86,2.86,2.69,2.44,2.14,2.14,2.14
119.92,-0.67,-2.76,-0.67,-2.76,2.77,2.64,2.42,2.10,2.10,2.09
121.12,-0.61,-2.66,-0.62,-2.67,2.68,2.59,2.40,2.07,2.06,2.06
122.33,-0.58,-2.60,-0.57,-2.59,2.59,2.54,2.37,2.01,2.02,2.02
123.55,-0.53,-2.51,-0.51,-2.50,2.50,2.48,2.35,1.98,1.99,1.98
124.79,-0.46,-2.40,-0.46,-2.41,2.42,2.43,2.33,1.96,1.96,1.95
126.03,-0.41,-2.32,-0.42,-2.33,2.34,2.37,2.30,1.93,1.92,1.91
127.29,-0.39,-2.26,-0.38,-2.26,2.26,2.32,2.28,1.87,1.88,1.88
128.57,-0.36,-2.20,-0.34,-2.18,2.18,2.26,2.25,1.82,1.84,1.85
129.85,-0.29,-2.10,-0.29,-2.10,2.09,2.20,2.23,1.81,1.80,1.81
131.15,-0.23,-2.00,-0.23,-2.01,2.01,2.14,2.20,1.79,1.78,1.78
132.46,-0.19,-1.93,-0.18,-1.93,1.93,2.09,2.18,1.75,1.76,1.75
133.79,-0.13,-1.85,-0.13,-1.85,1.85,2.03,2.15,1.72,1.72,1.72
135.12,-0.08,-1.77,-0.08,-1.77,1.77,1.96,2.13,1.69,1.69,1.69
136.48,-0.04,-1.70,-0.03,-1.69,1.68,1.90,2.10,1.65,1.66,1.66
137.84,0.02,-1.61,0.02,-1.61,1.61,1.84,2.08,1.63,1.63,1.63
139.22,0.07,-1.53,0.07,-1.53,1.53,1.78,2.05,1.61,1.61,1.60
140.61,0.11,-1.46,0.12,-1.45,1.47,1.71,2.02,1.58,1.59,1.57
142.02,0.17,-1.38,0.16,-1.39,1.41,1.64,2.00,1.58,1.57,1.55
143.44,0.18,-1.34,0.19,-1.34,1.35,1.58,1.97,1.53,1.53,1.53
144.87,0.20,-1.29,0.20,-1.29,1.29,1.51,1.95,1.49,1.49,1.50
146.32,0.21,-1.25,0.22,-1.25,1.24,1.44,1.93,1.45,1.45,1.46
147.78,0.23,-1.20,0.24,-1.20,1.18,1.38,1.90,1.42,1.42,1.44
149.26,0.26,-1.15,0.27,-1.14,1.14,1.31,1.88,1.40,1.40,1.41
150.75,0.30,-1.08,0.30,-1.09,1.09,1.24,1.86,1.39,1.39,1.39
152.26,0.32,-1.04,0.32,-1.03,1.04,1.17,1.84,1.36,1.36,1.36
153.78,0.34,-0.98,0.34,-0.99,0.99,1.11,1.82,1.34,1.34,1.33
155.32,0.35,-0.95,0.36,-0.95,0.95,1.04,1.80,1.31,1.31,1.30
156.88,0.37,-0.91,0.37,-0.91,0.91,0.98,1.78,1.29,1.28,1.28
158.44,0.38,-0.88,0.38,-0.88,0.87,0.92,1.76,1.26,1.26,1.26
160.03,0.38,-0.84,0.39,-0.85,0.84,0.87,1.75,1.23,1.23,1.23
161.63,0.38,-0.82,0.39,-0.82,0.81,0.82,1.73,1.20,1.20,1.21
163.24,0.38,-0.79,0.39,-0.79,0.78,0.77,1.72,1.17,1.17,1.18
164.88,0.39,-0.76,0.39,-0.76,0.76,0.73,1.70,1.16,1.15,1.16
166.53,0.38,-0.74,0.39,-0.74,0.75,0.69,1.69,1.13,1.14,1.13
168.19,0.37,-0.72,0.37,-0.73,0.74,0.66,1.68,1.12,1.11,1.10
169.87,0.34,-0.73,0.35,-0.72,0.74,0.63,1.67,1.09,1.09,1.07
171.57,0.31,-0.73,0.31,-0.73,0.75,0.61,1.66,1.06,1.06,1.04
173.29,0.27,-0.74,0.26,-0.75,0.75,0.60,1.66,1.03,1.02,1.02
175.02,0.20,-0.79,0.21,-0.77,0.76,0.59,1.65,0.96,0.97,0.99
176.77,0.16,-0.79,0.17,-0.79,0.77,0.59,1.65,0.93,0.93,0.95
178.54,0.13,-0.79,0.13,-0.79,0.77,0.59,1.64,0.91,0.91,0.93
180.32,0.11,-0.78,0.12,-0.78,0.78,0.60,1.64,0.89,0.89,0.89
182.13,0.09,-0.77,0.09,-0.77,0.78,0.62,1.64,0.87,0.87,0.87
183.95,0.07,-0.76,0.07,-0.76,0.78,0.64,1.64,0.85,0.85,0.83
185.79,0.03,-0.77,0.04,-0.77,0.78,0.66,1.64,0.81,0.82,0.80
187.65,0.00,-0.77,0.00,-0.77,0.78,0.69,1.64,0.78,0.78,0.78
189.52,-0.04,-0.78,-0.04,-0.78,0.78,0.72,1.65,0.74,0.74,0.74
191.42,-0.08,-0.79,-0.07,-0.79,0.78,0.75,1.65,0.70,0.71,0.71
193.33,-0.11,-0.78,-0.11,-0.79,0.79,0.78,1.66,0.68,0.68,0.68
195.27,-0.15,-0.80,-0.14,-0.80,0.79,0.82,1.66,0.65,0.65,0.66
197.22,-0.18,-0.80,-0.18,-0.80,0.80,0.86,1.67,0.62,0.62,0.63
199.19,-0.22,-0.81,-0.22,-0.81,0.81,0.89,1.68,0.59,0.59,0.60
201.18,-0.26,-0.81,-0.26,-0.81,0.82,0.93,1.69,0.57,0.57,0.56
203.19,-0.31,-0.83,-0.30,-0.83,0.84,0.97,1.70,0.53,0.53,0.52
205.23,-0.36,-0.85,-0.36,-0.85,0.86,1.01,1.71,0.50,0.50,0.50
207.28,-0.42,-0.88,-0.41,-0.88,0.88,1.04,1.72,0.47,0.47,0.47
209.35,-0.48,-0.91,-0.48,-0.91,0.91,1.08,1.73,0.44,0.43,0.44
211.44,-0.55,-0.94,-0.54,-0.95,0.94,1.12,1.74,0.39,0.39,0.40
213.56,-0.62,-0.98,-0.62,-0.98,0.97,1.15,1.74,0.35,0.35,0.37
215.69,-0.69,-1.02,-0.68,-1.01,1.00,1.19,1.75,0.32,0.32,0.33
217.85,-0.76,-1.05,-0.74,-1.04,1.04,1.22,1.76,0.28,0.29,0.29
220.03,-0.80,-1.06,-0.80,-1.06,1.07,1.26,1.77,0.28,0.27,0.26
222.23,-0.86,-1.09,-0.86,-1.09,1.11,1.29,1.78,0.25,0.25,0.24
224.45,-0.93,-1.13,-0.93,-1.14,1.15,1.32,1.79,0.22,0.22,0.20
226.70,-1.02,-1.19,-1.02,-1.19,1.19,1.36,1.79,0.18,0.17,0.17
228.96,-1.12,-1.26,-1.10,-1.24,1.23,1.39,1.79,0.12,0.14,0.15
231.25,-1.17,-1.29,-1.17,-1.30,1.28,1.42,1.80,0.12,0.11,0.12
233.57,-1.24,-1.34,-1.24,-1.34,1.33,1.45,1.80,0.10,0.10,0.10
235.90,-1.31,-1.38,-1.30,-1.38,1.39,1.49,1.80,0.08,0.09,0.08
238.26,-1.37,-1.43,-1.37,-1.44,1.44,1.52,1.79,0.08,0.07,0.06
240.64,-1.46,-1.50,-1.44,-1.49,1.50,1.55,1.79,0.04,0.06,0.05
243.05,-1.52,-1.55,-1.52,-1.55,1.55,1.58,1.78,0.04,0.04,0.03
245.48,-1.59,-1.60,-1.59,-1.61,1.61,1.61,1.77,0.02,0.02,0.02
247.93,-1.67,-1.67,-1.66,-1.66,1.66,1.64,1.76,-0.01,-0.00,0.00
250.41,-1.73,-1.71,-1.73,-1.72,1.71,1.66,1.75,-0.02,-0.03,-0.01
252.92,-1.80,-1.77,-1.79,-1.76,1.75,1.69,1.73,-0.05,-0.04,-0.03
255.45,-1.84,-1.79,-1.83,-1.79,1.78,1.72,1.71,-0.05,-0.05,-0.04
258.00,-1.87,-1.81,-1.87,-1.81,1.81,1.75,1.69,-0.05,-0.05,-0.06
260.58,-1.90,-1.83,-1.90,-1.84,1.84,1.77,1.67,-0.06,-0.06,-0.06
263.19,-1.94,-1.86,-1.93,-1.86,1.86,1.80,1.64,-0.07,-0.07,-0.07
265.82,-1.98,-1.89,-1.97,-1.88,1.88,1.82,1.62,-0.09,-0.08,-0.09
268.48,-2.00,-1.89,-2.00,-1.90,1.90,1.85,1.59,-0.09,-0.10,-0.10
271.16,-2.03,-1.91,-2.03,-1.92,1.92,1.87,1.55,-0.11,-0.11,-0.12
273.87,-2.08,-1.95,-2.07,-1.94,1.94,1.89,1.52,-0.14,-0.13,-0.13
276.61,-2.11,-1.96,-2.10,-1.96,1.96,1.91,1.49,-0.15,-0.15,-0.14
279.38,-2.14,-1.98,-2.14,-1.98,1.98,1.92,1.45,-0.15,-0.15,-0.16
282.17,-2.17,-2.00,-2.16,-2.00,2.01,1.94,1.41,-0.16,-0.16,-0.17
284.99,-2.20,-2.01,-2.20,-2.02,2.03,1.95,1.37,-0.17,-0.17,-0.18
287.84,-2.24,-2.04,-2.24,-2.04,2.05,1.96,1.33,-0.18,-0.18,-0.19
290.72,-2.28,-2.07,-2.28,-2.07,2.07,1.97,1.29,-0.20,-0.20,-0.21
293.63,-2.32,-2.10,-2.31,-2.09,2.09,1.97,1.25,-0.23,-0.22,-0.22
296.57,-2.34,-2.10,-2.34,-2.11,2.09,1.97,1.21,-0.24,-0.25,-0.23
299.53,-2.36,-2.11,-2.35,-2.11,2.09,1.97,1.16,-0.26,-0.26,-0.24
302.53,-2.36,-2.10,-2.35,-2.09,2.08,1.97,1.12,-0.28,-0.27,-0.26
305.55,-2.34,-2.06,-2.34,-2.06,2.05,1.96,1.07,-0.28,-0.28,-0.28
308.61,-2.32,-2.02,-2.31,-2.02,2.02,1.95,1.03,-0.30,-0.29,-0.29
311.69,-2.28,-1.97,-2.28,-1.97,1.97,1.94,0.99,-0.30,-0.31,-0.30
314.81,-2.25,-1.92,-2.24,-1.92,1.92,1.93,0.94,-0.32,-0.32,-0.32
317.96,-2.21,-1.87,-2.21,-1.87,1.87,1.91,0.90,-0.33,-0.33,-0.34
321.14,-2.17,-1.81,-2.17,-1.81,1.82,1.88,0.85,-0.35,-0.35,-0.36
324.35,-2.14,-1.77,-2.13,-1.76,1.77,1.86,0.81,-0.37,-0.36,-0.37
327.59,-2.10,-1.70,-2.10,-1.71,1.72,1.83,0.77,-0.37,-0.38,-0.39
330.87,-2.09,-1.68,-2.08,-1.68,1.68,1.79,0.72,-0.40,-0.40,-0.40
334.18,-2.07,-1.64,-2.06,-1.64,1.64,1.76,0.68,-0.42,-0.42,-0.43
337.52,-2.05,-1.61,-2.05,-1.61,1.61,1.72,0.64,-0.44,-0.44,-0.44
340.90,-2.04,-1.58,-2.03,-1.58,1.58,1.68,0.59,-0.46,-0.46,-0.46
344.30,-2.02,-1.55,-2.02,-1.55,1.54,1.63,0.55,-0.47,-0.48,-0.47
347.75,-2.01,-1.51,-2.00,-1.51,1.51,1.59,0.51,-0.50,-0.50,-0.49
351.23,-1.99,-1.47,-1.98,-1.48,1.47,1.54,0.47,-0.51,-0.51,-0.51
354.74,-1.97,-1.44,-1.96,-1.44,1.44,1.49,0.42,-0.53,-0.53,-0.52
358.28,-1.94,-1.39,-1.94,-1.39,1.40,1.44,0.38,-0.54,-0.54,-0.54
361.87,-1.92,-1.35,-1.91,-1.35,1.35,1.38,0.34,-0.56,-0.56,-0.57
365.49,-1.89,-1.31,-1.89,-1.31,1.31,1.33,0.30,-0.58,-0.58,-0.58
369.14,-1.87,-1.27,-1.86,-1.27,1.26,1.27,0.26,-0.61,-0.60,-0.60
372.83,-1.83,-1.22,-1.83,-1.21,1.21,1.21,0.22,-0.62,-0.62,-0.61
376.56,-1.79,-1.16,-1.79,-1.16,1.15,1.15,0.18,-0.63,-0.63,-0.63
380.33,-1.75,-1.09,-1.75,-1.10,1.10,1.09,0.14,-0.64,-0.64,-0.65
384.13,-1.71,-1.04,-1.71,-1.04,1.05,1.03,0.11,-0.66,-0.66,-0.66
387.97,-1.67,-0.98,-1.67,-0.99,0.99,0.97,0.07,-0.67,-0.67,-0.68
391.85,-1.63,-0.93,-1.63,-0.93,0.94,0.90,0.03,-0.69,-0.69,-0.69
395.77,-1.59,-0.88,-1.59,-0.88,0.89,0.84,-0.01,-0.70,-0.70,-0.70
399.73,-1.55,-0.83,-1.55,-0.83,0.83,0.78,-0.05,-0.71,-0.72,-0.71
403.72,-1.51,-0.78,-1.51,-0.78,0.78,0.71,-0.08,-0.73,-0.73,-0.73
407.76,-1.47,-0.73,-1.46,-0.72,0.72,0.65,-0.12,-0.75,-0.75,-0.74
411.84,-1.42,-0.66,-1.42,-0.66,0.66,0.59,-0.16,-0.76,-0.76,-0.76
415.96,-1.37,-0.60,-1.36,-0.60,0.59,0.52,-0.19,-0.77,-0.77,-0.77
420.12,-1.31,-0.53,-1.30,-0.53,0.53,0.46,-0.23,-0.78,-0.78,-0.78
424.32,-1.24,-0.45,-1.24,-0.45,0.46,0.39,-0.26,-0.78,-0.79,-0.79
428.56,-1.19,-0.39,-1.18,-0.38,0.39,0.33,-0.30,-0.80,-0.79,-0.80
432.85,-1.13,-0.31,-1.12,-0.31,0.32,0.26,-0.33,-0.81,-0.81,-0.82
437.18,-1.07,-0.24,-1.07,-0.24,0.24,0.20,-0.37,-0.82,-0.83,-0.83
441.55,-1.02,-0.17,-1.02,-0.17,0.17,0.13,-0.40,-0.85,-0.85,-0.84
445.96,-0.97,-0.10,-0.96,-0.10,0.09,0.07,-0.43,-0.87,-0.87,-0.86
450.42,-0.91,-0.02,-0.91,-0.03,0.02,-0.00,-0.47,-0.89,-0.89,-0.88
454.93,-0.85,0.05,-0.84,0.06,-0.06,-0.07,-0.50,-0.91,-0.90,-0.89
459.48,-0.77,0.15,-0.77,0.14,-0.14,-0.13,-0.53,-0.91,-0.91,-0.91
464.07,-0.70,0.24,-0.70,0.23,-0.23,-0.20,-0.56,-0.92,-0.93,-0.93
468.71,-0.64,0.32,-0.63,0.32,-0.31,-0.27,-0.59,-0.95,-0.94,-0.95
