frequency,raw,error,smoothed,error_smoothed,equalization,parametric_eq,fixed_band_eq,equalized_raw,equalized_smoothed,target
20.00,-2.56,-3.35,-2.57,-3.37,3.39,2.80,-0.01,0.83,0.81,0.79
20.20,-2.53,-3.32,-2.51,-3.30,3.30,2.74,-0.01,0.77,0.79,0.79
20.40,-2.45,-3.24,-2.44,-3.23,3.22,2.68,-0.00,0.77,0.78,0.79
20.61,-2.34,-3.13,-2.36,-3.15,3.13,2.61,0.00,0.79,0.77,0.79
20.81,-2.26,-3.05,-2.25,-3.05,3.04,2.55,0.00,0.78,0.78,0.79
21.02,-2.16,-2.95,-2.16,-2.95,2.95,2.48,0.01,0.79,0.79,0.79
21.23,-2.06,-2.85,-2.06,-2.86,2.86,2.41,0.01,0.80,0.79,0.79
21.44,-1.97,-2.76,-1.97,-2.76,2.76,2.35,0.02,0.79,0.80,0.79
21.66,-1.87,-2.66,-1.87,-2.66,2.66,2.28,0.02,0.79,0.79,0.79
21.87,-1.77,-2.56,-1.77,-2.57,2.57,2.21,0.03,0.80,0.79,0.79
22.09,-1.68,-2.47,-1.68,-2.47,2.47,2.15,0.03,0.79,0.79,0.79
22.31,-1.58,-2.37,-1.58,-2.37,2.37,2.08,0.04,0.79,0.79,0.79
22.54,-1.48,-2.27,-1.49,-2.28,2.28,2.01,0.04,0.80,0.79,0.79
22.76,-1.39,-2.18,-1.39,-2.18,2.18,1.94,0.05,0.79,0.79,0.79
22.99,-1.30,-2.09,-1.29,-2.09,2.09,1.87,0.05,0.79,0.79,0.79
23.22,-1.19,-1.98,-1.20,-1.99,1.99,1.80,0.06,0.80,0.79,0.79
23.45,-1.11,-1.90,-1.10,-1.89,1.89,1.73,0.06,0.79,0.79,0.79
23.69,-1.01,-1.80,-1.01,-1.80,1.80,1.65,0.07,0.79,0.79,0.79
23.92,-0.90,-1.69,-0.91,-1.70,1.70,1.58,0.07,0.80,0.79,0.79
24.16,-0.82,-1.61,-0.81,-1.60,1.61,1.51,0.08,0.79,0.80,0.79
24.40,-0.72,-1.51,-0.72,-1.51,1.51,1.43,0.08,0.79,0.79,0.79
24.65,-0.62,-1.41,-0.63,-1.42,1.42,1.36,0.09,0.79,0.79,0.79
24.89,-0.54,-1.33,-0.53,-1.32,1.32,1.29,0.09,0.78,0.79,0.79
25.14,-0.43,-1.22,-0.43,-1.23,1.22,1.21,0.10,0.80,0.79,0.79
25.39,-0.33,-1.12,-0.34,-1.13,1.13,1.13,0.10,0.80,0.79,0.79
25.65,-0.25,-1.04,-0.24,-1.03,1.03,1.06,0.10,0.78,0.80,0.79
25.91,-0.14,-0.93,-0.14,-0.94,0.94,0.98,0.11,0.80,0.79,0.79
26.16,-0.04,-0.83,-0.05,-0.84,0.84,0.90,0.11,0.80,0.79,0.79
26.43,0.04,-0.75,0.05,-0.74,0.75,0.83,0.11,0.78,0.79,0.79
26.69,0.14,-0.65,0.14,-0.65,0.65,0.75,0.11,0.79,0.79,0.79
26.96,0.24,-0.55,0.23,-0.56,0.55,0.67,0.11,0.79,0.79,0.79
27.23,0.33,-0.46,0.33,-0.46,0.46,0.59,0.10,0.79,0.79,0.79
27.50,0.43,-0.36,0.43,-0.36,0.36,0.51,0.10,0.79,0.79,0.79
27.77,0.53,-0.26,0.53,-0.26,0.27,0.43,0.10,0.80,0.80,0.79
28.05,0.62,-0.17,0.62,-0.17,0.17,0.35,0.09,0.79,0.80,0.79
28.33,0.72,-0.07,0.71,-0.08,0.08,0.27,0.08,0.80,0.79,0.79
28.62,0.80,0.01,0.81,0.01,-0.02,0.18,0.07,0.78,0.79,0.79
28.90,0.90,0.11,0.90,0.11,-0.11,0.10,0.06,0.79,0.79,0.79
29.19,1.01,0.22,1.00,0.21,-0.21,0.02,0.04,0.80,0.79,0.79
29.48,1.10,0.31,1.10,0.31,-0.30,-0.07,0.02,0.80,0.80,0.79
29.78,1.19,0.40,1.19,0.40,-0.40,-0.15,0.00,0.79,0.79,0.79
30.08,1.29,0.50,1.29,0.49,-0.50,-0.24,-0.02,0.79,0.79,0.79
30.38,1.38,0.59,1.38,0.59,-0.59,-0.32,-0.04,0.79,0.79,0.79
30.68,1.48,0.69,1.48,0.69,-0.69,-0.41,-0.07,0.79,0.79,0.79
30.99,1.58,0.79,1.57,0.78,-0.78,-0.49,-0.10,0.80,0.79,0.79
31.30,1.66,0.87,1.67,0.88,-0.88,-0.58,-0.14,0.78,0.79,0.79
31.61,1.77,0.98,1.76,0.97,-0.97,-0.67,-0.18,0.80,0.79,0.79
31.93,1.86,1.07,1.86,1.07,-1.07,-0.76,-0.22,0.79,0.79,0.79
32.24,1.95,1.16,1.95,1.16,-1.16,-0.85,-0.26,0.79,0.79,0.79
32.57,2.05,1.26,2.05,1.26,-1.26,-0.93,-0.31,0.79,0.79,0.79
32.89,2.14,1.35,2.14,1.35,-1.35,-1.02,-0.36,0.79,0.79,0.79
33.22,2.24,1.45,2.24,1.45,-1.44,-1.11,-0.41,0.80,0.80,0.79
33.55,2.33,1.54,2.33,1.54,-1.54,-1.20,-0.46,0.79,0.79,0.79
33.89,2.42,1.63,2.42,1.63,-1.63,-1.30,-0.52,0.79,0.79,0.79
34.23,2.50,1.71,2.51,1.72,-1.72,-1.39,-0.58,0.78,0.79,0.79
34.57,2.61,1.82,2.61,1.81,-1.81,-1.48,-0.65,0.80,0.79,0.79
34.92,2.71,1.92,2.70,1.91,-1.91,-1.57,-0.71,0.80,0.79,0.79
35.27,2.79,2.00,2.79,2.00,-2.00,-1.66,-0.78,0.79,0.79,0.79
35.62,2.87,2.08,2.88,2.09,-2.09,-1.76,-0.85,0.78,0.79,0.79
35.97,2.98,2.19,2.97,2.18,-2.18,-1.85,-0.93,0.80,0.79,0.79
36.33,3.07,2.28,3.06,2.27,-2.27,-1.94,-1.00,0.80,0.79,0.79
36.70,3.14,2.35,3.15,2.36,-2.36,-2.04,-1.08,0.78,0.79,0.79
37.06,3.24,2.45,3.24,2.44,-2.45,-2.13,-1.16,0.79,0.79,0.79
37.43,3.33,2.54,3.33,2.53,-2.54,-2.23,-1.25,0.80,0.79,0.79
37.81,3.41,2.62,3.42,2.63,-2.62,-2.32,-1.33,0.79,0.79,0.79
38.19,3.51,2.72,3.50,2.71,-2.71,-2.42,-1.42,0.80,0.79,0.79
38.57,3.59,2.80,3.59,2.80,-2.80,-2.51,-1.51,0.79,0.79,0.79
38.95,3.67,2.88,3.68,2.89,-2.89,-2.61,-1.60,0.78,0.79,0.79
39.34,3.77,2.98,3.77,2.97,-2.97,-2.71,-1.69,0.80,0.79,0.79
39.74,3.86,3.07,3.86,3.07,-3.06,-2.80,-1.79,0.80,0.80,0.79
40.14,3.94,3.15,3.94,3.15,-3.15,-2.90,-1.88,0.79,0.79,0.79
40.54,4.04,3.25,4.03,3.23,-3.24,-3.00,-1.98,0.80,0.79,0.79
40.94,4.10,3.31,4.11,3.32,-3.32,-3.09,-2.08,0.78,0.79,0.79
41.35,4.20,3.41,4.20,3.41,-3.41,-3.19,-2.19,0.79,0.79,0.79
41.76,4.29,3.50,4.29,3.49,-3.49,-3.28,-2.29,0.80,0.79,0.79
42.18,4.37,3.58,4.38,3.58,-3.58,-3.38,-2.40,0.79,0.80,0.79
42.60,4.46,3.67,4.45,3.66,-3.66,-3.48,-2.51,0.80,0.80,0.79
43.03,4.53,3.74,4.53,3.74,-3.74,-3.57,-2.62,0.79,0.79,0.79
43.46,4.60,3.81,4.61,3.81,-3.82,-3.67,-2.74,0.78,0.79,0.79
43.90,4.69,3.90,4.68,3.89,-3.89,-3.76,-2.85,0.80,0.79,0.79
44.33,4.75,3.96,4.76,3.97,-3.97,-3.86,-2.97,0.78,0.79,0.79
44.78,4.84,4.05,4.84,4.05,-4.05,-3.95,-3.09,0.79,0.79,0.79
45.23,4.92,4.13,4.91,4.12,-4.12,-4.05,-3.21,0.80,0.79,0.79
45.68,4.98,4.19,4.99,4.20,-4.19,-4.14,-3.34,0.79,0.79,0.79
46.13,5.06,4.27,5.06,4.27,-4.27,-4.23,-3.47,0.79,0.79,0.79
46.60,5.14,4.35,5.13,4.34,-4.34,-4.32,-3.59,0.80,0.79,0.79
47.06,5.20,4.41,5.21,4.41,-4.41,-4.41,-3.73,0.79,0.79,0.79
47.53,5.28,4.49,5.27,4.48,-4.48,-4.50,-3.86,0.80,0.79,0.79
48.01,5.34,4.55,5.34,4.55,-4.55,-4.59,-3.99,0.79,0.79,0.79
48.49,5.41,4.62,5.41,4.62,-4.62,-4.68,-4.13,0.79,0.79,0.79
48.97,5.48,4.69,5.48,4.69,-4.69,-4.76,-4.27,0.79,0.79,0.79
49.46,5.55,4.76,5.55,4.76,-4.76,-4.85,-4.41,0.80,0.79,0.79
49.96,5.61,4.82,5.61,4.82,-4.82,-4.93,-4.55,0.79,0.79,0.79
50.46,5.68,4.89,5.68,4.89,-4.88,-5.01,-4.69,0.79,0.79,0.79
50.96,5.74,4.95,5.74,4.95,-4.95,-5.09,-4.83,0.79,0.79,0.79
51.47,5.80,5.01,5.80,5.01,-5.01,-5.17,-4.97,0.79,0.79,0.79
51.99,5.85,5.06,5.86,5.07,-5.07,-5.24,-5.12,0.78,0.79,0.79
52.51,5.92,5.13,5.92,5.12,-5.12,-5.31,-5.26,0.80,0.80,0.79
53.03,5.98,5.19,5.97,5.18,-5.17,-5.38,-5.40,0.81,0.80,0.79
53.56,6.01,5.22,6.02,5.23,-5.22,-5.45,-5.54,0.79,0.80,0.79
54.10,6.06,5.27,6.06,5.27,-5.27,-5.52,-5.67,0.79,0.79,0.79
54.64,6.11,5.32,6.10,5.31,-5.32,-5.58,-5.81,0.79,0.79,0.79
55.18,6.15,5.36,6.16,5.36,-5.36,-5.64,-5.94,0.79,0.79,0.79
55.74,6.20,5.41,6.20,5.41,-5.41,-5.69,-6.06,0.79,0.79,0.79
56.29,6.25,5.46,6.24,5.45,-5.45,-5.75,-6.18,0.80,0.79,0.79
56.86,6.28,5.49,6.29,5.50,-5.49,-5.80,-6.30,0.79,0.80,0.79
57.42,6.33,5.54,6.32,5.53,-5.53,-5.84,-6.40,0.80,0.79,0.79
58.00,6.36,5.57,6.36,5.57,-5.57,-5.88,-6.50,0.79,0.79,0.79
58.58,6.39,5.60,6.40,5.61,-5.60,-5.92,-6.59,0.79,0.79,0.79
59.16,6.43,5.64,6.43,5.64,-5.64,-5.96,-6.68,0.79,0.79,0.79
59.76,6.47,5.68,6.46,5.67,-5.67,-5.99,-6.75,0.80,0.79,0.79
60.35,6.48,5.69,6.49,5.70,-5.70,-6.02,-6.81,0.78,0.80,0.79
60.96,6.52,5.73,6.52,5.73,-5.72,-6.04,-6.86,0.80,0.79,0.79
61.57,6.55,5.76,6.54,5.75,-5.75,-6.06,-6.90,0.80,0.79,0.79
62.18,6.56,5.77,6.57,5.77,-5.77,-6.08,-6.93,0.79,0.79,0.79
62.80,6.58,5.79,6.58,5.79,-5.80,-6.09,-6.95,0.78,0.79,0.79
63.43,6.61,5.82,6.60,5.81,-5.81,-6.10,-6.95,0.80,0.79,0.79
64.07,6.61,5.82,6.62,5.83,-5.83,-6.11,-6.95,0.78,0.79,0.79
64.71,6.65,5.86,6.64,5.85,-5.84,-6.11,-6.93,0.81,0.80,0.79
65.35,6.65,5.86,6.65,5.86,-5.85,-6.10,-6.90,0.80,0.80,0.79
66.01,6.65,5.86,6.65,5.86,-5.86,-6.10,-6.86,0.79,0.80,0.79
66.67,6.65,5.86,6.65,5.86,-5.86,-6.09,-6.81,0.79,0.79,0.79
67.33,6.65,5.86,6.65,5.86,-5.86,-6.07,-6.75,0.79,0.79,0.79
68.01,6.65,5.86,6.65,5.86,-5.86,-6.05,-6.69,0.79,0.79,0.79
68.69,6.65,5.86,6.65,5.86,-5.86,-6.03,-6.62,0.79,0.79,0.79
69.37,6.65,5.86,6.65,5.86,-5.86,-6.01,-6.54,0.79,0.79,0.79
70.07,6.65,5.86,6.65,5.86,-5.86,-5.98,-6.45,0.79,0.80,0.79
70.77,6.65,5.86,6.65,5.86,-5.85,-5.95,-6.36,0.80,0.80,0.79
71.48,6.65,5.86,6.64,5.84,-5.84,-5.92,-6.27,0.81,0.79,0.79
72.19,6.61,5.82,6.63,5.84,-5.83,-5.88,-6.17,0.78,0.80,0.79
72.91,6.61,5.82,6.61,5.82,-5.82,-5.84,-6.08,0.79,0.79,0.79
73.64,6.61,5.82,6.59,5.80,-5.80,-5.80,-5.97,0.81,0.79,0.79
74.38,6.56,5.77,6.57,5.78,-5.78,-5.76,-5.87,0.78,0.79,0.79
75.12,6.56,5.77,6.55,5.76,-5.76,-5.71,-5.77,0.80,0.79,0.79
75.87,6.52,5.73,6.53,5.74,-5.74,-5.66,-5.67,0.78,0.79,0.79
76.63,6.52,5.73,6.51,5.72,-5.71,-5.61,-5.57,0.81,0.79,0.79
77.40,6.48,5.69,6.48,5.69,-5.69,-5.56,-5.47,0.79,0.79,0.79
78.17,6.44,5.65,6.45,5.66,-5.66,-5.51,-5.37,0.78,0.79,0.79
78.95,6.43,5.64,6.42,5.62,-5.63,-5.45,-5.27,0.80,0.79,0.79
79.74,6.38,5.59,6.39,5.59,-5.59,-5.40,-5.18,0.78,0.79,0.79
80.54,6.35,5.56,6.35,5.56,-5.56,-5.34,-5.08,0.79,0.79,0.79
81.35,6.32,5.53,6.31,5.52,-5.52,-5.28,-4.99,0.80,0.79,0.79
82.16,6.27,5.48,6.28,5.49,-5.48,-5.22,-4.91,0.79,0.80,0.79
82.98,6.24,5.45,6.23,5.44,-5.44,-5.16,-4.82,0.80,0.79,0.79
83.81,6.19,5.40,6.19,5.40,-5.40,-5.10,-4.74,0.79,0.79,0.79
84.65,6.13,5.34,6.14,5.35,-5.35,-5.04,-4.66,0.78,0.79,0.79
85.50,6.10,5.31,6.09,5.30,-5.30,-4.98,-4.59,0.80,0.79,0.79
86.35,6.04,5.25,6.04,5.25,-5.25,-4.92,-4.51,0.79,0.79,0.79
87.22,5.98,5.19,5.99,5.20,-5.20,-4.85,-4.45,0.78,0.80,0.79
88.09,5.94,5.15,5.93,5.14,-5.14,-4.79,-4.38,0.80,0.79,0.79
88.97,5.88,5.09,5.88,5.08,-5.08,-4.73,-4.32,0.80,0.79,0.79
89.86,5.81,5.02,5.81,5.02,-5.02,-4.67,-4.26,0.79,0.79,0.79
90.76,5.75,4.96,5.75,4.96,-4.96,-4.60,-4.21,0.79,0.79,0.79
91.66,5.68,4.89,5.69,4.89,-4.90,-4.54,-4.15,0.78,0.79,0.79
92.58,5.63,4.84,5.62,4.83,-4.83,-4.48,-4.11,0.80,0.79,0.79
93.51,5.55,4.76,5.55,4.76,-4.76,-4.42,-4.06,0.79,0.79,0.79
94.44,5.48,4.69,5.48,4.69,-4.69,-4.35,-4.02,0.79,0.79,0.79
95.39,5.41,4.62,5.41,4.61,-4.62,-4.29,-3.98,0.79,0.79,0.79
96.34,5.33,4.54,5.34,4.54,-4.54,-4.23,-3.94,0.79,0.79,0.79
97.30,5.26,4.47,5.26,4.47,-4.47,-4.17,-3.91,0.79,0.79,0.79
98.28,5.19,4.40,5.18,4.39,-4.39,-4.11,-3.88,0.80,0.79,0.79
99.26,5.09,4.30,5.10,4.31,-4.31,-4.05,-3.85,0.78,0.79,0.79
100.25,5.03,4.24,5.02,4.23,-4.23,-3.98,-3.82,0.80,0.79,0.79
101.25,4.93,4.14,4.94,4.14,-4.14,-3.92,-3.80,0.79,0.80,0.79
102.27,4.85,4.06,4.85,4.06,-4.05,-3.86,-3.78,0.80,0.80,0.79
103.29,4.77,3.98,4.76,3.97,-3.97,-3.80,-3.75,0.80,0.79,0.79
104.32,4.66,3.87,4.67,3.88,-3.88,-3.75,-3.74,0.78,0.79,0.79
105.37,4.59,3.80,4.58,3.79,-3.79,-3.69,-3.72,0.80,0.79,0.79
106.42,4.50,3.71,4.50,3.71,-3.71,-3.63,-3.70,0.79,0.79,0.79
107.48,4.42,3.63,4.42,3.63,-3.63,-3.57,-3.68,0.79,0.79,0.79
108.56,4.34,3.55,4.34,3.55,-3.55,-3.51,-3.67,0.79,0.79,0.79
109.64,4.27,3.48,4.27,3.48,-3.48,-3.46,-3.65,0.79,0.79,0.79
110.74,4.20,3.41,4.20,3.41,-3.41,-3.40,-3.63,0.79,0.79,0.79
111.85,4.14,3.35,4.14,3.35,-3.35,-3.34,-3.62,0.79,0.79,0.79
112.97,4.08,3.29,4.08,3.29,-3.29,-3.29,-3.60,0.79,0.79,0.79
114.10,4.02,3.23,4.02,3.23,-3.23,-3.23,-3.58,0.79,0.79,0.79
115.24,3.96,3.17,3.96,3.17,-3.17,-3.17,-3.56,0.79,0.79,0.79
116.39,3.90,3.11,3.90,3.11,-3.11,-3.12,-3.54,0.79,0.80,0.79
117.55,3.85,3.06,3.84,3.05,-3.04,-3.06,-3.52,0.81,0.80,0.79
118.73,3.77,2.98,3.78,2.98,-2.97,-3.01,-3.49,0.80,0.80,0.79
119.92,3.70,2.91,3.70,2.91,-2.90,-2.95,-3.46,0.80,0.80,0.79
121.12,3.63,2.84,3.62,2.83,-2.83,-2.90,-3.43,0.80,0.79,0.79
122.33,3.53,2.74,3.54,2.75,-2.75,-2.85,-3.40,0.78,0.79,0.79
123.55,3.47,2.68,3.47,2.67,-2.68,-2.79,-3.36,0.79,0.78,0.79
124.79,3.39,2.60,3.39,2.60,-2.61,-2.74,-3.32,0.78,0.78,0.79
126.03,3.33,2.54,3.33,2.54,-2.54,-2.68,-3.28,0.79,0.79,0.79
127.29,3.26,2.47,3.26,2.47,-2.47,-2.63,-3.23,0.79,0.79,0.79
128.57,3.21,2.42,3.21,2.41,-2.41,-2.58,-3.18,0.80,0.80,0.79
129.85,3.15,2.36,3.15,2.35,-2.35,-2.52,-3.13,0.80,0.79,0.79
131.15,3.09,2.30,3.09,2.30,-2.30,-2.47,-3.08,0.79,0.79,0.79
132.46,3.03,2.24,3.03,2.24,-2.25,-2.42,-3.02,0.78,0.78,0.79
133.79,2.99,2.20,2.99,2.20,-2.20,-2.36,-2.96,0.79,0.78,0.79
135.12,2.95,2.16,2.95,2.16,-2.16,-2.31,-2.89,0.79,0.79,0.79
136.48,2.92,2.13,2.92,2.12,-2.12,-2.26,-2.83,0.80,0.79,0.79
137.84,2.88,2.09,2.88,2.09,-2.08,-2.20,-2.76,0.80,0.80,0.79
139.22,2.84,2.05,2.84,2.05,-2.05,-2.15,-2.69,0.79,0.80,0.79
140.61,2.81,2.02,2.81,2.01,-2.01,-2.10,-2.62,0.80,0.79,0.79
142.02,2.77,1.98,2.77,1.98,-1.98,-2.05,-2.55,0.79,0.79,0.79
143.44,2.73,1.94,2.73,1.94,-1.94,-1.99,-2.47,0.79,0.79,0.79
144.87,2.70,1.91,2.70,1.90,-1.91,-1.94,-2.40,0.79,0.79,0.79
146.32,2.66,1.87,2.66,1.87,-1.87,-1.89,-2.32,0.79,0.79,0.79
147.78,2.62,1.83,2.63,1.83,-1.83,-1.84,-2.24,0.79,0.79,0.79
149.26,2.59,1.80,2.59,1.80,-1.80,-1.78,-2.16,0.79,0.79,0.79
150.75,2.56,1.77,2.55,1.76,-1.76,-1.73,-2.08,0.80,0.79,0.79
152.26,2.51,1.72,2.52,1.73,-1.72,-1.68,-2.00,0.79,0.79,0.79
153.78,2.48,1.69,2.48,1.69,-1.69,-1.63,-1.92,0.79,0.79,0.79
155.32,2.45,1.66,2.44,1.65,-1.65,-1.57,-1.84,0.80,0.79,0.79
156.88,2.40,1.61,2.41,1.62,-1.62,-1.52,-1.76,0.78,0.79,0.79
158.44,2.37,1.58,2.37,1.58,-1.58,-1.47,-1.69,0.79,0.79,0.79
160.03,2.34,1.55,2.33,1.54,-1.54,-1.42,-1.61,0.80,0.79,0.79
161.63,2.30,1.51,2.30,1.50,-1.50,-1.37,-1.53,0.80,0.79,0.79
163.24,2.25,1.46,2.26,1.46,-1.46,-1.31,-1.45,0.79,0.79,0.79
164.88,2.21,1.42,2.21,1.42,-1.42,-1.26,-1.37,0.79,0.79,0.79
166.53,2.17,1.38,2.17,1.37,-1.37,-1.21,-1.29,0.80,0.79,0.79
168.19,2.12,1.33,2.12,1.33,-1.32,-1.16,-1.22,0.80,0.80,0.79
169.87,2.06,1.27,2.06,1.27,-1.27,-1.11,-1.14,0.79,0.79,0.79
171.57,2.00,1.21,2.00,1.21,-1.21,-1.06,-1.07,0.79,0.79,0.79
173.29,1.94,1.15,1.94,1.15,-1.15,-1.01,-0.99,0.79,0.79,0.79
175.02,1.88,1.09,1.88,1.09,-1.09,-0.96,-0.92,0.79,0.79,0.79
176.77,1.82,1.03,1.82,1.02,-1.02,-0.91,-0.84,0.80,0.80,0.79
178.54,1.74,0.95,1.75,0.95,-0.95,-0.86,-0.77,0.79,0.80,0.79
180.32,1.67,0.88,1.66,0.87,-0.87,-0.81,-0.69,0.80,0.80,0.79
182.13,1.58,0.79,1.57,0.78,-0.78,-0.76,-0.62,0.80,0.79,0.79
183.95,1.47,0.68,1.48,0.69,-0.69,-0.71,-0.55,0.78,0.79,0.79
185.79,1.39,0.60,1.38,0.59,-0.59,-0.66,-0.48,0.80,0.79,0.79
187.65,1.29,0.50,1.28,0.49,-0.49,-0.61,-0.41,0.80,0.79,0.79
189.52,1.18,0.39,1.19,0.39,-0.39,-0.57,-0.34,0.79,0.79,0.79
191.42,1.08,0.29,1.08,0.29,-0.29,-0.52,-0.27,0.79,0.79,0.79
193.33,0.98,0.19,0.98,0.19,-0.19,-0.47,-0.20,0.79,0.79,0.79
195.27,0.88,0.09,0.87,0.08,-0.08,-0.42,-0.13,0.80,0.79,0.79
197.22,0.77,-0.02,0.78,-0.02,0.02,-0.38,-0.07,0.79,0.79,0.79
199.19,0.67,-0.12,0.68,-0.12,0.12,-0.33,0.00,0.79,0.79,0.79
201.18,0.59,-0.20,0.58,-0.22,0.21,-0.29,0.07,0.80,0.79,0.79
203.19,0.48,-0.31,0.48,-0.31,0.31,-0.24,0.13,0.79,0.79,0.79
205.23,0.38,-0.41,0.39,-0.40,0.40,-0.20,0.20,0.78,0.79,0.79
207.28,0.32,-0.47,0.31,-0.48,0.48,-0.16,0.26,0.80,0.79,0.79
209.35,0.22,-0.57,0.23,-0.56,0.57,-0.11,0.32,0.79,0.79,0.79
211.44,0.16,-0.63,0.15,-0.64,0.64,-0.07,0.38,0.80,0.79,0.79
213.56,0.06,-0.73,0.07,-0.72,0.72,-0.03,0.44,0.78,0.79,0.79
215.69,-0.00,-0.79,0.00,-0.79,0.79,0.01,0.50,0.79,0.80,0.79
217.85,-0.06,-0.85,-0.07,-0.86,0.86,0.05,0.56,0.80,0.79,0.79
220.03,-0.14,-0.93,-0.14,-0.93,0.93,0.09,0.61,0.79,0.80,0.79
222.23,-0.21,-1.00,-0.20,-0.99,1.00,0.13,0.66,0.79,0.79,0.79
224.45,-0.26,-1.05,-0.27,-1.06,1.06,0.17,0.72,0.80,0.79,0.79
226.70,-0.32,-1.11,-0.32,-1.12,1.12,0.21,0.76,0.80,0.80,0.79
228.96,-0.38,-1.17,-0.38,-1.17,1.17,0.24,0.81,0.79,0.80,0.79
231.25,-0.43,-1.22,-0.43,-1.22,1.22,0.28,0.86,0.79,0.80,0.79
233.57,-0.47,-1.26,-0.47,-1.26,1.26,0.32,0.90,0.79,0.79,0.79
235.90,-0.50,-1.29,-0.51,-1.30,1.30,0.35,0.94,0.80,0.79,0.79
238.26,-0.54,-1.33,-0.53,-1.32,1.32,0.39,0.97,0.78,0.79,0.79
240.64,-0.54,-1.33,-0.54,-1.33,1.33,0.42,1.01,0.79,0.78,0.79
243.05,-0.54,-1.33,-0.54,-1.33,1.32,0.45,1.04,0.78,0.78,0.79
245.48,-0.52,-1.31,-0.52,-1.31,1.31,0.48,1.07,0.79,0.78,0.79
247.93,-0.50,-1.29,-0.49,-1.29,1.28,0.51,1.09,0.78,0.78,0.79
250.41,-0.45,-1.24,-0.45,-1.24,1.24,0.54,1.11,0.79,0.79,0.79
252.92,-0.40,-1.19,-0.40,-1.19,1.20,0.57,1.13,0.80,0.80,0.79
255.45,-0.35,-1.14,-0.35,-1.14,1.15,0.60,1.15,0.80,0.80,0.79
258.00,-0.30,-1.09,-0.30,-1.10,1.10,0.63,1.16,0.80,0.80,0.79
260.58,-0.26,-1.05,-0.25,-1.05,1.05,0.66,1.17,0.79,0.80,0.79
263.19,-0.21,-1.00,-0.21,-1.00,1.00,0.68,1.18,0.79,0.80,0.79
265.82,-0.16,-0.95,-0.17,-0.96,0.96,0.71,1.18,0.80,0.79,0.79
268.48,-0.13,-0.92,-0.13,-0.92,0.92,0.73,1.18,0.79,0.79,0.79
271.16,-0.10,-0.89,-0.09,-0.88,0.88,0.75,1.18,0.78,0.79,0.79
273.87,-0.06,-0.85,-0.06,-0.85,0.85,0.77,1.18,0.79,0.79,0.79
276.61,-0.02,-0.81,-0.03,-0.83,0.83,0.80,1.18,0.81,0.79,0.79
279.38,-0.02,-0.81,-0.01,-0.80,0.81,0.82,1.17,0.79,0.80,0.79
282.17,0.00,-0.79,0.00,-0.79,0.79,0.84,1.16,0.79,0.80,0.79
284.99,0.02,-0.77,0.01,-0.78,0.78,0.85,1.16,0.80,0.79,0.79
287.84,0.02,-0.77,0.02,-0.77,0.77,0.87,1.15,0.79,0.79,0.79
290.72,0.02,-0.77,0.02,-0.77,0.77,0.89,1.13,0.79,0.79,0.79
293.63,0.02,-0.77,0.02,-0.77,0.77,0.90,1.12,0.79,0.79,0.79
296.57,0.02,-0.77,0.02,-0.77,0.77,0.92,1.11,0.79,0.79,0.79
299.53,0.02,-0.77,0.02,-0.77,0.77,0.93,1.10,0.79,0.80,0.79
302.53,0.02,-0.77,0.02,-0.77,0.78,0.94,1.08,0.80,0.80,0.79
305.55,0.02,-0.77,0.01,-0.78,0.79,0.95,1.07,0.81,0.80,0.79
308.61,-0.02,-0.81,-0.01,-0.80,0.80,0.96,1.05,0.78,0.80,0.79
311.69,-0.02,-0.81,-0.02,-0.82,0.82,0.97,1.04,0.80,0.79,0.79
314.81,-0.04,-0.83,-0.04,-0.83,0.83,0.98,1.03,0.79,0.79,0.79
317.96,-0.06,-0.85,-0.06,-0.85,0.86,0.99,1.01,0.80,0.80,0.79
321.14,-0.08,-0.87,-0.08,-0.87,0.88,0.99,1.00,0.80,0.80,0.79
324.35,-0.11,-0.90,-0.10,-0.90,0.90,1.00,0.99,0.79,0.80,0.79
327.59,-0.11,-0.90,-0.12,-0.92,0.92,1.00,0.97,0.81,0.79,0.79
330.87,-0.15,-0.94,-0.14,-0.93,0.93,1.00,0.96,0.78,0.79,0.79
334.18,-0.15,-0.94,-0.15,-0.94,0.93,1.01,0.95,0.78,0.78,0.79
337.52,-0.15,-0.94,-0.15,-0.94,0.93,1.01,0.94,0.78,0.78,0.79
340.90,-0.15,-0.94,-0.14,-0.93,0.92,1.01,0.93,0.77,0.78,0.79
344.30,-0.11,-0.90,-0.12,-0.91,0.91,1.01,0.92,0.80,0.79,0.79
347.75,-0.11,-0.90,-0.10,-0.89,0.89,1.00,0.91,0.78,0.79,0.79
351.23,-0.06,-0.85,-0.07,-0.86,0.87,1.00,0.90,0.81,0.80,0.79
354.74,-0.05,-0.84,-0.05,-0.84,0.84,1.00,0.89,0.79,0.80,0.79
358.28,-0.02,-0.81,-0.02,-0.81,0.81,0.99,0.89,0.79,0.80,0.79
361.87,0.01,-0.78,-0.00,-0.79,0.79,0.99,0.88,0.80,0.79,0.79
365.49,0.02,-0.77,0.02,-0.77,0.77,0.98,0.88,0.79,0.79,0.79
369.14,0.02,-0.77,0.04,-0.76,0.76,0.98,0.87,0.78,0.79,0.79
372.83,0.06,-0.73,0.05,-0.74,0.75,0.97,0.87,0.81,0.80,0.79
376.56,0.06,-0.73,0.06,-0.73,0.75,0.96,0.86,0.81,0.80,0.79
380.33,0.06,-0.73,0.05,-0.74,0.75,0.96,0.86,0.81,0.80,0.79
384.13,0.03,-0.76,0.04,-0.76,0.75,0.95,0.86,0.78,0.79,0.79
387.97,0.02,-0.77,0.02,-0.77,0.76,0.94,0.86,0.78,0.78,0.79
391.85,0.02,-0.77,0.02,-0.77,0.77,0.94,0.86,0.79,0.79,0.79
395.77,0.02,-0.77,0.02,-0.78,0.78,0.93,0.86,0.80,0.80,0.79
399.73,0.02,-0.77,0.01,-0.79,0.79,0.92,0.86,0.81,0.79,0.79
403.72,-0.02,-0.81,-0.01,-0.80,0.80,0.92,0.86,0.78,0.79,0.79
407.76,-0.02,-0.81,-0.02,-0.81,0.80,0.91,0.87,0.78,0.78,0.79
411.84,-0.02,-0.81,-0.02,-0.82,0.81,0.91,0.87,0.79,0.79,0.79
415.96,-0.02,-0.81,-0.02,-0.81,0.82,0.91,0.87,0.80,0.80,0.79
420.12,-0.02,-0.81,-0.02,-0.82,0.82,0.91,0.88,0.80,0.80,0.79
424.32,-0.03,-0.82,-0.03,-0.82,0.83,0.91,0.88,0.80,0.80,0.79
428.56,-0.04,-0.83,-0.04,-0.83,0.84,0.91,0.88,0.80,0.80,0.79
432.85,-0.05,-0.84,-0.05,-0.84,0.84,0.91,0.89,0.79,0.79,0.79
437.18,-0.06,-0.85,-0.06,-0.85,0.85,0.91,0.89,0.79,0.79,0.79
441.55,-0.06,-0.85,-0.06,-0.85,0.85,0.91,0.90,0.79,0.79,0.79
445.96,-0.06,-0.85,-0.06,-0.86,0.85,0.92,0.90,0.79,0.79,0.79
450.42,-0.06,-0.85,-0.06,-0.85,0.85,0.92,0.91,0.79,0.79,0.79
454.93,-0.06,-0.85,-0.06,-0.85,0.84,0.93,0.91,0.78,0.79,0.79
459.48,-0.04,-0.83,-0.05,-0.84,0.84,0.93,0.92,0.80,0.79,0.79
464.07,-0.04,-0.83,-0.03,-0.83,0.83,0.94,0.92,0.79,0.80,0.79
468.71,-0.02,-0.81,-0.02,-0.82,0.82,0.95,0.93,0.80,0.80,0.79
473.40,-0.02,-0.81,-0.02,-0.81,0.82,0.95,0.93,0.80,0.79,0.79
478.13,-0.02,-0.81,-0.02,-0.81,0.81,0.96,0.93,0.79,0.79,0.79
482.91,-0.02,-0.81,-0.02,-0.81,0.81,0.97,0.94,0.79,0.79,0.79
487.74,-0.02,-0.81,-0.02,-0.81,0.80,0.98,0.94,0.78,0.79,0.79
492.62,-0.02,-0.81,-0.02,-0.81,0.81,0.98,0.94,0.79,0.79,0.79
497.55,-0.02,-0.81,-0.03,-0.82,0.81,0.99,0.95,0.79,0.79,0.79
502.52,-0.04,-0.83,-0.04,-0.83,0.82,1.00,0.95,0.78,0.79,0.79
507.55,-0.06,-0.85,-0.06,-0.85,0.84,1.01,0.95,0.78,0.79,0.79
512.62,-0.08,-0.87,-0.09,-0.88,0.88,1.01,0.95,0.80,0.79,0.79
517.75,-0.13,-0.92,-0.12,-0.92,0.93,1.02,0.95,0.80,0.81,0.79
522.93,-0.18,-0.97,-0.18,-0.98,1.00,1.02,0.95,0.82,0.82,0.79
528.16,-0.26,-1.05,-0.27,-1.06,1.09,1.03,0.95,0.83,0.83,0.79
533.44,-0.38,-1.17,-0.38,-1.17,1.21,1.03,0.95,0.83,0.83,0.79
538.77,-0.51,-1.30,-0.51,-1.30,1.33,1.04,0.95,0.82,0.82,0.79
