frequency,raw,error,smoothed,error_smoothed,equalization,parametric_eq,fixed_band_eq,equalized_raw,equalized_smoothed,target
20.00,8.17,-0.59,8.17,-0.59,0.59,-0.26,-0.16,8.77,8.77,8.77
20.20,8.19,-0.54,8.19,-0.54,0.55,-0.26,-0.16,8.74,8.74,8.74
20.40,8.21,-0.50,8.21,-0.50,0.50,-0.26,-0.16,8.72,8.72,8.72
20.61,8.23,-0.46,8.23,-0.46,0.46,-0.27,-0.17,8.69,8.69,8.70
20.81,8.25,-0.42,8.25,-0.42,0.42,-0.27,-0.17,8.67,8.67,8.67
21.02,8.27,-0.38,8.27,-0.38,0.38,-0.27,-0.18,8.65,8.65,8.65
21.23,8.29,-0.34,8.29,-0.34,0.34,-0.27,-0.18,8.63,8.63,8.63
21.44,8.31,-0.30,8.31,-0.30,0.30,-0.28,-0.19,8.61,8.61,8.61
21.66,8.33,-0.26,8.33,-0.26,0.26,-0.28,-0.19,8.60,8.60,8.59
21.87,8.35,-0.23,8.35,-0.22,0.23,-0.28,-0.19,8.58,8.58,8.58
22.09,8.37,-0.19,8.37,-0.19,0.19,-0.28,-0.20,8.56,8.56,8.56
22.31,8.39,-0.16,8.39,-0.16,0.16,-0.29,-0.20,8.55,8.55,8.55
22.54,8.41,-0.13,8.41,-0.12,0.12,-0.29,-0.21,8.54,8.54,8.54
22.76,8.43,-0.09,8.43,-0.09,0.09,-0.29,-0.22,8.53,8.53,8.53
22.99,8.45,-0.06,8.45,-0.06,0.06,-0.30,-0.22,8.52,8.52,8.52
23.22,8.47,-0.03,8.48,-0.03,0.03,-0.30,-0.23,8.51,8.51,8.51
23.45,8.49,-0.00,8.49,-0.00,0.01,-0.30,-0.23,8.50,8.50,8.50
23.69,8.51,0.03,8.51,0.02,-0.02,-0.31,-0.24,8.49,8.49,8.49
23.92,8.52,0.04,8.53,0.05,-0.05,-0.31,-0.24,8.48,8.48,8.49
24.16,8.54,0.07,8.55,0.07,-0.07,-0.31,-0.25,8.47,8.48,8.47
24.40,8.56,0.09,8.56,0.09,-0.09,-0.32,-0.26,8.47,8.47,8.47
24.65,8.58,0.12,8.58,0.12,-0.12,-0.32,-0.26,8.47,8.46,8.46
24.89,8.59,0.13,8.60,0.14,-0.14,-0.32,-0.27,8.45,8.46,8.46
25.14,8.61,0.16,8.62,0.17,-0.17,-0.33,-0.28,8.45,8.45,8.45
25.39,8.64,0.20,8.63,0.19,-0.19,-0.33,-0.28,8.45,8.44,8.44
25.65,8.65,0.22,8.65,0.22,-0.21,-0.34,-0.29,8.44,8.44,8.44
25.91,8.66,0.24,8.67,0.24,-0.24,-0.34,-0.30,8.43,8.43,8.43
26.16,8.68,0.26,8.68,0.26,-0.26,-0.34,-0.30,8.43,8.43,8.43
26.43,8.70,0.28,8.70,0.28,-0.28,-0.35,-0.31,8.42,8.42,8.43
26.69,8.71,0.30,8.72,0.30,-0.30,-0.35,-0.32,8.41,8.42,8.41
26.96,8.73,0.32,8.73,0.32,-0.32,-0.36,-0.32,8.41,8.41,8.41
27.23,8.74,0.34,8.75,0.34,-0.34,-0.36,-0.33,8.40,8.40,8.40
27.50,8.76,0.36,8.76,0.36,-0.36,-0.37,-0.34,8.40,8.40,8.40
27.77,8.78,0.39,8.78,0.39,-0.39,-0.37,-0.35,8.40,8.40,8.40
28.05,8.79,0.41,8.80,0.41,-0.41,-0.38,-0.35,8.39,8.39,8.39
28.33,8.81,0.43,8.81,0.43,-0.43,-0.38,-0.36,8.39,8.39,8.39
28.62,8.82,0.44,8.83,0.45,-0.45,-0.38,-0.37,8.38,8.38,8.38
28.90,8.84,0.47,8.84,0.47,-0.46,-0.39,-0.38,8.38,8.38,8.37
29.19,8.85,0.48,8.85,0.48,-0.48,-0.39,-0.38,8.37,8.37,8.37
29.48,8.86,0.50,8.87,0.50,-0.50,-0.40,-0.39,8.37,8.37,8.37
29.78,8.88,0.52,8.88,0.51,-0.51,-0.41,-0.40,8.37,8.37,8.37
30.08,8.89,0.53,8.89,0.53,-0.53,-0.41,-0.41,8.36,8.36,8.37
30.38,8.90,0.55,8.91,0.55,-0.55,-0.42,-0.41,8.36,8.36,8.35
30.68,8.91,0.56,8.91,0.56,-0.56,-0.42,-0.42,8.35,8.35,8.35
30.99,8.92,0.57,8.92,0.58,-0.58,-0.43,-0.43,8.35,8.35,8.35
31.30,8.93,0.59,8.94,0.59,-0.59,-0.43,-0.43,8.34,8.34,8.35
31.61,8.94,0.61,8.95,0.61,-0.61,-0.44,-0.44,8.33,8.34,8.34
31.93,8.96,0.63,8.96,0.63,-0.63,-0.45,-0.45,8.34,8.33,8.33
32.24,8.97,0.64,8.98,0.65,-0.64,-0.45,-0.46,8.33,8.33,8.33
32.57,8.98,0.67,8.99,0.66,-0.66,-0.46,-0.46,8.32,8.33,8.32
32.89,8.99,0.68,8.99,0.68,-0.67,-0.46,-0.47,8.32,8.32,8.32
33.22,8.99,0.68,9.00,0.69,-0.69,-0.47,-0.48,8.31,8.31,8.31
33.55,9.00,0.70,9.00,0.70,-0.70,-0.48,-0.49,8.30,8.30,8.30
33.89,9.01,0.72,9.01,0.71,-0.71,-0.48,-0.49,8.30,8.30,8.30
34.23,9.01,0.72,9.02,0.73,-0.73,-0.49,-0.50,8.29,8.29,8.29
34.57,9.02,0.74,9.02,0.74,-0.74,-0.50,-0.51,8.28,8.28,8.28
34.92,9.02,0.75,9.03,0.75,-0.75,-0.50,-0.52,8.27,8.27,8.28
35.27,9.03,0.76,9.04,0.76,-0.77,-0.51,-0.53,8.27,8.27,8.27
35.62,9.04,0.78,9.04,0.78,-0.78,-0.52,-0.53,8.27,8.27,8.26
35.97,9.05,0.80,9.05,0.80,-0.79,-0.53,-0.54,8.26,8.26,8.26
36.33,9.06,0.81,9.06,0.81,-0.81,-0.53,-0.55,8.26,8.26,8.25
36.70,9.06,0.81,9.07,0.82,-0.82,-0.54,-0.56,8.25,8.25,8.25
37.06,9.07,0.83,9.07,0.83,-0.83,-0.55,-0.57,8.24,8.24,8.25
37.43,9.07,0.84,9.08,0.84,-0.84,-0.56,-0.58,8.23,8.23,8.23
37.81,9.08,0.86,9.08,0.86,-0.85,-0.57,-0.59,8.23,8.23,8.23
38.19,9.08,0.86,9.08,0.86,-0.87,-0.58,-0.60,8.22,8.22,8.22
38.57,9.08,0.88,9.09,0.87,-0.88,-0.58,-0.61,8.21,8.21,8.21
38.95,9.08,0.88,9.08,0.88,-0.89,-0.59,-0.62,8.20,8.20,8.20
39.34,9.08,0.90,9.09,0.90,-0.89,-0.60,-0.64,8.19,8.19,8.19
39.74,9.08,0.90,9.08,0.90,-0.90,-0.61,-0.65,8.18,8.18,8.18
40.14,9.08,0.92,9.08,0.91,-0.91,-0.62,-0.66,8.18,8.17,8.17
40.54,9.07,0.91,9.08,0.92,-0.91,-0.63,-0.67,8.16,8.16,8.16
40.94,9.07,0.92,9.07,0.92,-0.92,-0.64,-0.69,8.16,8.16,8.16
41.35,9.07,0.92,9.07,0.92,-0.92,-0.65,-0.70,8.15,8.15,8.15
41.76,9.06,0.92,9.07,0.93,-0.93,-0.66,-0.72,8.14,8.14,8.14
42.18,9.06,0.93,9.07,0.93,-0.93,-0.67,-0.73,8.14,8.14,8.14
42.60,9.06,0.93,9.06,0.93,-0.93,-0.68,-0.75,8.13,8.13,8.13
43.03,9.06,0.93,9.06,0.93,-0.94,-0.69,-0.76,8.13,8.13,8.13
43.46,9.06,0.94,9.06,0.94,-0.94,-0.70,-0.78,8.12,8.12,8.13
43.90,9.06,0.95,9.06,0.95,-0.95,-0.71,-0.80,8.12,8.12,8.12
44.33,9.06,0.95,9.06,0.95,-0.95,-0.72,-0.82,8.11,8.11,8.11
44.78,9.06,0.96,9.06,0.96,-0.96,-0.73,-0.84,8.10,8.10,8.10
45.23,9.06,0.97,9.06,0.97,-0.97,-0.75,-0.86,8.10,8.10,8.09
45.68,9.06,0.98,9.06,0.98,-0.98,-0.76,-0.88,8.09,8.09,8.09
46.13,9.06,0.99,9.06,0.99,-0.99,-0.77,-0.90,8.08,8.08,8.08
46.60,9.06,1.00,9.06,1.00,-1.00,-0.78,-0.92,8.06,8.06,8.07
47.06,9.06,1.01,9.06,1.01,-1.01,-0.80,-0.94,8.05,8.05,8.06
47.53,9.06,1.03,9.06,1.02,-1.02,-0.81,-0.96,8.04,8.04,8.04
48.01,9.06,1.04,9.06,1.04,-1.03,-0.82,-0.98,8.03,8.03,8.03
48.49,9.06,1.05,9.06,1.05,-1.05,-0.83,-1.01,8.02,8.02,8.02
48.97,9.06,1.06,9.06,1.06,-1.06,-0.85,-1.03,8.01,8.01,8.01
49.46,9.06,1.07,9.06,1.07,-1.07,-0.86,-1.06,7.99,7.99,7.99
49.96,9.06,1.08,9.06,1.08,-1.08,-0.88,-1.08,7.98,7.98,7.98
50.46,9.06,1.09,9.06,1.09,-1.09,-0.89,-1.11,7.97,7.97,7.97
50.96,9.06,1.11,9.06,1.10,-1.10,-0.90,-1.13,7.96,7.96,7.96
51.47,9.06,1.11,9.06,1.11,-1.11,-0.92,-1.16,7.95,7.95,7.96
51.99,9.06,1.12,9.06,1.12,-1.13,-0.93,-1.18,7.94,7.94,7.94
52.51,9.06,1.14,9.06,1.14,-1.14,-0.95,-1.21,7.93,7.93,7.93
53.03,9.06,1.15,9.06,1.15,-1.15,-0.96,-1.23,7.92,7.92,7.91
53.56,9.06,1.17,9.06,1.16,-1.16,-0.98,-1.26,7.90,7.90,7.90
54.10,9.06,1.17,9.06,1.18,-1.17,-1.00,-1.29,7.89,7.89,7.89
54.64,9.06,1.19,9.06,1.19,-1.19,-1.01,-1.31,7.88,7.88,7.88
55.18,9.06,1.20,9.06,1.20,-1.20,-1.03,-1.34,7.86,7.86,7.86
55.74,9.06,1.22,9.07,1.22,-1.22,-1.05,-1.36,7.84,7.84,7.84
56.29,9.06,1.23,9.07,1.24,-1.24,-1.06,-1.39,7.83,7.83,7.84
56.86,9.07,1.26,9.07,1.25,-1.26,-1.08,-1.41,7.82,7.82,7.82
57.42,9.07,1.28,9.08,1.27,-1.28,-1.10,-1.44,7.80,7.80,7.80
58.00,9.08,1.29,9.08,1.30,-1.29,-1.12,-1.46,7.79,7.79,7.79
58.58,9.08,1.31,9.09,1.32,-1.31,-1.13,-1.48,7.77,7.77,7.77
59.16,9.08,1.34,9.09,1.33,-1.33,-1.15,-1.50,7.76,7.76,7.75
59.76,9.08,1.35,9.08,1.35,-1.35,-1.17,-1.52,7.74,7.74,7.74
60.35,9.07,1.36,9.08,1.36,-1.36,-1.19,-1.54,7.71,7.72,7.72
60.96,9.06,1.37,9.07,1.37,-1.37,-1.21,-1.56,7.69,7.69,7.69
61.57,9.05,1.38,9.05,1.38,-1.38,-1.23,-1.58,7.67,7.67,7.67
62.18,9.04,1.40,9.04,1.40,-1.40,-1.25,-1.60,7.65,7.65,7.65
62.80,9.02,1.40,9.03,1.41,-1.41,-1.27,-1.61,7.62,7.62,7.62
63.43,9.01,1.42,9.01,1.41,-1.41,-1.29,-1.63,7.60,7.60,7.60
64.07,8.99,1.42,8.99,1.42,-1.42,-1.31,-1.64,7.57,7.57,7.57
64.71,8.97,1.43,8.98,1.43,-1.43,-1.34,-1.66,7.55,7.55,7.54
65.35,8.95,1.44,8.95,1.44,-1.44,-1.36,-1.67,7.52,7.52,7.52
66.01,8.93,1.45,8.93,1.44,-1.44,-1.38,-1.68,7.49,7.49,7.49
66.67,8.90,1.44,8.91,1.45,-1.45,-1.40,-1.69,7.46,7.46,7.46
67.33,8.88,1.45,8.88,1.45,-1.45,-1.43,-1.70,7.43,7.43,7.43
68.01,8.86,1.46,8.86,1.46,-1.46,-1.45,-1.71,7.40,7.40,7.40
68.69,8.83,1.47,8.84,1.47,-1.47,-1.47,-1.72,7.37,7.37,7.37
69.37,8.81,1.48,8.82,1.48,-1.48,-1.50,-1.73,7.34,7.34,7.34
70.07,8.79,1.49,8.79,1.49,-1.49,-1.52,-1.74,7.31,7.31,7.30
70.77,8.77,1.50,8.77,1.50,-1.50,-1.55,-1.75,7.27,7.27,7.27
71.48,8.75,1.51,8.76,1.51,-1.52,-1.57,-1.76,7.24,7.24,7.25
72.19,8.74,1.53,8.74,1.53,-1.54,-1.60,-1.77,7.20,7.20,7.21
72.91,8.73,1.56,8.74,1.56,-1.57,-1.62,-1.77,7.17,7.17,7.17
73.64,8.73,1.60,8.73,1.59,-1.60,-1.65,-1.78,7.14,7.14,7.14
74.38,8.73,1.62,8.73,1.63,-1.63,-1.67,-1.80,7.11,7.11,7.11
75.12,8.73,1.66,8.73,1.66,-1.66,-1.70,-1.81,7.07,7.07,7.07
75.87,8.73,1.69,8.74,1.70,-1.70,-1.73,-1.82,7.04,7.04,7.04
76.63,8.73,1.73,8.74,1.73,-1.73,-1.76,-1.83,7.00,7.01,7.00
77.40,8.73,1.77,8.73,1.77,-1.76,-1.78,-1.85,6.97,6.97,6.96
78.17,8.72,1.80,8.72,1.80,-1.79,-1.81,-1.86,6.94,6.93,6.93
78.95,8.70,1.82,8.71,1.82,-1.81,-1.84,-1.88,6.89,6.89,6.89
79.74,8.68,1.84,8.68,1.84,-1.84,-1.87,-1.89,6.85,6.85,6.84
80.54,8.65,1.85,8.66,1.85,-1.85,-1.90,-1.91,6.80,6.80,6.81
81.35,8.63,1.87,8.63,1.87,-1.87,-1.93,-1.93,6.76,6.76,6.76
82.16,8.60,1.89,8.60,1.89,-1.89,-1.96,-1.96,6.72,6.72,6.72
82.98,8.57,1.90,8.57,1.90,-1.90,-1.99,-1.98,6.67,6.67,6.67
83.81,8.54,1.92,8.55,1.92,-1.92,-2.02,-2.00,6.63,6.63,6.63
84.65,8.51,1.93,8.52,1.93,-1.93,-2.05,-2.03,6.58,6.58,6.59
85.50,8.49,1.96,8.49,1.95,-1.95,-2.08,-2.06,6.54,6.54,6.54
86.35,8.46,1.97,8.47,1.98,-1.97,-2.11,-2.09,6.49,6.49,6.49
87.22,8.44,2.00,8.44,2.00,-2.00,-2.14,-2.12,6.44,6.44,6.44
88.09,8.42,2.03,8.42,2.03,-2.04,-2.17,-2.15,6.39,6.39,6.39
88.97,8.40,2.07,8.41,2.07,-2.08,-2.20,-2.19,6.33,6.33,6.34
89.86,8.39,2.11,8.40,2.11,-2.12,-2.23,-2.22,6.27,6.27,6.29
90.76,8.39,2.16,8.40,2.16,-2.18,-2.27,-2.26,6.22,6.22,6.24
91.66,8.40,2.22,8.41,2.23,-2.23,-2.30,-2.30,6.17,6.18,6.18
92.58,8.42,2.30,8.42,2.29,-2.29,-2.33,-2.34,6.14,6.13,6.13
93.51,8.43,2.36,8.43,2.36,-2.34,-2.36,-2.38,6.09,6.09,6.08
94.44,8.43,2.41,8.43,2.41,-2.39,-2.40,-2.43,6.04,6.04,6.02
95.39,8.42,2.46,8.42,2.46,-2.44,-2.43,-2.47,5.98,5.98,5.97
96.34,8.40,2.49,8.40,2.49,-2.48,-2.46,-2.52,5.92,5.92,5.91
97.30,8.37,2.51,8.38,2.52,-2.51,-2.49,-2.57,5.86,5.87,5.87
98.28,8.35,2.54,8.35,2.54,-2.54,-2.53,-2.62,5.81,5.81,5.81
99.26,8.32,2.57,8.32,2.56,-2.57,-2.56,-2.67,5.76,5.75,5.76
100.25,8.28,2.58,8.29,2.59,-2.59,-2.59,-2.72,5.69,5.70,5.70
101.25,8.25,2.61,8.25,2.61,-2.62,-2.63,-2.77,5.64,5.64,5.64
102.27,8.22,2.64,8.23,2.64,-2.64,-2.66,-2.82,5.58,5.58,5.59
103.29,8.20,2.67,8.20,2.67,-2.67,-2.69,-2.88,5.53,5.53,5.53
104.32,8.18,2.70,8.18,2.70,-2.70,-2.72,-2.93,5.48,5.48,5.49
105.37,8.16,2.74,8.17,2.74,-2.73,-2.76,-2.98,5.43,5.43,5.43
106.42,8.14,2.77,8.15,2.77,-2.76,-2.79,-3.03,5.38,5.38,5.37
107.48,8.12,2.80,8.12,2.80,-2.79,-2.82,-3.09,5.33,5.33,5.33
108.56,8.09,2.82,8.10,2.83,-2.83,-2.85,-3.14,5.27,5.27,5.27
109.64,8.06,2.85,8.07,2.85,-2.85,-2.88,-3.19,5.21,5.21,5.21
110.74,8.04,2.89,8.04,2.88,-2.88,-2.92,-3.24,5.16,5.16,5.16
111.85,8.01,2.91,8.02,2.91,-2.91,-2.95,-3.29,5.10,5.11,5.10
112.97,7.99,2.94,7.99,2.94,-2.94,-2.98,-3.33,5.06,5.05,5.06
114.10,7.96,2.96,7.96,2.96,-2.97,-3.01,-3.37,5.00,5.00,5.00
115.24,7.93,2.99,7.94,2.99,-2.99,-3.04,-3.41,4.94,4.95,4.95
116.39,7.91,3.02,7.91,3.02,-3.02,-3.06,-3.45,4.90,4.90,4.89
117.55,7.88,3.04,7.89,3.04,-3.04,-3.09,-3.48,4.85,4.85,4.85
118.73,7.86,3.07,7.86,3.06,-3.06,-3.12,-3.52,4.80,4.80,4.80
119.92,7.82,3.08,7.82,3.08,-3.08,-3.15,-3.54,4.74,4.74,4.74
121.12,7.78,3.10,7.79,3.10,-3.10,-3.17,-3.56,4.69,4.69,4.69
122.33,7.76,3.12,7.76,3.12,-3.12,-3.20,-3.58,4.65,4.64,4.65
123.55,7.73,3.14,7.73,3.13,-3.13,-3.22,-3.60,4.60,4.60,4.59
124.79,7.69,3.14,7.70,3.15,-3.15,-3.25,-3.61,4.54,4.55,4.55
126.03,7.66,3.16,7.67,3.16,-3.17,-3.27,-3.61,4.50,4.50,4.50
127.29,7.64,3.18,7.64,3.18,-3.19,-3.29,-3.61,4.46,4.46,4.46
128.57,7.62,3.21,7.62,3.20,-3.20,-3.31,-3.61,4.42,4.41,4.41
129.85,7.58,3.22,7.59,3.22,-3.22,-3.33,-3.60,4.36,4.37,4.37
131.15,7.55,3.24,7.56,3.24,-3.24,-3.35,-3.60,4.31,4.32,4.32
132.46,7.54,3.26,7.54,3.26,-3.26,-3.37,-3.58,4.28,4.28,4.28
133.79,7.51,3.28,7.51,3.28,-3.28,-3.39,-3.56,4.24,4.24,4.23
135.12,7.48,3.30,7.49,3.30,-3.29,-3.40,-3.54,4.19,4.19,4.19
136.48,7.45,3.31,7.45,3.31,-3.31,-3.42,-3.52,4.15,4.14,4.14
137.84,7.41,3.32,7.42,3.33,-3.32,-3.43,-3.49,4.09,4.10,4.10
139.22,7.39,3.34,7.39,3.33,-3.34,-3.44,-3.46,4.06,4.05,4.05
140.61,7.36,3.35,7.36,3.35,-3.35,-3.45,-3.43,4.01,4.01,4.01
142.02,7.32,3.35,7.34,3.36,-3.37,-3.46,-3.40,3.96,3.97,3.98
143.44,7.31,3.38,7.31,3.37,-3.38,-3.47,-3.36,3.94,3.93,3.94
144.87,7.29,3.40,7.29,3.39,-3.39,-3.48,-3.33,3.91,3.91,3.90
146.32,7.27,3.41,7.27,3.41,-3.39,-3.48,-3.29,3.88,3.88,3.87
147.78,7.23,3.41,7.24,3.41,-3.40,-3.49,-3.26,3.84,3.84,3.83
149.26,7.19,3.40,7.20,3.40,-3.39,-3.49,-3.22,3.80,3.80,3.79
150.75,7.15,3.39,7.15,3.39,-3.39,-3.49,-3.19,3.77,3.76,3.76
152.26,7.11,3.39,7.11,3.38,-3.38,-3.49,-3.15,3.73,3.73,3.73
153.78,7.06,3.37,7.07,3.37,-3.38,-3.49,-3.12,3.68,3.68,3.69
155.32,7.02,3.36,7.03,3.36,-3.38,-3.48,-3.08,3.65,3.65,3.67
156.88,6.98,3.35,6.99,3.36,-3.37,-3.48,-3.05,3.61,3.62,3.63
158.44,6.97,3.37,6.97,3.37,-3.37,-3.47,-3.02,3.60,3.59,3.60
160.03,6.94,3.38,6.95,3.38,-3.37,-3.46,-2.99,3.57,3.58,3.57
161.63,6.92,3.39,6.93,3.39,-3.37,-3.45,-2.96,3.56,3.56,3.54
163.24,6.90,3.39,6.89,3.38,-3.36,-3.44,-2.93,3.54,3.53,3.52
164.88,6.84,3.36,6.85,3.37,-3.36,-3.43,-2.91,3.49,3.50,3.49
166.53,6.80,3.35,6.81,3.35,-3.35,-3.42,-2.89,3.46,3.46,3.46
168.19,6.76,3.34,6.76,3.33,-3.34,-3.40,-2.87,3.43,3.42,3.43
169.87,6.71,3.30,6.72,3.31,-3.33,-3.39,-2.85,3.39,3.39,3.41
171.57,6.68,3.30,6.69,3.30,-3.32,-3.37,-2.83,3.37,3.37,3.38
173.29,6.66,3.31,6.66,3.30,-3.30,-3.35,-2.82,3.36,3.35,3.36
175.02,6.63,3.30,6.64,3.30,-3.29,-3.33,-2.80,3.34,3.34,3.33
176.77,6.60,3.29,6.61,3.29,-3.28,-3.31,-2.79,3.32,3.33,3.32
178.54,6.57,3.28,6.57,3.28,-3.27,-3.29,-2.79,3.31,3.31,3.29
180.32,6.53,3.26,6.53,3.26,-3.25,-3.27,-2.78,3.28,3.28,3.27
182.13,6.49,3.25,6.48,3.24,-3.23,-3.24,-2.78,3.26,3.25,3.25
183.95,6.42,3.20,6.43,3.21,-3.22,-3.22,-2.77,3.21,3.22,3.23
185.79,6.38,3.18,6.39,3.18,-3.20,-3.19,-2.78,3.18,3.19,3.21
187.65,6.35,3.17,6.35,3.17,-3.18,-3.16,-2.78,3.17,3.17,3.18
189.52,6.32,3.16,6.33,3.16,-3.17,-3.14,-2.78,3.16,3.16,3.16
191.42,6.30,3.16,6.30,3.15,-3.15,-3.11,-2.79,3.16,3.15,3.14
193.33,6.26,3.14,6.27,3.14,-3.13,-3.08,-2.80,3.13,3.14,3.13
195.27,6.23,3.13,6.23,3.13,-3.11,-3.05,-2.81,3.12,3.12,3.11
197.22,6.19,3.10,6.19,3.10,-3.09,-3.01,-2.82,3.11,3.10,3.09
199.19,6.14,3.07,6.15,3.07,-3.07,-2.98,-2.83,3.08,3.08,3.07
201.18,6.09,3.03,6.10,3.03,-3.04,-2.95,-2.85,3.05,3.06,3.07
203.19,6.05,3.00,6.05,3.00,-3.02,-2.92,-2.86,3.04,3.04,3.05
205.23,6.01,2.97,6.02,2.98,-2.99,-2.88,-2.88,3.02,3.03,3.04
207.28,5.98,2.96,5.99,2.96,-2.96,-2.85,-2.90,3.02,3.03,3.03
209.35,5.96,2.95,5.96,2.94,-2.94,-2.81,-2.91,3.03,3.03,3.01
211.44,5.93,2.92,5.93,2.93,-2.91,-2.78,-2.93,3.03,3.02,3.01
213.56,5.89,2.90,5.89,2.90,-2.88,-2.74,-2.95,3.01,3.01,3.00
215.69,5.84,2.86,5.84,2.86,-2.86,-2.70,-2.97,2.99,2.99,2.98
217.85,5.78,2.81,5.80,2.82,-2.83,-2.67,-2.98,2.96,2.97,2.97
220.03,5.75,2.79,5.75,2.79,-2.80,-2.63,-3.00,2.95,2.95,2.97
222.23,5.72,2.77,5.72,2.76,-2.77,-2.59,-3.01,2.95,2.94,2.96
224.45,5.68,2.74,5.69,2.74,-2.75,-2.55,-3.03,2.94,2.94,2.95
226.70,5.65,2.72,5.66,2.72,-2.72,-2.52,-3.04,2.94,2.94,2.93
228.96,5.62,2.69,5.63,2.70,-2.69,-2.48,-3.05,2.94,2.94,2.93
231.25,5.60,2.68,5.59,2.67,-2.66,-2.44,-3.05,2.95,2.93,2.92
233.57,5.55,2.64,5.55,2.64,-2.63,-2.40,-3.06,2.93,2.93,2.91
235.90,5.49,2.58,5.51,2.60,-2.59,-2.36,-3.06,2.90,2.92,2.91
238.26,5.46,2.56,5.46,2.55,-2.55,-2.32,-3.06,2.91,2.90,2.90
240.64,5.41,2.51,5.42,2.51,-2.52,-2.29,-3.05,2.90,2.90,2.90
243.05,5.37,2.47,5.38,2.47,-2.48,-2.25,-3.04,2.89,2.89,2.91
245.48,5.34,2.44,5.34,2.44,-2.45,-2.21,-3.03,2.89,2.89,2.91
247.93,5.31,2.41,5.32,2.41,-2.42,-2.17,-3.02,2.90,2.90,2.90
250.41,5.29,2.39,5.29,2.39,-2.38,-2.13,-2.99,2.91,2.91,2.90
252.92,5.26,2.36,5.27,2.37,-2.35,-2.09,-2.97,2.91,2.92,2.90
255.45,5.24,2.34,5.24,2.33,-2.32,-2.05,-2.94,2.92,2.92,2.91
258.00,5.20,2.30,5.20,2.30,-2.29,-2.02,-2.91,2.91,2.91,2.90
260.58,5.15,2.25,5.16,2.26,-2.26,-1.98,-2.87,2.89,2.90,2.90
263.19,5.11,2.22,5.11,2.22,-2.23,-1.94,-2.84,2.88,2.88,2.90
265.82,5.07,2.18,5.08,2.19,-2.20,-1.90,-2.79,2.87,2.88,2.89
268.48,5.05,2.16,5.06,2.17,-2.17,-1.86,-2.75,2.88,2.88,2.89
271.16,5.04,2.16,5.03,2.15,-2.14,-1.83,-2.70,2.90,2.89,2.89
273.87,5.00,2.12,5.01,2.12,-2.11,-1.79,-2.64,2.90,2.90,2.88
276.61,4.97,2.09,4.97,2.09,-2.07,-1.75,-2.59,2.90,2.90,2.89
279.38,4.93,2.05,4.93,2.05,-2.04,-1.71,-2.53,2.90,2.90,2.88
282.17,4.88,2.00,4.89,2.00,-2.00,-1.68,-2.47,2.88,2.89,2.89
284.99,4.84,1.96,4.83,1.95,-1.96,-1.64,-2.41,2.88,2.87,2.88
287.84,4.77,1.90,4.78,1.91,-1.92,-1.60,-2.35,2.85,2.86,2.88
290.72,4.73,1.86,4.74,1.87,-1.88,-1.57,-2.28,2.85,2.86,2.87
293.63,4.70,1.84,4.70,1.83,-1.84,-1.53,-2.21,2.86,2.86,2.87
296.57,4.67,1.81,4.67,1.80,-1.80,-1.49,-2.15,2.87,2.87,2.86
299.53,4.63,1.76,4.64,1.78,-1.76,-1.46,-2.08,2.87,2.88,2.87
302.53,4.60,1.74,4.61,1.74,-1.73,-1.42,-2.01,2.88,2.88,2.87
305.55,4.57,1.71,4.56,1.70,-1.69,-1.39,-1.94,2.88,2.87,2.86
308.61,4.51,1.65,4.52,1.65,-1.65,-1.35,-1.87,2.86,2.86,2.87
311.69,4.46,1.60,4.47,1.61,-1.62,-1.32,-1.81,2.85,2.86,2.86
314.81,4.43,1.56,4.43,1.56,-1.58,-1.28,-1.74,2.86,2.86,2.87
317.96,4.40,1.54,4.40,1.53,-1.54,-1.25,-1.67,2.87,2.86,2.87
321.14,4.36,1.49,4.37,1.50,-1.49,-1.21,-1.60,2.87,2.87,2.87
324.35,4.33,1.46,4.33,1.46,-1.45,-1.18,-1.53,2.88,2.88,2.87
327.59,4.29,1.43,4.29,1.42,-1.41,-1.14,-1.47,2.89,2.89,2.87
330.87,4.25,1.38,4.25,1.38,-1.37,-1.11,-1.40,2.89,2.89,2.88
334.18,4.20,1.32,4.20,1.32,-1.32,-1.08,-1.33,2.88,2.88,2.88
337.52,4.15,1.27,4.15,1.27,-1.28,-1.04,-1.27,2.87,2.87,2.88
340.90,4.10,1.22,4.11,1.22,-1.24,-1.01,-1.20,2.86,2.87,2.89
344.30,4.07,1.19,4.07,1.19,-1.20,-0.98,-1.14,2.87,2.87,2.89
347.75,4.04,1.16,4.04,1.16,-1.16,-0.94,-1.08,2.88,2.88,2.88
351.23,4.01,1.13,4.02,1.13,-1.12,-0.91,-1.01,2.89,2.89,2.88
354.74,3.98,1.10,3.98,1.10,-1.09,-0.88,-0.95,2.90,2.90,2.89
358.28,3.94,1.06,3.94,1.06,-1.05,-0.85,-0.89,2.89,2.89,2.89
361.87,3.90,1.02,3.90,1.02,-1.02,-0.81,-0.83,2.89,2.88,2.88
365.49,3.85,0.97,3.86,0.98,-0.98,-0.78,-0.77,2.87,2.88,2.88
369.14,3.81,0.93,3.82,0.94,-0.94,-0.75,-0.72,2.87,2.88,2.88
372.83,3.78,0.91,3.78,0.90,-0.90,-0.72,-0.66,2.88,2.88,2.88
376.56,3.74,0.86,3.75,0.86,-0.86,-0.68,-0.60,2.88,2.88,2.89
380.33,3.70,0.82,3.71,0.83,-0.82,-0.65,-0.55,2.89,2.89,2.89
384.13,3.67,0.79,3.67,0.78,-0.78,-0.62,-0.49,2.90,2.89,2.88
387.97,3.62,0.74,3.62,0.74,-0.73,-0.59,-0.44,2.89,2.89,2.88
391.85,3.57,0.68,3.58,0.69,-0.68,-0.55,-0.38,2.89,2.89,2.89
395.77,3.52,0.64,3.52,0.63,-0.64,-0.52,-0.33,2.89,2.89,2.89
399.73,3.47,0.58,3.48,0.58,-0.59,-0.49,-0.28,2.89,2.89,2.90
403.72,3.43,0.54,3.43,0.54,-0.54,-0.46,-0.22,2.89,2.89,2.90
407.76,3.39,0.49,3.39,0.49,-0.49,-0.43,-0.17,2.90,2.90,2.91
411.84,3.35,0.45,3.36,0.45,-0.45,-0.39,-0.12,2.91,2.91,2.90
415.96,3.31,0.40,3.31,0.40,-0.40,-0.36,-0.07,2.91,2.91,2.91
420.12,3.27,0.36,3.27,0.36,-0.36,-0.33,-0.02,2.92,2.91,2.91
424.32,3.22,0.31,3.23,0.31,-0.31,-0.30,0.03,2.91,2.91,2.91
428.56,3.18,0.26,3.19,0.27,-0.27,-0.26,0.07,2.91,2.91,2.92
432.85,3.14,0.23,3.14,0.23,-0.23,-0.23,0.12,2.91,2.91,2.92
437.18,3.10,0.19,3.10,0.19,-0.19,-0.20,0.17,2.92,2.92,2.92
441.55,3.06,0.15,3.07,0.15,-0.15,-0.16,0.21,2.92,2.92,2.92
445.96,3.02,0.11,3.03,0.11,-0.10,-0.13,0.26,2.92,2.92,2.92
450.42,2.98,0.07,2.98,0.07,-0.06,-0.09,0.30,2.92,2.92,2.91
454.93,2.93,0.02,2.93,0.02,-0.02,-0.06,0.34,2.92,2.92,2.91
459.48,2.88,-0.03,2.89,-0.03,0.03,-0.03,0.38,2.91,2.91,2.91
464.07,2.83,-0.08,2.84,-0.07,0.07,0.01,0.43,2.91,2.91,2.91
468.71,2.79,-0.12,2.79,-0.12,0.12,0.05,0.46,2.91,2.91,2.91
473.40,2.75,-0.16,2.75,-0.16,0.16,0.08,0.50,2.92,2.91,2.91
478.13,2.70,-0.22,2.71,-0.21,0.21,0.12,0.54,2.91,2.92,2.92
482.91,2.66,-0.25,2.67,-0.25,0.25,0.15,0.58,2.92,2.92,2.92
487.74,2.63,-0.28,2.63,-0.29,0.30,0.19,0.61,2.93,2.93,2.92
492.62,2.58,-0.33,2.58,-0.34,0.34,0.23,0.65,2.93,2.93,2.92
497.55,2.53,-0.39,2.54,-0.39,0.39,0.27,0.68,2.92,2.92,2.93
502.52,2.48,-0.44,2.49,-0.44,0.43,0.31,0.71,2.91,2.92,2.93
507.55,2.44,-0.48,2.45,-0.48,0.47,0.35,0.75,2.91,2.92,2.93
512.62,2.41,-0.51,2.41,-0.52,0.51,0.39,0.78,2.92,2.92,2.93
517.75,2.38,-0.55,2.39,-0.55,0.55,0.43,0.81,2.94,2.94,2.94
522.93,2.35,-0.58,2.36,-0.58,0.59,0.47,0.84,2.95,2.95,2.93
528.16,2.32,-0.61,2.32,-0.62,0.63,0.51,0.86,2.95,2.95,2.93
533.44,2.27,-0.66,2.27,-0.66,0.67,0.55,0.89,2.94,2.94,2.93
538.77,2.22,-0.72,2.23,-0.71,0.70,0.60,0.92,2.93,2.93,2.94
544.16,2.18,-0.76,2.19,-0.76,0.74,0.64,0.94,2.92,2.93,2.94
549.60,2.15,-0.79,2.15,-0.79,0.78,0.69,0.97,2.93,2.93,2.94
