frequency,raw,error,smoothed,error_smoothed,equalization,parametric_eq,fixed_band_eq,equalized_raw,equalized_smoothed,target
20.00,6.76,3.54,6.76,3.54,-3.51,-3.68,-2.03,3.24,3.24,3.22
20.20,6.80,3.59,6.80,3.59,-3.59,-3.71,-2.09,3.21,3.21,3.21
20.40,6.84,3.65,6.83,3.65,-3.65,-3.74,-2.15,3.18,3.18,3.19
20.61,6.88,3.70,6.88,3.70,-3.72,-3.77,-2.21,3.16,3.16,3.18
20.81,6.92,3.76,6.92,3.76,-3.78,-3.80,-2.27,3.14,3.14,3.16
21.02,6.96,3.81,6.96,3.81,-3.83,-3.83,-2.34,3.13,3.13,3.15
21.23,7.01,3.87,7.00,3.87,-3.88,-3.86,-2.41,3.13,3.12,3.14
21.44,7.05,3.92,7.05,3.93,-3.93,-3.89,-2.47,3.12,3.12,3.13
21.66,7.09,3.98,7.09,3.98,-3.97,-3.92,-2.55,3.12,3.13,3.11
21.87,7.14,4.03,7.13,4.03,-4.00,-3.95,-2.62,3.13,3.12,3.10
22.09,7.16,4.06,7.15,4.06,-4.03,-3.98,-2.69,3.12,3.12,3.09
22.31,7.16,4.07,7.16,4.08,-4.06,-4.01,-2.77,3.09,3.10,3.08
22.54,7.16,4.08,7.15,4.08,-4.09,-4.04,-2.85,3.07,3.06,3.07
22.76,7.16,4.09,7.15,4.09,-4.12,-4.07,-2.93,3.04,3.04,3.06
22.99,7.16,4.09,7.17,4.11,-4.15,-4.10,-3.01,3.01,3.02,3.06
23.22,7.21,4.15,7.20,4.15,-4.17,-4.13,-3.10,3.03,3.03,3.05
23.45,7.26,4.21,7.25,4.20,-4.20,-4.16,-3.18,3.05,3.05,3.05
23.69,7.31,4.25,7.31,4.26,-4.23,-4.18,-3.27,3.08,3.08,3.05
23.92,7.35,4.30,7.34,4.29,-4.26,-4.21,-3.36,3.09,3.09,3.05
24.16,7.37,4.32,7.36,4.31,-4.28,-4.24,-3.45,3.08,3.08,3.05
24.40,7.37,4.32,7.37,4.32,-4.31,-4.26,-3.55,3.06,3.06,3.05
24.65,7.37,4.32,7.36,4.32,-4.34,-4.29,-3.64,3.03,3.03,3.05
24.89,7.37,4.32,7.37,4.33,-4.36,-4.32,-3.74,3.00,3.01,3.05
25.14,7.40,4.35,7.40,4.36,-4.39,-4.34,-3.83,3.01,3.01,3.05
25.39,7.45,4.40,7.45,4.40,-4.42,-4.37,-3.93,3.03,3.03,3.05
25.65,7.50,4.46,7.50,4.46,-4.45,-4.39,-4.03,3.05,3.05,3.03
25.91,7.55,4.51,7.54,4.51,-4.48,-4.41,-4.13,3.07,3.06,3.03
26.16,7.57,4.54,7.56,4.54,-4.51,-4.44,-4.22,3.06,3.05,3.02
26.43,7.57,4.54,7.57,4.55,-4.54,-4.46,-4.32,3.03,3.03,3.02
26.69,7.57,4.56,7.57,4.56,-4.56,-4.48,-4.42,3.01,3.01,3.01
26.96,7.57,4.57,7.57,4.56,-4.57,-4.51,-4.51,3.00,3.00,3.00
27.23,7.57,4.57,7.57,4.57,-4.58,-4.53,-4.61,2.99,2.99,3.00
27.50,7.57,4.58,7.57,4.58,-4.58,-4.55,-4.70,2.99,2.98,2.99
27.77,7.57,4.59,7.57,4.59,-4.59,-4.57,-4.79,2.98,2.98,2.98
28.05,7.57,4.60,7.57,4.60,-4.60,-4.59,-4.87,2.97,2.97,2.97
28.33,7.58,4.61,7.57,4.61,-4.61,-4.61,-4.96,2.96,2.96,2.96
28.62,7.59,4.62,7.58,4.62,-4.64,-4.63,-5.03,2.95,2.95,2.96
28.90,7.60,4.64,7.60,4.64,-4.66,-4.65,-5.11,2.93,2.94,2.95
29.19,7.63,4.67,7.63,4.67,-4.69,-4.67,-5.18,2.93,2.94,2.96
29.48,7.68,4.72,7.68,4.72,-4.72,-4.69,-5.24,2.95,2.96,2.96
29.78,7.73,4.77,7.72,4.77,-4.75,-4.70,-5.30,2.98,2.97,2.96
30.08,7.77,4.81,7.75,4.80,-4.77,-4.72,-5.35,2.99,2.98,2.96
30.38,7.77,4.81,7.77,4.81,-4.79,-4.74,-5.40,2.97,2.97,2.95
30.68,7.77,4.81,7.77,4.82,-4.81,-4.75,-5.43,2.96,2.96,2.95
30.99,7.77,4.82,7.77,4.82,-4.82,-4.77,-5.47,2.94,2.94,2.95
31.30,7.77,4.82,7.77,4.82,-4.83,-4.78,-5.49,2.94,2.94,2.95
31.61,7.77,4.82,7.77,4.82,-4.83,-4.80,-5.51,2.94,2.94,2.95
31.93,7.77,4.82,7.77,4.83,-4.83,-4.81,-5.52,2.94,2.94,2.94
32.24,7.77,4.83,7.77,4.83,-4.83,-4.82,-5.52,2.94,2.94,2.93
32.57,7.77,4.84,7.77,4.84,-4.83,-4.84,-5.52,2.93,2.93,2.93
32.89,7.77,4.84,7.77,4.84,-4.84,-4.85,-5.51,2.93,2.93,2.93
33.22,7.77,4.84,7.77,4.84,-4.84,-4.86,-5.50,2.92,2.92,2.93
33.55,7.77,4.84,7.77,4.85,-4.85,-4.87,-5.48,2.92,2.92,2.92
33.89,7.77,4.86,7.77,4.85,-4.85,-4.88,-5.46,2.91,2.91,2.91
34.23,7.77,4.86,7.77,4.86,-4.86,-4.89,-5.43,2.91,2.91,2.91
34.57,7.77,4.86,7.77,4.86,-4.86,-4.90,-5.39,2.91,2.91,2.90
34.92,7.77,4.86,7.77,4.86,-4.86,-4.91,-5.36,2.90,2.90,2.90
35.27,7.77,4.87,7.77,4.87,-4.87,-4.92,-5.32,2.90,2.90,2.90
35.62,7.77,4.87,7.77,4.87,-4.87,-4.93,-5.28,2.89,2.89,2.90
35.97,7.77,4.88,7.77,4.88,-4.88,-4.94,-5.23,2.89,2.89,2.88
36.33,7.77,4.89,7.77,4.89,-4.88,-4.95,-5.19,2.88,2.88,2.88
36.70,7.77,4.89,7.77,4.89,-4.89,-4.96,-5.14,2.88,2.88,2.88
37.06,7.77,4.89,7.77,4.90,-4.90,-4.96,-5.10,2.87,2.87,2.87
37.43,7.77,4.91,7.77,4.90,-4.91,-4.97,-5.05,2.86,2.86,2.86
37.81,7.77,4.91,7.77,4.91,-4.92,-4.97,-5.01,2.85,2.85,2.85
38.19,7.77,4.93,7.77,4.93,-4.93,-4.98,-4.96,2.84,2.84,2.84
38.57,7.77,4.94,7.77,4.94,-4.94,-4.99,-4.92,2.83,2.83,2.83
38.95,7.77,4.96,7.77,4.95,-4.95,-4.99,-4.88,2.81,2.81,2.81
39.34,7.77,4.96,7.77,4.96,-4.96,-5.00,-4.84,2.80,2.80,2.81
39.74,7.77,4.97,7.77,4.98,-4.98,-5.00,-4.80,2.79,2.79,2.79
40.14,7.77,4.99,7.77,4.99,-4.99,-5.00,-4.76,2.78,2.78,2.78
40.54,7.77,5.00,7.77,5.00,-5.00,-5.01,-4.73,2.77,2.77,2.76
40.94,7.77,5.01,7.77,5.01,-5.01,-5.01,-4.70,2.76,2.76,2.76
41.35,7.77,5.02,7.77,5.02,-5.02,-5.01,-4.67,2.75,2.75,2.75
41.76,7.77,5.02,7.77,5.02,-5.02,-5.02,-4.65,2.74,2.74,2.74
42.18,7.77,5.03,7.77,5.03,-5.03,-5.02,-4.63,2.74,2.74,2.74
42.60,7.77,5.03,7.77,5.03,-5.03,-5.02,-4.61,2.73,2.73,2.73
43.03,7.77,5.04,7.77,5.04,-5.04,-5.02,-4.60,2.73,2.73,2.73
43.46,7.77,5.05,7.77,5.04,-5.04,-5.03,-4.58,2.72,2.72,2.72
43.90,7.77,5.04,7.77,5.05,-5.05,-5.03,-4.58,2.72,2.72,2.72
44.33,7.77,5.05,7.77,5.05,-5.05,-5.03,-4.57,2.71,2.71,2.71
44.78,7.77,5.06,7.77,5.06,-5.06,-5.03,-4.57,2.71,2.71,2.71
45.23,7.77,5.07,7.77,5.07,-5.07,-5.03,-4.57,2.70,2.70,2.70
45.68,7.77,5.08,7.77,5.08,-5.08,-5.03,-4.58,2.69,2.69,2.69
46.13,7.77,5.08,7.77,5.08,-5.09,-5.03,-4.59,2.68,2.68,2.68
46.60,7.77,5.09,7.77,5.09,-5.10,-5.03,-4.60,2.67,2.67,2.67
47.06,7.77,5.10,7.77,5.10,-5.11,-5.04,-4.62,2.66,2.66,2.66
47.53,7.77,5.11,7.77,5.11,-5.12,-5.04,-4.64,2.65,2.65,2.65
48.01,7.77,5.13,7.77,5.13,-5.12,-5.04,-4.66,2.64,2.65,2.63
48.49,7.77,5.14,7.76,5.14,-5.12,-5.04,-4.69,2.64,2.64,2.62
48.97,7.76,5.15,7.74,5.13,-5.12,-5.04,-4.71,2.64,2.62,2.60
49.46,7.71,5.11,7.71,5.11,-5.11,-5.04,-4.75,2.59,2.59,2.59
49.96,7.66,5.07,7.68,5.10,-5.10,-5.04,-4.78,2.56,2.58,2.58
50.46,7.66,5.09,7.66,5.09,-5.09,-5.04,-4.81,2.57,2.57,2.57
50.96,7.67,5.10,7.64,5.07,-5.07,-5.04,-4.85,2.59,2.56,2.57
51.47,7.62,5.06,7.62,5.06,-5.07,-5.04,-4.89,2.55,2.55,2.55
51.99,7.57,5.02,7.59,5.05,-5.06,-5.04,-4.93,2.50,2.52,2.54
52.51,7.57,5.05,7.56,5.04,-5.06,-5.04,-4.97,2.50,2.50,2.52
53.03,7.57,5.06,7.56,5.06,-5.07,-5.04,-5.02,2.50,2.49,2.50
53.56,7.57,5.08,7.57,5.08,-5.07,-5.04,-5.06,2.50,2.50,2.49
54.10,7.57,5.09,7.57,5.10,-5.07,-5.04,-5.10,2.49,2.50,2.47
54.64,7.57,5.11,7.56,5.10,-5.08,-5.04,-5.15,2.49,2.48,2.46
55.18,7.55,5.10,7.54,5.09,-5.08,-5.04,-5.19,2.46,2.45,2.44
55.74,7.50,5.07,7.51,5.08,-5.09,-5.04,-5.23,2.41,2.42,2.43
56.29,7.48,5.07,7.48,5.07,-5.09,-5.04,-5.27,2.39,2.39,2.41
56.86,7.47,5.07,7.47,5.08,-5.09,-5.04,-5.31,2.38,2.38,2.39
57.42,7.47,5.09,7.47,5.09,-5.09,-5.04,-5.35,2.38,2.38,2.37
58.00,7.47,5.11,7.45,5.10,-5.09,-5.04,-5.38,2.38,2.36,2.35
58.58,7.43,5.09,7.43,5.09,-5.09,-5.05,-5.41,2.34,2.34,2.33
59.16,7.40,5.08,7.40,5.09,-5.09,-5.05,-5.44,2.31,2.32,2.31
59.76,7.38,5.08,7.38,5.09,-5.08,-5.05,-5.46,2.29,2.30,2.29
60.35,7.37,5.09,7.37,5.09,-5.08,-5.05,-5.48,2.28,2.28,2.27
60.96,7.36,5.10,7.34,5.08,-5.08,-5.05,-5.49,2.27,2.25,2.26
61.57,7.30,5.06,7.30,5.07,-5.09,-5.05,-5.50,2.21,2.22,2.24
62.18,7.26,5.04,7.28,5.06,-5.08,-5.06,-5.51,2.17,2.19,2.21
62.80,7.27,5.09,7.26,5.08,-5.08,-5.06,-5.51,2.19,2.18,2.18
63.43,7.26,5.10,7.25,5.10,-5.08,-5.06,-5.50,2.18,2.17,2.15
64.07,7.24,5.12,7.23,5.11,-5.08,-5.06,-5.49,2.16,2.15,2.12
64.71,7.19,5.10,7.18,5.09,-5.08,-5.07,-5.48,2.10,2.09,2.09
65.35,7.12,5.06,7.12,5.06,-5.08,-5.07,-5.46,2.03,2.04,2.05
66.01,7.06,5.03,7.07,5.05,-5.08,-5.07,-5.44,1.98,1.99,2.03
66.67,7.06,5.07,7.06,5.07,-5.08,-5.08,-5.41,1.98,1.99,1.99
67.33,7.06,5.10,7.05,5.10,-5.07,-5.08,-5.39,1.99,1.98,1.96
68.01,7.06,5.14,7.01,5.10,-5.07,-5.08,-5.35,1.99,1.94,1.92
68.69,6.94,5.05,6.95,5.07,-5.07,-5.09,-5.32,1.86,1.88,1.89
69.37,6.87,5.02,6.89,5.05,-5.08,-5.09,-5.28,1.79,1.82,1.84
70.07,6.86,5.05,6.86,5.05,-5.08,-5.10,-5.24,1.78,1.78,1.81
70.77,6.87,5.10,6.85,5.09,-5.08,-5.10,-5.20,1.78,1.77,1.77
71.48,6.85,5.11,6.84,5.11,-5.08,-5.10,-5.16,1.76,1.76,1.73
72.19,6.81,5.12,6.80,5.11,-5.09,-5.11,-5.12,1.72,1.71,1.69
72.91,6.75,5.10,6.74,5.09,-5.10,-5.11,-5.07,1.65,1.65,1.65
73.64,6.69,5.07,6.70,5.08,-5.11,-5.12,-5.03,1.58,1.59,1.61
74.38,6.66,5.08,6.67,5.10,-5.11,-5.12,-4.99,1.54,1.56,1.57
75.12,6.66,5.12,6.66,5.12,-5.12,-5.13,-4.95,1.54,1.54,1.54
75.87,6.66,5.17,6.63,5.14,-5.12,-5.13,-4.91,1.54,1.51,1.49
76.63,6.59,5.14,6.58,5.14,-5.12,-5.14,-4.87,1.46,1.46,1.44
77.40,6.51,5.10,6.52,5.12,-5.13,-5.14,-4.83,1.38,1.39,1.40
78.17,6.46,5.10,6.48,5.12,-5.13,-5.14,-4.80,1.33,1.35,1.36
78.95,6.46,5.14,6.45,5.14,-5.13,-5.15,-4.77,1.32,1.32,1.32
79.74,6.46,5.18,6.42,5.15,-5.14,-5.15,-4.74,1.32,1.28,1.27
80.54,6.37,5.14,6.37,5.14,-5.14,-5.16,-4.71,1.23,1.23,1.23
81.35,6.29,5.10,6.31,5.13,-5.14,-5.16,-4.68,1.14,1.17,1.18
82.16,6.26,5.12,6.27,5.13,-5.15,-5.17,-4.66,1.11,1.12,1.14
82.98,6.26,5.18,6.23,5.15,-5.15,-5.17,-4.65,1.11,1.09,1.08
83.81,6.21,5.17,6.20,5.17,-5.15,-5.17,-4.63,1.06,1.05,1.03
84.65,6.13,5.14,6.14,5.16,-5.14,-5.18,-4.62,0.98,1.00,0.98
85.50,6.08,5.15,6.07,5.15,-5.15,-5.18,-4.61,0.93,0.93,0.92
86.35,6.02,5.14,6.01,5.14,-5.15,-5.18,-4.61,0.86,0.86,0.87
87.22,5.95,5.13,5.95,5.13,-5.16,-5.19,-4.61,0.79,0.79,0.81
88.09,5.90,5.14,5.90,5.15,-5.16,-5.19,-4.61,0.73,0.74,0.76
88.97,5.86,5.16,5.87,5.17,-5.17,-5.19,-4.61,0.69,0.70,0.70
89.86,5.86,5.22,5.83,5.19,-5.17,-5.19,-4.62,0.68,0.65,0.64
90.76,5.78,5.19,5.77,5.19,-5.18,-5.19,-4.64,0.60,0.59,0.58
91.66,5.69,5.17,5.72,5.20,-5.19,-5.19,-4.65,0.50,0.53,0.52
92.58,5.66,5.20,5.64,5.19,-5.20,-5.19,-4.67,0.46,0.45,0.45
93.51,5.60,5.21,5.58,5.19,-5.20,-5.19,-4.70,0.40,0.38,0.39
94.44,5.50,5.17,5.52,5.20,-5.20,-5.19,-4.72,0.30,0.33,0.32
95.39,5.46,5.20,5.45,5.20,-5.20,-5.19,-4.75,0.26,0.26,0.26
96.34,5.41,5.22,5.38,5.19,-5.20,-5.19,-4.78,0.21,0.18,0.19
97.30,5.30,5.18,5.31,5.19,-5.20,-5.18,-4.82,0.10,0.12,0.11
98.28,5.23,5.18,5.23,5.19,-5.20,-5.18,-4.86,0.03,0.04,0.05
99.26,5.17,5.20,5.15,5.18,-5.19,-5.17,-4.90,-0.03,-0.04,-0.03
100.25,5.09,5.19,5.09,5.19,-5.18,-5.17,-4.94,-0.10,-0.10,-0.11
101.25,5.00,5.18,5.01,5.19,-5.17,-5.16,-4.98,-0.18,-0.17,-0.18
102.27,4.93,5.19,4.91,5.17,-5.16,-5.15,-5.03,-0.24,-0.25,-0.26
103.29,4.82,5.16,4.81,5.15,-5.15,-5.15,-5.08,-0.33,-0.34,-0.34
104.32,4.70,5.11,4.71,5.13,-5.14,-5.14,-5.12,-0.44,-0.43,-0.42
105.37,4.60,5.10,4.60,5.10,-5.12,-5.13,-5.17,-0.53,-0.52,-0.51
106.42,4.52,5.10,4.52,5.10,-5.11,-5.11,-5.22,-0.59,-0.59,-0.58
107.48,4.44,5.10,4.43,5.10,-5.10,-5.10,-5.27,-0.66,-0.66,-0.66
108.56,4.36,5.10,4.35,5.09,-5.09,-5.09,-5.31,-0.73,-0.74,-0.74
109.64,4.26,5.07,4.26,5.08,-5.08,-5.07,-5.36,-0.82,-0.82,-0.82
110.74,4.18,5.06,4.18,5.07,-5.07,-5.06,-5.40,-0.89,-0.89,-0.88
111.85,4.10,5.06,4.10,5.05,-5.05,-5.04,-5.44,-0.96,-0.96,-0.96
112.97,4.03,5.05,4.02,5.04,-5.03,-5.02,-5.47,-1.01,-1.02,-1.03
114.10,3.92,5.01,3.93,5.03,-5.01,-5.00,-5.50,-1.09,-1.08,-1.09
115.24,3.85,5.01,3.83,5.00,-4.98,-4.98,-5.53,-1.14,-1.15,-1.16
116.39,3.74,4.96,3.73,4.95,-4.96,-4.95,-5.55,-1.22,-1.23,-1.23
117.55,3.63,4.91,3.63,4.92,-4.94,-4.93,-5.57,-1.31,-1.31,-1.28
118.73,3.54,4.88,3.55,4.89,-4.92,-4.90,-5.58,-1.38,-1.37,-1.35
119.92,3.48,4.88,3.47,4.87,-4.90,-4.88,-5.58,-1.42,-1.43,-1.40
121.12,3.42,4.88,3.41,4.87,-4.88,-4.85,-5.58,-1.46,-1.47,-1.47
122.33,3.34,4.86,3.36,4.87,-4.85,-4.82,-5.56,-1.51,-1.49,-1.52
123.55,3.31,4.87,3.29,4.86,-4.82,-4.79,-5.54,-1.52,-1.53,-1.56
124.79,3.23,4.84,3.20,4.82,-4.80,-4.75,-5.52,-1.57,-1.59,-1.62
126.03,3.09,4.76,3.10,4.77,-4.77,-4.72,-5.48,-1.68,-1.67,-1.68
127.29,2.98,4.69,2.98,4.71,-4.73,-4.68,-5.43,-1.76,-1.75,-1.72
128.57,2.90,4.66,2.89,4.66,-4.69,-4.64,-5.38,-1.80,-1.80,-1.77
129.85,2.81,4.62,2.82,4.64,-4.64,-4.60,-5.32,-1.84,-1.82,-1.82
131.15,2.77,4.63,2.75,4.62,-4.60,-4.56,-5.25,-1.83,-1.84,-1.87
132.46,2.68,4.59,2.66,4.58,-4.55,-4.52,-5.18,-1.88,-1.89,-1.92
133.79,2.56,4.53,2.56,4.53,-4.52,-4.47,-5.09,-1.96,-1.96,-1.97
135.12,2.43,4.45,2.44,4.46,-4.49,-4.43,-5.01,-2.06,-2.05,-2.02
136.48,2.34,4.40,2.34,4.41,-4.45,-4.38,-4.91,-2.12,-2.12,-2.07
137.84,2.26,4.38,2.27,4.38,-4.40,-4.33,-4.81,-2.15,-2.14,-2.12
139.22,2.21,4.37,2.21,4.38,-4.35,-4.28,-4.70,-2.14,-2.14,-2.16
140.61,2.16,4.37,2.13,4.35,-4.29,-4.23,-4.59,-2.13,-2.16,-2.22
142.02,2.03,4.30,2.01,4.28,-4.23,-4.17,-4.48,-2.20,-2.22,-2.27
143.44,1.84,4.16,1.85,4.17,-4.16,-4.12,-4.36,-2.33,-2.31,-2.32
144.87,1.68,4.04,1.69,4.06,-4.10,-4.06,-4.24,-2.43,-2.41,-2.36
146.32,1.57,3.98,1.57,3.99,-4.04,-4.00,-4.12,-2.47,-2.47,-2.41
147.78,1.48,3.95,1.46,3.93,-3.97,-3.94,-4.00,-2.50,-2.51,-2.47
149.26,1.39,3.91,1.38,3.90,-3.91,-3.88,-3.87,-2.52,-2.53,-2.52
150.75,1.27,3.83,1.29,3.86,-3.85,-3.81,-3.74,-2.58,-2.55,-2.57
152.26,1.22,3.83,1.20,3.82,-3.79,-3.75,-3.61,-2.57,-2.58,-2.62
153.78,1.12,3.77,1.11,3.76,-3.73,-3.68,-3.48,-2.61,-2.62,-2.65
155.32,1.00,3.69,1.00,3.70,-3.67,-3.61,-3.36,-2.67,-2.67,-2.70
156.88,0.87,3.61,0.86,3.60,-3.60,-3.54,-3.23,-2.74,-2.74,-2.74
158.44,0.73,3.50,0.73,3.50,-3.53,-3.47,-3.10,-2.81,-2.81,-2.77
160.03,0.59,3.40,0.61,3.42,-3.46,-3.39,-2.97,-2.87,-2.85,-2.82
161.63,0.51,3.36,0.50,3.36,-3.38,-3.32,-2.84,-2.88,-2.88,-2.86
163.24,0.42,3.31,0.41,3.31,-3.30,-3.24,-2.72,-2.89,-2.89,-2.90
164.88,0.31,3.24,0.31,3.25,-3.22,-3.16,-2.59,-2.91,-2.90,-2.94
166.53,0.20,3.17,0.19,3.17,-3.13,-3.08,-2.47,-2.93,-2.94,-2.98
168.19,0.06,3.07,0.04,3.06,-3.04,-3.00,-2.34,-2.98,-3.00,-3.02
169.87,-0.12,2.93,-0.11,2.94,-2.95,-2.92,-2.22,-3.07,-3.06,-3.05
171.57,-0.28,2.81,-0.27,2.82,-2.84,-2.83,-2.10,-3.13,-3.11,-3.09
173.29,-0.40,2.72,-0.41,2.71,-2.74,-2.75,-1.98,-3.14,-3.15,-3.13
175.02,-0.53,2.63,-0.54,2.62,-2.63,-2.66,-1.86,-3.16,-3.17,-3.16
176.77,-0.67,2.51,-0.66,2.53,-2.52,-2.57,-1.74,-3.20,-3.18,-3.19
178.54,-0.77,2.45,-0.79,2.43,-2.42,-2.48,-1.63,-3.19,-3.20,-3.22
180.32,-0.91,2.33,-0.92,2.32,-2.32,-2.38,-1.51,-3.23,-3.24,-3.24
182.13,-1.05,2.21,-1.05,2.22,-2.22,-2.29,-1.40,-3.27,-3.27,-3.27
183.95,-1.19,2.09,-1.18,2.11,-2.12,-2.19,-1.29,-3.32,-3.30,-3.29
185.79,-1.28,2.03,-1.30,2.01,-2.03,-2.10,-1.17,-3.31,-3.33,-3.32
187.65,-1.41,1.92,-1.41,1.92,-1.93,-2.00,-1.06,-3.34,-3.34,-3.33
189.52,-1.52,1.82,-1.52,1.83,-1.83,-1.90,-0.96,-3.36,-3.35,-3.35
191.42,-1.62,1.74,-1.63,1.73,-1.73,-1.80,-0.85,-3.36,-3.37,-3.37
193.33,-1.74,1.64,-1.74,1.64,-1.63,-1.69,-0.74,-3.37,-3.37,-3.39
195.27,-1.86,1.53,-1.85,1.54,-1.52,-1.59,-0.64,-3.39,-3.38,-3.39
197.22,-1.97,1.44,-1.99,1.43,-1.41,-1.48,-0.53,-3.39,-3.40,-3.41
199.19,-2.11,1.31,-2.12,1.30,-1.30,-1.37,-0.43,-3.41,-3.42,-3.43
201.18,-2.28,1.16,-2.27,1.18,-1.18,-1.27,-0.33,-3.47,-3.45,-3.44
203.19,-2.41,1.05,-2.41,1.05,-1.07,-1.16,-0.23,-3.48,-3.48,-3.46
205.23,-2.53,0.94,-2.54,0.94,-0.96,-1.05,-0.13,-3.49,-3.49,-3.48
207.28,-2.65,0.84,-2.66,0.84,-0.84,-0.93,-0.04,-3.49,-3.50,-3.49
209.35,-2.78,0.73,-2.78,0.73,-0.73,-0.82,0.05,-3.51,-3.50,-3.51
211.44,-2.89,0.63,-2.90,0.63,-0.62,-0.71,0.15,-3.51,-3.52,-3.53
213.56,-3.02,0.52,-3.03,0.52,-0.51,-0.59,0.23,-3.54,-3.54,-3.54
215.69,-3.16,0.40,-3.16,0.41,-0.40,-0.48,0.32,-3.57,-3.56,-3.56
217.85,-3.28,0.29,-3.29,0.29,-0.29,-0.36,0.41,-3.57,-3.58,-3.58
220.03,-3.42,0.17,-3.42,0.17,-0.17,-0.25,0.49,-3.60,-3.59,-3.60
222.23,-3.55,0.06,-3.55,0.06,-0.05,-0.13,0.57,-3.60,-3.60,-3.61
224.45,-3.67,-0.05,-3.68,-0.06,0.07,-0.02,0.64,-3.60,-3.61,-3.62
226.70,-3.80,-0.17,-3.81,-0.18,0.19,0.10,0.71,-3.62,-3.62,-3.63
228.96,-3.95,-0.31,-3.94,-0.30,0.30,0.21,0.78,-3.66,-3.65,-3.64
231.25,-4.06,-0.42,-4.09,-0.44,0.40,0.33,0.84,-3.66,-3.68,-3.64
233.57,-4.20,-0.55,-4.19,-0.54,0.51,0.44,0.90,-3.70,-3.68,-3.65
235.90,-4.30,-0.65,-4.26,-0.61,0.61,0.55,0.96,-3.69,-3.65,-3.65
238.26,-4.28,-0.62,-4.33,-0.67,0.70,0.66,1.01,-3.58,-3.62,-3.66
240.64,-4.39,-0.75,-4.42,-0.77,0.79,0.77,1.06,-3.60,-3.63,-3.65
243.05,-4.52,-0.88,-4.52,-0.87,0.87,0.87,1.10,-3.65,-3.64,-3.65
245.48,-4.66,-1.02,-4.62,-0.98,0.95,0.97,1.14,-3.71,-3.67,-3.64
247.93,-4.67,-1.03,-4.69,-1.05,1.03,1.07,1.17,-3.65,-3.66,-3.64
250.41,-4.72,-1.08,-4.74,-1.11,1.10,1.16,1.20,-3.62,-3.64,-3.64
252.92,-4.80,-1.17,-4.80,-1.16,1.18,1.25,1.22,-3.63,-3.62,-3.64
255.45,-4.88,-1.25,-4.88,-1.24,1.24,1.34,1.24,-3.64,-3.64,-3.63
258.00,-4.94,-1.30,-4.95,-1.31,1.30,1.42,1.25,-3.64,-3.65,-3.64
260.58,-5.01,-1.37,-5.01,-1.36,1.36,1.50,1.26,-3.65,-3.65,-3.65
263.19,-5.07,-1.42,-5.07,-1.42,1.42,1.57,1.27,-3.65,-3.65,-3.65
265.82,-5.12,-1.45,-5.13,-1.47,1.48,1.63,1.27,-3.64,-3.65,-3.67
268.48,-5.20,-1.53,-5.19,-1.51,1.54,1.69,1.26,-3.67,-3.65,-3.67
271.16,-5.26,-1.57,-5.27,-1.58,1.59,1.74,1.26,-3.68,-3.69,-3.69
273.87,-5.33,-1.63,-5.38,-1.67,1.63,1.78,1.25,-3.70,-3.75,-3.71
276.61,-5.47,-1.76,-5.44,-1.73,1.68,1.82,1.23,-3.80,-3.76,-3.71
279.38,-5.51,-1.80,-5.44,-1.72,1.73,1.85,1.21,-3.79,-3.71,-3.72
282.17,-5.39,-1.66,-5.44,-1.71,1.76,1.88,1.19,-3.63,-3.68,-3.73
284.99,-5.37,-1.64,-5.48,-1.75,1.79,1.90,1.17,-3.58,-3.69,-3.73
287.84,-5.60,-1.86,-5.55,-1.81,1.81,1.91,1.15,-3.79,-3.74,-3.74
290.72,-5.70,-1.95,-5.63,-1.88,1.83,1.91,1.12,-3.88,-3.80,-3.75
293.63,-5.61,-1.86,-5.65,-1.90,1.83,1.91,1.09,-3.78,-3.82,-3.76
296.57,-5.58,-1.82,-5.60,-1.85,1.84,1.90,1.06,-3.74,-3.76,-3.76
299.53,-5.57,-1.82,-5.56,-1.81,1.85,1.89,1.03,-3.73,-3.72,-3.75
302.53,-5.56,-1.81,-5.56,-1.80,1.84,1.87,1.00,-3.73,-3.72,-3.76
305.55,-5.55,-1.78,-5.58,-1.81,1.81,1.85,0.97,-3.75,-3.77,-3.77
308.61,-5.57,-1.80,-5.58,-1.81,1.77,1.82,0.93,-3.80,-3.81,-3.78
311.69,-5.62,-1.85,-5.56,-1.78,1.75,1.78,0.90,-3.88,-3.82,-3.78
314.81,-5.50,-1.71,-5.52,-1.73,1.73,1.75,0.86,-3.78,-3.79,-3.79
317.96,-5.43,-1.64,-5.46,-1.67,1.71,1.70,0.83,-3.73,-3.76,-3.79
321.14,-5.42,-1.63,-5.41,-1.61,1.68,1.66,0.79,-3.74,-3.73,-3.80
324.35,-5.42,-1.61,-5.43,-1.62,1.64,1.61,0.76,-3.78,-3.78,-3.81
327.59,-5.43,-1.61,-5.47,-1.65,1.60,1.56,0.73,-3.83,-3.87,-3.82
330.87,-5.49,-1.67,-5.46,-1.63,1.56,1.51,0.69,-3.93,-3.90,-3.83
334.18,-5.45,-1.63,-5.39,-1.56,1.52,1.46,0.66,-3.93,-3.87,-3.83
337.52,-5.25,-1.42,-5.30,-1.47,1.48,1.40,0.62,-3.77,-3.82,-3.83
340.90,-5.17,-1.33,-5.24,-1.40,1.45,1.35,0.59,-3.73,-3.79,-3.84
344.30,-5.23,-1.39,-5.20,-1.36,1.41,1.29,0.56,-3.82,-3.79,-3.84
347.75,-5.25,-1.41,-5.21,-1.35,1.37,1.23,0.52,-3.88,-3.83,-3.85
351.23,-5.16,-1.31,-5.18,-1.33,1.33,1.18,0.49,-3.83,-3.86,-3.86
354.74,-5.13,-1.27,-5.16,-1.30,1.29,1.12,0.46,-3.84,-3.87,-3.86
358.28,-5.13,-1.27,-5.16,-1.29,1.26,1.06,0.43,-3.87,-3.90,-3.86
361.87,-5.17,-1.31,-5.12,-1.26,1.23,1.00,0.40,-3.94,-3.89,-3.86
365.49,-5.11,-1.25,-5.06,-1.20,1.19,0.94,0.37,-3.92,-3.87,-3.87
369.14,-4.90,-1.04,-5.00,-1.14,1.14,0.89,0.34,-3.76,-3.86,-3.87
372.83,-4.93,-1.07,-4.93,-1.06,1.09,0.83,0.31,-3.85,-3.84,-3.87
376.56,-4.95,-1.08,-4.88,-1.01,1.03,0.77,0.28,-3.93,-3.85,-3.87
380.33,-4.81,-0.93,-4.88,-1.00,0.96,0.72,0.25,-3.85,-3.91,-3.88
384.13,-4.80,-0.92,-4.80,-0.92,0.89,0.66,0.23,-3.91,-3.91,-3.88
387.97,-4.78,-0.89,-4.71,-0.82,0.83,0.61,0.20,-3.96,-3.88,-3.89
391.85,-4.59,-0.69,-4.66,-0.76,0.77,0.55,0.17,-3.83,-3.90,-3.91
395.77,-4.57,-0.66,-4.60,-0.68,0.70,0.50,0.15,-3.87,-3.89,-3.92
399.73,-4.60,-0.68,-4.55,-0.62,0.64,0.45,0.12,-3.97,-3.91,-3.93
403.72,-4.50,-0.56,-4.52,-0.58,0.57,0.40,0.10,-3.94,-3.96,-3.94
407.76,-4.46,-0.50,-4.47,-0.51,0.49,0.35,0.07,-3.97,-3.97,-3.96
411.84,-4.40,-0.43,-4.40,-0.43,0.42,0.30,0.05,-3.98,-3.98,-3.97
415.96,-4.34,-0.36,-4.36,-0.38,0.36,0.25,0.02,-3.98,-4.00,-3.98
420.12,-4.30,-0.31,-4.28,-0.29,0.29,0.20,-0.00,-4.01,-3.99,-3.99
424.32,-4.22,-0.23,-4.20,-0.20,0.22,0.16,-0.03,-4.00,-3.98,-3.99
428.56,-4.08,-0.09,-4.13,-0.13,0.15,0.11,-0.05,-3.93,-3.97,-3.99
432.85,-4.04,-0.06,-4.05,-0.07,0.08,0.07,-0.07,-3.97,-3.98,-3.99
437.18,-4.02,-0.06,-3.99,-0.02,0.01,0.02,-0.10,-4.02,-3.98,-3.97
441.55,-3.91,0.03,-3.92,0.03,-0.06,-0.02,-0.12,-3.97,-3.98,-3.95
445.96,-3.80,0.11,-3.80,0.11,-0.12,-0.06,-0.14,-3.93,-3.93,-3.92
450.42,-3.68,0.20,-3.67,0.21,-0.19,-0.10,-0.17,-3.87,-3.86,-3.88
454.93,-3.54,0.30,-3.57,0.27,-0.25,-0.15,-0.19,-3.79,-3.82,-3.84
459.48,-3.46,0.33,-3.47,0.32,-0.31,-0.19,-0.21,-3.78,-3.79,-3.79
464.07,-3.40,0.35,-3.38,0.37,-0.38,-0.23,-0.23,-3.78,-3.76,-3.75
468.71,-3.28,0.42,-3.28,0.42,-0.44,-0.26,-0.25,-3.73,-3.73,-3.70
473.40,-3.16,0.49,-3.17,0.49,-0.50,-0.30,-0.28,-3.66,-3.67,-3.65
478.13,-3.04,0.56,-3.04,0.56,-0.55,-0.34,-0.30,-3.59,-3.59,-3.60
482.91,-2.93,0.63,-2.94,0.62,-0.60,-0.38,-0.32,-3.53,-3.54,-3.56
487.74,-2.85,0.67,-2.86,0.66,-0.64,-0.41,-0.34,-3.50,-3.51,-3.52
492.62,-2.80,0.69,-2.81,0.69,-0.68,-0.45,-0.36,-3.49,-3.49,-3.49
