frequency,raw,error,smoothed,error_smoothed,equalization,parametric_eq,fixed_band_eq,equalized_raw,equalized_smoothed,target
20.00,-14.36,-9.58,-14.36,-9.58,6.00,6.69,2.40,-8.36,-8.36,-4.78
20.20,-14.21,-9.49,-14.21,-9.48,6.00,6.65,2.47,-8.21,-8.21,-4.72
20.40,-14.06,-9.39,-14.06,-9.39,6.00,6.61,2.54,-8.06,-8.06,-4.67
20.61,-13.91,-9.30,-13.91,-9.30,6.00,6.57,2.61,-7.91,-7.91,-4.61
20.81,-13.76,-9.20,-13.76,-9.20,6.00,6.53,2.69,-7.76,-7.76,-4.56
21.02,-13.62,-9.12,-13.61,-9.11,6.00,6.49,2.77,-7.62,-7.61,-4.50
21.23,-13.47,-9.02,-13.47,-9.02,6.00,6.45,2.85,-7.47,-7.47,-4.45
21.44,-13.32,-8.92,-13.32,-8.92,6.00,6.41,2.93,-7.32,-7.32,-4.40
21.66,-13.17,-8.82,-13.17,-8.82,6.00,6.37,3.01,-7.17,-7.17,-4.35
21.87,-13.02,-8.72,-13.02,-8.72,6.00,6.33,3.10,-7.02,-7.02,-4.30
22.09,-12.87,-8.62,-12.87,-8.62,6.00,6.28,3.19,-6.87,-6.87,-4.25
22.31,-12.72,-8.52,-12.72,-8.51,6.00,6.24,3.29,-6.72,-6.72,-4.20
22.54,-12.57,-8.41,-12.57,-8.41,6.00,6.20,3.38,-6.57,-6.57,-4.16
22.76,-12.42,-8.31,-12.42,-8.31,6.00,6.15,3.48,-6.42,-6.42,-4.11
22.99,-12.27,-8.20,-12.27,-8.20,6.00,6.11,3.58,-6.27,-6.27,-4.07
23.22,-12.12,-8.10,-12.12,-8.10,6.00,6.07,3.68,-6.12,-6.12,-4.02
23.45,-11.97,-7.99,-11.97,-7.99,6.00,6.02,3.78,-5.97,-5.97,-3.98
23.69,-11.82,-7.89,-11.82,-7.89,6.00,5.98,3.89,-5.82,-5.82,-3.93
23.92,-11.67,-7.78,-11.67,-7.78,6.00,5.93,4.00,-5.67,-5.67,-3.89
24.16,-11.52,-7.68,-11.52,-7.67,6.00,5.89,4.11,-5.52,-5.52,-3.84
24.40,-11.37,-7.57,-11.37,-7.57,6.00,5.84,4.22,-5.37,-5.37,-3.80
24.65,-11.22,-7.46,-11.22,-7.46,6.00,5.80,4.34,-5.22,-5.22,-3.76
24.89,-11.06,-7.35,-11.07,-7.35,6.00,5.75,4.45,-5.06,-5.07,-3.72
25.14,-10.92,-7.24,-10.92,-7.24,6.00,5.71,4.57,-4.92,-4.92,-3.68
25.39,-10.76,-7.13,-10.77,-7.13,6.00,5.66,4.69,-4.76,-4.77,-3.64
25.65,-10.62,-7.02,-10.62,-7.02,6.00,5.61,4.81,-4.62,-4.62,-3.60
25.91,-10.47,-6.91,-10.47,-6.91,6.00,5.57,4.92,-4.47,-4.47,-3.56
26.16,-10.33,-6.81,-10.33,-6.80,6.00,5.52,5.04,-4.33,-4.33,-3.52
26.43,-10.18,-6.69,-10.18,-6.69,6.00,5.47,5.16,-4.18,-4.18,-3.49
26.69,-10.04,-6.59,-10.04,-6.59,6.01,5.43,5.27,-4.03,-4.02,-3.45
26.96,-9.89,-6.48,-9.89,-6.48,6.02,5.38,5.39,-3.87,-3.87,-3.41
27.23,-9.75,-6.37,-9.75,-6.37,6.02,5.33,5.50,-3.73,-3.73,-3.38
27.50,-9.60,-6.26,-9.60,-6.26,6.01,5.28,5.61,-3.59,-3.59,-3.34
27.77,-9.46,-6.16,-9.45,-6.15,5.99,5.23,5.71,-3.47,-3.47,-3.30
28.05,-9.31,-6.04,-9.31,-6.05,5.95,5.19,5.81,-3.36,-3.36,-3.27
28.33,-9.18,-5.95,-9.17,-5.95,5.90,5.14,5.90,-3.28,-3.28,-3.23
28.62,-9.04,-5.85,-9.04,-5.85,5.83,5.09,5.99,-3.21,-3.21,-3.19
28.90,-8.90,-5.75,-8.90,-5.75,5.75,5.04,6.07,-3.15,-3.15,-3.15
29.19,-8.76,-5.64,-8.76,-5.64,5.66,4.99,6.14,-3.10,-3.10,-3.12
29.48,-8.62,-5.54,-8.62,-5.54,5.56,4.94,6.21,-3.06,-3.06,-3.08
29.78,-8.48,-5.44,-8.48,-5.44,5.46,4.89,6.26,-3.02,-3.02,-3.04
30.08,-8.35,-5.34,-8.35,-5.34,5.35,4.84,6.31,-3.00,-3.00,-3.01
30.38,-8.23,-5.26,-8.23,-5.26,5.26,4.79,6.34,-2.97,-2.97,-2.97
30.68,-8.11,-5.17,-8.11,-5.17,5.17,4.74,6.36,-2.94,-2.94,-2.94
30.99,-7.99,-5.09,-7.99,-5.08,5.08,4.69,6.38,-2.91,-2.91,-2.90
31.30,-7.86,-4.99,-7.86,-4.99,4.99,4.64,6.38,-2.87,-2.87,-2.87
31.61,-7.74,-4.90,-7.74,-4.90,4.90,4.59,6.37,-2.84,-2.84,-2.84
31.93,-7.62,-4.81,-7.62,-4.81,4.81,4.54,6.35,-2.81,-2.81,-2.81
32.24,-7.50,-4.72,-7.49,-4.72,4.71,4.49,6.32,-2.78,-2.78,-2.78
32.57,-7.37,-4.62,-7.37,-4.62,4.62,4.44,6.28,-2.75,-2.75,-2.75
32.89,-7.25,-4.53,-7.25,-4.52,4.53,4.38,6.23,-2.72,-2.72,-2.72
33.22,-7.13,-4.43,-7.13,-4.43,4.43,4.33,6.16,-2.69,-2.69,-2.70
33.55,-7.01,-4.34,-7.01,-4.34,4.34,4.28,6.10,-2.66,-2.67,-2.67
33.89,-6.90,-4.25,-6.90,-4.25,4.25,4.23,6.02,-2.65,-2.65,-2.65
34.23,-6.79,-4.16,-6.79,-4.16,4.16,4.18,5.93,-2.63,-2.63,-2.63
34.57,-6.68,-4.08,-6.68,-4.08,4.07,4.13,5.84,-2.61,-2.61,-2.60
34.92,-6.57,-3.99,-6.57,-3.99,3.98,4.08,5.74,-2.58,-2.58,-2.58
35.27,-6.46,-3.90,-6.46,-3.90,3.90,4.03,5.63,-2.56,-2.56,-2.56
35.62,-6.35,-3.81,-6.35,-3.81,3.81,3.97,5.53,-2.54,-2.54,-2.54
35.97,-6.25,-3.73,-6.25,-3.72,3.73,3.92,5.41,-2.52,-2.52,-2.52
36.33,-6.15,-3.64,-6.15,-3.64,3.64,3.87,5.30,-2.50,-2.50,-2.51
36.70,-6.05,-3.56,-6.05,-3.56,3.56,3.82,5.18,-2.49,-2.49,-2.49
37.06,-5.95,-3.48,-5.95,-3.48,3.48,3.77,5.06,-2.47,-2.47,-2.47
37.43,-5.86,-3.40,-5.85,-3.40,3.39,3.72,4.94,-2.46,-2.46,-2.46
37.81,-5.76,-3.32,-5.76,-3.32,3.31,3.66,4.82,-2.44,-2.44,-2.44
38.19,-5.67,-3.24,-5.67,-3.24,3.24,3.61,4.69,-2.43,-2.43,-2.43
38.57,-5.58,-3.16,-5.58,-3.16,3.16,3.56,4.57,-2.42,-2.42,-2.42
38.95,-5.50,-3.09,-5.50,-3.09,3.09,3.51,4.45,-2.41,-2.41,-2.41
39.34,-5.42,-3.02,-5.42,-3.02,3.02,3.46,4.33,-2.40,-2.40,-2.40
39.74,-5.34,-2.95,-5.34,-2.95,2.95,3.40,4.21,-2.39,-2.39,-2.39
40.14,-5.27,-2.88,-5.27,-2.88,2.88,3.35,4.09,-2.39,-2.38,-2.39
40.54,-5.20,-2.82,-5.20,-2.82,2.82,3.30,3.98,-2.38,-2.38,-2.38
40.94,-5.14,-2.77,-5.14,-2.76,2.76,3.25,3.86,-2.37,-2.37,-2.37
41.35,-5.08,-2.71,-5.08,-2.71,2.71,3.20,3.75,-2.37,-2.37,-2.37
41.76,-5.02,-2.66,-5.02,-2.66,2.66,3.15,3.64,-2.36,-2.36,-2.36
42.18,-4.97,-2.61,-4.97,-2.61,2.61,3.09,3.53,-2.36,-2.36,-2.36
42.60,-4.92,-2.57,-4.91,-2.56,2.57,3.04,3.42,-2.35,-2.35,-2.35
43.03,-4.87,-2.52,-4.87,-2.52,2.53,2.99,3.32,-2.34,-2.34,-2.35
43.46,-4.83,-2.49,-4.83,-2.49,2.49,2.94,3.22,-2.34,-2.34,-2.34
43.90,-4.80,-2.46,-4.80,-2.46,2.46,2.89,3.12,-2.34,-2.33,-2.34
44.33,-4.77,-2.44,-4.77,-2.43,2.43,2.84,3.02,-2.33,-2.33,-2.33
44.78,-4.74,-2.41,-4.74,-2.41,2.41,2.79,2.93,-2.33,-2.33,-2.33
45.23,-4.72,-2.40,-4.72,-2.39,2.39,2.73,2.84,-2.33,-2.33,-2.32
45.68,-4.70,-2.38,-4.69,-2.37,2.37,2.68,2.75,-2.33,-2.32,-2.32
46.13,-4.67,-2.35,-4.67,-2.36,2.36,2.63,2.66,-2.31,-2.32,-2.32
46.60,-4.66,-2.35,-4.65,-2.34,2.34,2.58,2.57,-2.31,-2.31,-2.31
47.06,-4.64,-2.33,-4.64,-2.33,2.33,2.53,2.49,-2.31,-2.31,-2.31
47.53,-4.63,-2.32,-4.63,-2.32,2.32,2.48,2.41,-2.31,-2.31,-2.31
48.01,-4.62,-2.32,-4.62,-2.31,2.31,2.43,2.33,-2.30,-2.30,-2.30
48.49,-4.61,-2.31,-4.61,-2.31,2.31,2.38,2.25,-2.30,-2.30,-2.30
48.97,-4.60,-2.30,-4.60,-2.30,2.30,2.33,2.18,-2.30,-2.30,-2.30
49.46,-4.59,-2.30,-4.59,-2.29,2.30,2.28,2.10,-2.29,-2.29,-2.29
49.96,-4.58,-2.29,-4.58,-2.29,2.29,2.23,2.03,-2.29,-2.29,-2.29
50.46,-4.57,-2.29,-4.57,-2.29,2.28,2.17,1.96,-2.28,-2.28,-2.28
50.96,-4.56,-2.28,-4.55,-2.28,2.27,2.12,1.89,-2.28,-2.28,-2.28
51.47,-4.54,-2.27,-4.54,-2.27,2.26,2.07,1.83,-2.27,-2.27,-2.27
51.99,-4.52,-2.25,-4.52,-2.25,2.25,2.02,1.76,-2.27,-2.27,-2.27
52.51,-4.50,-2.23,-4.50,-2.23,2.23,1.97,1.70,-2.26,-2.26,-2.27
53.03,-4.48,-2.22,-4.47,-2.21,2.21,1.92,1.64,-2.26,-2.26,-2.26
53.56,-4.45,-2.19,-4.45,-2.19,2.19,1.87,1.58,-2.26,-2.26,-2.26
54.10,-4.42,-2.16,-4.42,-2.16,2.16,1.82,1.52,-2.26,-2.26,-2.26
54.64,-4.39,-2.13,-4.39,-2.13,2.12,1.77,1.46,-2.26,-2.26,-2.26
55.18,-4.35,-2.09,-4.35,-2.09,2.08,1.72,1.41,-2.27,-2.26,-2.26
55.74,-4.30,-2.04,-4.30,-2.04,2.03,1.67,1.35,-2.27,-2.27,-2.26
56.29,-4.25,-1.98,-4.25,-1.98,1.98,1.62,1.30,-2.27,-2.27,-2.27
56.86,-4.19,-1.92,-4.19,-1.91,1.91,1.57,1.24,-2.27,-2.27,-2.27
57.42,-4.12,-1.84,-4.12,-1.84,1.84,1.52,1.19,-2.27,-2.28,-2.28
58.00,-4.06,-1.77,-4.06,-1.77,1.77,1.47,1.14,-2.29,-2.29,-2.29
58.58,-3.99,-1.69,-3.99,-1.69,1.69,1.42,1.09,-2.30,-2.30,-2.30
59.16,-3.92,-1.61,-3.92,-1.61,1.60,1.37,1.04,-2.32,-2.31,-2.31
59.76,-3.84,-1.52,-3.84,-1.51,1.51,1.32,0.99,-2.32,-2.32,-2.32
60.35,-3.76,-1.42,-3.76,-1.42,1.42,1.27,0.95,-2.33,-2.33,-2.34
60.96,-3.68,-1.33,-3.68,-1.33,1.33,1.22,0.90,-2.35,-2.35,-2.35
61.57,-3.60,-1.24,-3.60,-1.24,1.24,1.17,0.85,-2.36,-2.36,-2.36
62.18,-3.53,-1.15,-3.52,-1.15,1.15,1.12,0.81,-2.38,-2.38,-2.38
62.80,-3.45,-1.06,-3.45,-1.06,1.06,1.07,0.76,-2.39,-2.39,-2.39
63.43,-3.37,-0.97,-3.37,-0.97,0.97,1.02,0.72,-2.40,-2.40,-2.40
64.07,-3.29,-0.88,-3.29,-0.88,0.88,0.97,0.67,-2.41,-2.41,-2.41
64.71,-3.21,-0.79,-3.21,-0.80,0.79,0.92,0.63,-2.41,-2.42,-2.42
65.35,-3.14,-0.72,-3.13,-0.71,0.71,0.87,0.58,-2.43,-2.42,-2.42
66.01,-3.06,-0.64,-3.05,-0.63,0.63,0.82,0.54,-2.43,-2.42,-2.42
66.67,-2.97,-0.55,-2.97,-0.55,0.55,0.77,0.50,-2.42,-2.42,-2.42
67.33,-2.89,-0.47,-2.89,-0.47,0.48,0.71,0.45,-2.41,-2.41,-2.42
68.01,-2.82,-0.41,-2.81,-0.40,0.41,0.66,0.41,-2.41,-2.40,-2.41
68.69,-2.74,-0.34,-2.74,-0.34,0.34,0.61,0.37,-2.40,-2.40,-2.40
69.37,-2.67,-0.28,-2.67,-0.28,0.28,0.56,0.33,-2.39,-2.39,-2.39
70.07,-2.60,-0.22,-2.60,-0.22,0.22,0.51,0.28,-2.38,-2.38,-2.38
70.77,-2.53,-0.16,-2.53,-0.16,0.16,0.46,0.24,-2.37,-2.37,-2.37
71.48,-2.46,-0.11,-2.46,-0.10,0.10,0.41,0.20,-2.35,-2.35,-2.35
72.19,-2.39,-0.05,-2.39,-0.05,0.05,0.35,0.15,-2.34,-2.34,-2.34
72.91,-2.33,0.00,-2.33,0.00,-0.00,0.30,0.11,-2.33,-2.33,-2.33
73.64,-2.27,0.05,-2.27,0.05,-0.05,0.25,0.07,-2.32,-2.32,-2.32
74.38,-2.21,0.10,-2.21,0.10,-0.11,0.20,0.02,-2.31,-2.31,-2.31
75.12,-2.15,0.15,-2.15,0.15,-0.16,0.14,-0.02,-2.31,-2.31,-2.30
75.87,-2.09,0.20,-2.08,0.21,-0.21,0.09,-0.06,-2.30,-2.30,-2.29
76.63,-2.02,0.26,-2.02,0.26,-0.27,0.04,-0.11,-2.28,-2.29,-2.28
77.40,-1.96,0.32,-1.96,0.32,-0.32,-0.01,-0.15,-2.28,-2.27,-2.28
78.17,-1.90,0.37,-1.89,0.38,-0.37,-0.07,-0.20,-2.27,-2.26,-2.27
78.95,-1.83,0.43,-1.83,0.43,-0.42,-0.12,-0.24,-2.25,-2.25,-2.26
79.74,-1.78,0.47,-1.78,0.47,-0.47,-0.17,-0.29,-2.25,-2.25,-2.25
80.54,-1.73,0.51,-1.73,0.51,-0.52,-0.23,-0.33,-2.24,-2.24,-2.24
81.35,-1.68,0.55,-1.68,0.55,-0.56,-0.28,-0.38,-2.24,-2.24,-2.23
82.16,-1.63,0.59,-1.62,0.60,-0.60,-0.33,-0.43,-2.23,-2.22,-2.22
82.98,-1.56,0.65,-1.57,0.64,-0.64,-0.39,-0.47,-2.20,-2.21,-2.21
83.81,-1.51,0.68,-1.51,0.68,-0.68,-0.44,-0.52,-2.19,-2.19,-2.19
84.65,-1.46,0.71,-1.45,0.72,-0.72,-0.49,-0.57,-2.18,-2.17,-2.17
85.50,-1.40,0.75,-1.40,0.75,-0.76,-0.55,-0.62,-2.15,-2.15,-2.15
86.35,-1.34,0.79,-1.34,0.79,-0.79,-0.60,-0.67,-2.12,-2.13,-2.13
87.22,-1.29,0.82,-1.29,0.82,-0.81,-0.65,-0.72,-2.10,-2.10,-2.11
88.09,-1.25,0.84,-1.25,0.84,-0.84,-0.71,-0.77,-2.08,-2.08,-2.09
88.97,-1.21,0.86,-1.21,0.86,-0.86,-0.76,-0.83,-2.06,-2.07,-2.07
89.86,-1.18,0.87,-1.18,0.87,-0.87,-0.81,-0.88,-2.05,-2.05,-2.05
90.76,-1.15,0.88,-1.15,0.88,-0.88,-0.87,-0.93,-2.03,-2.03,-2.03
91.66,-1.12,0.89,-1.12,0.89,-0.89,-0.92,-0.99,-2.01,-2.01,-2.01
92.58,-1.09,0.90,-1.09,0.90,-0.90,-0.97,-1.04,-1.99,-2.00,-1.99
93.51,-1.07,0.91,-1.07,0.91,-0.92,-1.02,-1.10,-1.98,-1.98,-1.98
94.44,-1.05,0.91,-1.04,0.92,-0.93,-1.08,-1.16,-1.98,-1.97,-1.96
95.39,-1.01,0.94,-1.01,0.94,-0.95,-1.13,-1.21,-1.95,-1.96,-1.95
96.34,-0.98,0.96,-0.98,0.96,-0.96,-1.18,-1.27,-1.94,-1.94,-1.94
97.30,-0.95,0.99,-0.95,0.99,-0.98,-1.23,-1.33,-1.93,-1.93,-1.94
98.28,-0.92,1.01,-0.92,1.01,-1.00,-1.28,-1.39,-1.92,-1.92,-1.93
99.26,-0.90,1.03,-0.90,1.03,-1.03,-1.33,-1.45,-1.92,-1.92,-1.93
100.25,-0.88,1.05,-0.88,1.05,-1.05,-1.38,-1.50,-1.93,-1.92,-1.93
101.25,-0.86,1.07,-0.86,1.07,-1.08,-1.43,-1.56,-1.93,-1.93,-1.93
102.27,-0.83,1.10,-0.83,1.10,-1.11,-1.48,-1.62,-1.93,-1.94,-1.93
103.29,-0.81,1.12,-0.81,1.13,-1.14,-1.53,-1.68,-1.95,-1.95,-1.93
104.32,-0.78,1.16,-0.77,1.16,-1.18,-1.58,-1.74,-1.95,-1.95,-1.94
105.37,-0.74,1.20,-0.74,1.21,-1.21,-1.63,-1.79,-1.95,-1.95,-1.94
106.42,-0.69,1.26,-0.69,1.26,-1.25,-1.68,-1.85,-1.94,-1.94,-1.95
107.48,-0.64,1.31,-0.64,1.31,-1.30,-1.72,-1.90,-1.93,-1.94,-1.95
108.56,-0.60,1.36,-0.60,1.35,-1.34,-1.77,-1.96,-1.94,-1.94,-1.96
109.64,-0.58,1.38,-0.58,1.39,-1.38,-1.81,-2.01,-1.96,-1.96,-1.96
110.74,-0.56,1.41,-0.55,1.41,-1.42,-1.86,-2.06,-1.98,-1.97,-1.97
111.85,-0.53,1.44,-0.52,1.44,-1.46,-1.90,-2.11,-1.98,-1.98,-1.97
112.97,-0.49,1.48,-0.48,1.49,-1.49,-1.94,-2.15,-1.98,-1.98,-1.97
114.10,-0.44,1.53,-0.44,1.53,-1.53,-1.98,-2.19,-1.97,-1.97,-1.97
115.24,-0.40,1.57,-0.40,1.57,-1.56,-2.03,-2.23,-1.96,-1.97,-1.97
116.39,-0.37,1.60,-0.37,1.60,-1.60,-2.07,-2.27,-1.97,-1.96,-1.97
117.55,-0.34,1.62,-0.33,1.63,-1.63,-2.10,-2.30,-1.97,-1.96,-1.96
118.73,-0.29,1.67,-0.29,1.67,-1.67,-2.14,-2.33,-1.96,-1.96,-1.96
119.92,-0.24,1.71,-0.24,1.70,-1.70,-2.18,-2.35,-1.94,-1.95,-1.95
121.12,-0.20,1.74,-0.20,1.74,-1.73,-2.22,-2.37,-1.93,-1.94,-1.94
122.33,-0.17,1.75,-0.16,1.76,-1.77,-2.25,-2.39,-1.94,-1.93,-1.92
123.55,-0.12,1.79,-0.11,1.80,-1.80,-2.28,-2.40,-1.92,-1.91,-1.91
124.79,-0.06,1.84,-0.06,1.84,-1.84,-2.32,-2.40,-1.90,-1.90,-1.90
126.03,0.00,1.88,-0.01,1.87,-1.87,-2.35,-2.41,-1.87,-1.88,-1.88
127.29,0.03,1.90,0.04,1.91,-1.91,-2.38,-2.40,-1.88,-1.87,-1.87
128.57,0.08,1.93,0.09,1.95,-1.95,-2.41,-2.40,-1.86,-1.85,-1.85
129.85,0.15,1.99,0.15,1.98,-1.98,-2.43,-2.39,-1.83,-1.83,-1.84
131.15,0.21,2.03,0.20,2.02,-2.02,-2.46,-2.37,-1.80,-1.81,-1.82
132.46,0.24,2.05,0.25,2.06,-2.05,-2.49,-2.35,-1.81,-1.80,-1.81
133.79,0.28,2.08,0.28,2.08,-2.08,-2.51,-2.33,-1.80,-1.80,-1.80
135.12,0.32,2.11,0.32,2.11,-2.11,-2.53,-2.30,-1.79,-1.79,-1.79
136.48,0.36,2.14,0.36,2.14,-2.15,-2.55,-2.27,-1.78,-1.78,-1.78
137.84,0.40,2.17,0.40,2.17,-2.18,-2.57,-2.24,-1.78,-1.78,-1.77
139.22,0.44,2.21,0.44,2.21,-2.22,-2.59,-2.20,-1.78,-1.78,-1.77
140.61,0.48,2.24,0.49,2.25,-2.26,-2.61,-2.16,-1.78,-1.77,-1.76
142.02,0.55,2.31,0.54,2.30,-2.30,-2.62,-2.12,-1.75,-1.76,-1.76
143.44,0.59,2.34,0.59,2.35,-2.34,-2.64,-2.07,-1.75,-1.75,-1.75
144.87,0.64,2.39,0.64,2.39,-2.38,-2.65,-2.03,-1.74,-1.74,-1.75
146.32,0.68,2.43,0.68,2.43,-2.42,-2.66,-1.98,-1.74,-1.74,-1.75
147.78,0.72,2.46,0.72,2.47,-2.47,-2.67,-1.93,-1.74,-1.74,-1.74
149.26,0.76,2.50,0.77,2.51,-2.51,-2.68,-1.88,-1.74,-1.74,-1.74
150.75,0.81,2.55,0.80,2.54,-2.55,-2.69,-1.83,-1.74,-1.74,-1.74
152.26,0.84,2.58,0.84,2.58,-2.59,-2.69,-1.78,-1.75,-1.75,-1.74
153.78,0.88,2.62,0.89,2.62,-2.63,-2.69,-1.73,-1.75,-1.75,-1.74
155.32,0.93,2.66,0.93,2.67,-2.68,-2.69,-1.68,-1.74,-1.74,-1.73
156.88,0.99,2.72,0.99,2.72,-2.71,-2.70,-1.63,-1.72,-1.73,-1.73
158.44,1.03,2.76,1.04,2.77,-2.75,-2.69,-1.58,-1.72,-1.71,-1.73
160.03,1.08,2.81,1.07,2.80,-2.78,-2.69,-1.53,-1.70,-1.71,-1.73
161.63,1.10,2.82,1.10,2.82,-2.81,-2.69,-1.48,-1.71,-1.71,-1.72
163.24,1.11,2.83,1.12,2.84,-2.84,-2.68,-1.43,-1.73,-1.72,-1.72
164.88,1.14,2.86,1.14,2.85,-2.87,-2.67,-1.38,-1.73,-1.73,-1.72
166.53,1.16,2.87,1.17,2.88,-2.90,-2.66,-1.33,-1.74,-1.73,-1.71
168.19,1.20,2.91,1.21,2.92,-2.93,-2.65,-1.28,-1.72,-1.72,-1.71
169.87,1.25,2.96,1.25,2.95,-2.95,-2.64,-1.23,-1.70,-1.71,-1.71
171.57,1.29,2.99,1.29,2.99,-2.98,-2.62,-1.18,-1.69,-1.69,-1.70
173.29,1.32,3.01,1.33,3.02,-3.01,-2.60,-1.14,-1.69,-1.68,-1.69
175.02,1.36,3.04,1.36,3.04,-3.04,-2.59,-1.09,-1.67,-1.68,-1.68
176.77,1.39,3.07,1.39,3.06,-3.07,-2.56,-1.05,-1.67,-1.68,-1.68
178.54,1.41,3.07,1.42,3.08,-3.09,-2.54,-1.00,-1.68,-1.67,-1.66
180.32,1.44,3.09,1.45,3.10,-3.11,-2.52,-0.96,-1.67,-1.66,-1.65
182.13,1.48,3.12,1.49,3.12,-3.13,-2.49,-0.92,-1.65,-1.64,-1.64
183.95,1.53,3.16,1.52,3.15,-3.15,-2.46,-0.88,-1.61,-1.62,-1.63
185.79,1.55,3.16,1.55,3.17,-3.16,-2.43,-0.84,-1.60,-1.60,-1.61
187.65,1.56,3.16,1.57,3.17,-3.16,-2.40,-0.80,-1.60,-1.59,-1.60
189.52,1.57,3.16,1.57,3.16,-3.15,-2.36,-0.76,-1.58,-1.58,-1.59
191.42,1.56,3.14,1.56,3.14,-3.14,-2.32,-0.72,-1.58,-1.58,-1.58
193.33,1.55,3.12,1.55,3.12,-3.12,-2.28,-0.68,-1.56,-1.57,-1.57
195.27,1.52,3.08,1.52,3.08,-3.08,-2.24,-0.64,-1.56,-1.56,-1.56
197.22,1.49,3.04,1.49,3.04,-3.04,-2.19,-0.61,-1.55,-1.55,-1.55
199.19,1.44,2.98,1.44,2.99,-2.99,-2.14,-0.57,-1.55,-1.55,-1.54
201.18,1.39,2.93,1.39,2.93,-2.94,-2.09,-0.54,-1.55,-1.54,-1.54
203.19,1.33,2.86,1.33,2.87,-2.87,-2.03,-0.51,-1.54,-1.54,-1.53
205.23,1.27,2.80,1.27,2.80,-2.80,-1.97,-0.48,-1.52,-1.53,-1.53
207.28,1.19,2.72,1.19,2.72,-2.71,-1.91,-0.45,-1.52,-1.52,-1.53
209.35,1.10,2.62,1.10,2.63,-2.62,-1.84,-0.42,-1.52,-1.51,-1.52
211.44,1.00,2.52,1.00,2.52,-2.52,-1.77,-0.39,-1.51,-1.52,-1.52
213.56,0.88,2.40,0.88,2.39,-2.40,-1.69,-0.36,-1.52,-1.53,-1.52
215.69,0.74,2.25,0.74,2.26,-2.27,-1.61,-0.33,-1.53,-1.53,-1.51
217.85,0.59,2.10,0.61,2.13,-2.13,-1.52,-0.31,-1.53,-1.51,-1.51
220.03,0.48,1.99,0.47,1.98,-1.96,-1.44,-0.29,-1.48,-1.49,-1.51
222.23,0.33,1.84,0.31,1.82,-1.79,-1.34,-0.26,-1.46,-1.48,-1.51
224.45,0.11,1.62,0.11,1.62,-1.60,-1.24,-0.24,-1.49,-1.49,-1.51
226.70,-0.11,1.40,-0.11,1.40,-1.41,-1.13,-0.22,-1.52,-1.52,-1.51
228.96,-0.36,1.15,-0.32,1.19,-1.21,-1.01,-0.20,-1.56,-1.53,-1.51
231.25,-0.52,0.99,-0.54,0.97,-1.00,-0.89,-0.19,-1.51,-1.53,-1.51
233.57,-0.73,0.79,-0.75,0.77,-0.78,-0.76,-0.17,-1.50,-1.52,-1.52
235.90,-1.00,0.52,-0.97,0.56,-0.55,-0.62,-0.16,-1.55,-1.52,-1.52
238.26,-1.18,0.35,-1.20,0.33,-0.32,-0.48,-0.15,-1.50,-1.52,-1.53
240.64,-1.44,0.09,-1.42,0.11,-0.09,-0.33,-0.14,-1.53,-1.52,-1.53
243.05,-1.64,-0.10,-1.66,-0.12,0.13,-0.17,-0.13,-1.50,-1.52,-1.54
245.48,-1.90,-0.35,-1.90,-0.36,0.36,0.00,-0.13,-1.53,-1.54,-1.55
247.93,-2.18,-0.63,-2.15,-0.60,0.59,0.17,-0.12,-1.58,-1.56,-1.55
250.41,-2.38,-0.82,-2.40,-0.84,0.82,0.36,-0.12,-1.56,-1.58,-1.56
252.92,-2.64,-1.08,-2.61,-1.05,1.04,0.55,-0.12,-1.59,-1.57,-1.56
255.45,-2.82,-1.25,-2.82,-1.25,1.26,0.74,-0.12,-1.56,-1.56,-1.57
258.00,-3.00,-1.43,-3.02,-1.45,1.46,0.94,-0.13,-1.53,-1.56,-1.57
260.58,-3.23,-1.65,-3.21,-1.63,1.65,1.14,-0.13,-1.58,-1.56,-1.58
263.19,-3.39,-1.81,-3.40,-1.82,1.82,1.34,-0.14,-1.57,-1.58,-1.58
265.82,-3.58,-2.00,-3.56,-1.98,1.97,1.54,-0.15,-1.61,-1.60,-1.58
268.48,-3.70,-2.11,-3.70,-2.11,2.09,1.73,-0.16,-1.61,-1.60,-1.59
271.16,-3.79,-2.20,-3.80,-2.21,2.19,1.90,-0.17,-1.60,-1.61,-1.59
273.87,-3.88,-2.28,-3.87,-2.27,2.26,2.07,-0.18,-1.62,-1.61,-1.60
276.61,-3.91,-2.30,-3.91,-2.30,2.29,2.20,-0.20,-1.61,-1.61,-1.61
279.38,-3.92,-2.31,-3.92,-2.31,2.30,2.32,-0.22,-1.62,-1.62,-1.61
282.17,-3.90,-2.28,-3.90,-2.28,2.27,2.40,-0.24,-1.63,-1.63,-1.62
284.99,-3.86,-2.23,-3.85,-2.22,2.22,2.45,-0.25,-1.64,-1.64,-1.63
287.84,-3.78,-2.14,-3.78,-2.14,2.14,2.46,-0.28,-1.64,-1.64,-1.64
290.72,-3.69,-2.04,-3.69,-2.04,2.04,2.45,-0.30,-1.64,-1.65,-1.65
293.63,-3.59,-1.93,-3.59,-1.93,1.93,2.39,-0.32,-1.66,-1.66,-1.66
296.57,-3.49,-1.82,-3.48,-1.81,1.81,2.32,-0.34,-1.68,-1.67,-1.67
299.53,-3.35,-1.67,-3.36,-1.68,1.68,2.20,-0.37,-1.67,-1.68,-1.68
302.53,-3.23,-1.54,-3.23,-1.54,1.54,2.07,-0.40,-1.68,-1.69,-1.69
305.55,-3.11,-1.41,-3.10,-1.40,1.41,1.91,-0.42,-1.70,-1.69,-1.70
308.61,-2.98,-1.27,-2.98,-1.27,1.28,1.75,-0.45,-1.70,-1.70,-1.71
311.69,-2.85,-1.13,-2.87,-1.14,1.15,1.57,-0.48,-1.69,-1.71,-1.72
314.81,-2.77,-1.04,-2.76,-1.03,1.03,1.39,-0.51,-1.74,-1.73,-1.73
317.96,-2.67,-0.93,-2.66,-0.92,0.91,1.20,-0.54,-1.75,-1.74,-1.74
321.14,-2.55,-0.81,-2.55,-0.81,0.80,1.02,-0.57,-1.75,-1.75,-1.74
324.35,-2.44,-0.69,-2.44,-0.69,0.70,0.84,-0.60,-1.74,-1.75,-1.75
327.59,-2.34,-0.59,-2.34,-0.59,0.59,0.66,-0.63,-1.74,-1.75,-1.75
330.87,-2.26,-0.50,-2.25,-0.49,0.50,0.49,-0.67,-1.76,-1.75,-1.76
334.18,-2.16,-0.40,-2.16,-0.40,0.40,0.33,-0.70,-1.76,-1.76,-1.76
337.52,-2.07,-0.31,-2.07,-0.31,0.31,0.17,-0.73,-1.76,-1.76,-1.76
340.90,-1.99,-0.22,-1.99,-0.22,0.22,0.02,-0.77,-1.77,-1.77,-1.77
344.30,-1.91,-0.14,-1.91,-0.14,0.14,-0.12,-0.80,-1.77,-1.77,-1.77
347.75,-1.83,-0.06,-1.82,-0.05,0.06,-0.26,-0.84,-1.77,-1.77,-1.77
351.23,-1.74,0.03,-1.74,0.03,-0.03,-0.38,-0.88,-1.76,-1.77,-1.77
354.74,-1.67,0.10,-1.67,0.10,-0.11,-0.50,-0.92,-1.77,-1.77,-1.77
358.28,-1.59,0.18,-1.59,0.18,-0.19,-0.62,-0.95,-1.78,-1.77,-1.77
361.87,-1.51,0.26,-1.50,0.27,-0.27,-0.72,-0.99,-1.78,-1.77,-1.77
365.49,-1.41,0.36,-1.42,0.35,-0.36,-0.82,-1.03,-1.76,-1.77,-1.77
369.14,-1.33,0.44,-1.33,0.44,-0.44,-0.92,-1.07,-1.77,-1.77,-1.77
372.83,-1.25,0.51,-1.24,0.53,-0.53,-1.01,-1.11,-1.78,-1.76,-1.76
376.56,-1.14,0.62,-1.15,0.62,-0.62,-1.09,-1.15,-1.75,-1.76,-1.76
380.33,-1.06,0.71,-1.06,0.71,-0.70,-1.17,-1.20,-1.76,-1.76,-1.77
384.13,-0.98,0.79,-0.97,0.80,-0.79,-1.25,-1.24,-1.77,-1.77,-1.77
387.97,-0.89,0.88,-0.89,0.88,-0.88,-1.32,-1.28,-1.77,-1.77,-1.77
391.85,-0.81,0.96,-0.80,0.97,-0.97,-1.39,-1.32,-1.78,-1.77,-1.77
395.77,-0.72,1.05,-0.72,1.05,-1.05,-1.45,-1.37,-1.77,-1.77,-1.77
399.73,-0.64,1.14,-0.64,1.14,-1.14,-1.51,-1.41,-1.77,-1.77,-1.78
403.72,-0.56,1.22,-0.56,1.23,-1.22,-1.57,-1.46,-1.78,-1.78,-1.78
407.76,-0.48,1.31,-0.48,1.30,-1.30,-1.62,-1.50,-1.78,-1.78,-1.79
411.84,-0.42,1.37,-0.41,1.38,-1.38,-1.68,-1.54,-1.80,-1.80,-1.79
415.96,-0.35,1.45,-0.34,1.46,-1.46,-1.73,-1.59,-1.81,-1.81,-1.80
420.12,-0.28,1.53,-0.28,1.54,-1.54,-1.77,-1.63,-1.82,-1.82,-1.81
424.32,-0.20,1.63,-0.21,1.62,-1.62,-1.82,-1.68,-1.82,-1.83,-1.83
428.56,-0.15,1.69,-0.14,1.70,-1.70,-1.86,-1.72,-1.84,-1.84,-1.84
432.85,-0.09,1.76,-0.08,1.77,-1.77,-1.91,-1.76,-1.86,-1.85,-1.85
437.18,-0.02,1.85,-0.02,1.84,-1.85,-1.95,-1.81,-1.86,-1.87,-1.87
