frequency,raw,error,smoothed,error_smoothed,equalization,parametric_eq,fixed_band_eq,equalized_raw,equalized_smoothed,target
20.00,5.41,-0.68,5.41,-0.67,0.67,0.38,-0.01,6.08,6.08,6.09
20.20,5.43,-0.64,5.43,-0.64,0.64,0.38,-0.01,6.07,6.07,6.07
20.40,5.45,-0.61,5.45,-0.61,0.61,0.37,-0.01,6.06,6.06,6.06
20.61,5.47,-0.59,5.47,-0.58,0.59,0.37,-0.01,6.05,6.05,6.06
20.81,5.48,-0.56,5.48,-0.55,0.56,0.36,-0.01,6.04,6.04,6.04
21.02,5.50,-0.53,5.50,-0.53,0.53,0.35,-0.00,6.03,6.03,6.03
21.23,5.52,-0.50,5.52,-0.50,0.51,0.35,-0.00,6.02,6.02,6.02
21.44,5.54,-0.49,5.54,-0.48,0.48,0.34,0.00,6.02,6.02,6.03
21.66,5.55,-0.47,5.55,-0.46,0.46,0.33,0.00,6.01,6.01,6.02
21.87,5.57,-0.43,5.57,-0.44,0.43,0.33,0.01,6.00,6.00,6.00
22.09,5.59,-0.40,5.59,-0.41,0.41,0.32,0.01,6.00,6.00,5.99
22.31,5.61,-0.38,5.61,-0.39,0.39,0.31,0.01,6.00,5.99,5.99
22.54,5.62,-0.36,5.62,-0.37,0.36,0.31,0.01,5.98,5.99,5.98
22.76,5.64,-0.35,5.64,-0.35,0.34,0.30,0.02,5.98,5.98,5.99
22.99,5.66,-0.32,5.66,-0.32,0.32,0.29,0.02,5.98,5.98,5.98
23.22,5.68,-0.29,5.68,-0.30,0.30,0.28,0.02,5.98,5.98,5.97
23.45,5.69,-0.28,5.69,-0.28,0.28,0.28,0.03,5.97,5.98,5.97
23.69,5.71,-0.26,5.71,-0.26,0.27,0.27,0.03,5.98,5.98,5.97
23.92,5.72,-0.25,5.72,-0.25,0.25,0.26,0.03,5.97,5.97,5.97
24.16,5.74,-0.23,5.74,-0.24,0.23,0.25,0.04,5.97,5.97,5.97
24.40,5.75,-0.23,5.75,-0.22,0.22,0.24,0.04,5.97,5.97,5.98
24.65,5.77,-0.21,5.77,-0.21,0.20,0.24,0.04,5.97,5.97,5.98
24.89,5.78,-0.19,5.78,-0.19,0.18,0.23,0.05,5.96,5.96,5.97
25.14,5.80,-0.16,5.80,-0.16,0.16,0.22,0.05,5.96,5.96,5.96
25.39,5.81,-0.15,5.81,-0.14,0.15,0.21,0.05,5.96,5.96,5.96
25.65,5.83,-0.12,5.83,-0.12,0.13,0.20,0.06,5.96,5.95,5.94
25.91,5.84,-0.10,5.84,-0.10,0.11,0.19,0.06,5.95,5.95,5.94
26.16,5.86,-0.09,5.86,-0.09,0.09,0.18,0.06,5.95,5.94,5.95
26.43,5.87,-0.07,5.87,-0.08,0.07,0.17,0.06,5.94,5.94,5.94
26.69,5.88,-0.06,5.88,-0.06,0.05,0.16,0.07,5.93,5.94,5.94
26.96,5.90,-0.04,5.90,-0.04,0.04,0.15,0.07,5.94,5.94,5.94
27.23,5.91,-0.02,5.91,-0.02,0.02,0.14,0.07,5.93,5.94,5.93
27.50,5.93,0.00,5.93,-0.00,0.01,0.13,0.07,5.94,5.94,5.93
27.77,5.94,0.00,5.94,0.01,-0.00,0.12,0.07,5.94,5.94,5.94
28.05,5.95,0.01,5.95,0.02,-0.02,0.10,0.07,5.93,5.93,5.94
28.33,5.96,0.03,5.96,0.02,-0.03,0.09,0.07,5.93,5.93,5.93
28.62,5.97,0.04,5.97,0.04,-0.04,0.08,0.07,5.93,5.93,5.93
28.90,5.99,0.05,5.99,0.05,-0.05,0.07,0.06,5.94,5.94,5.94
29.19,6.00,0.06,6.00,0.06,-0.06,0.06,0.06,5.94,5.94,5.94
29.48,6.01,0.07,6.01,0.07,-0.07,0.04,0.06,5.94,5.94,5.94
29.78,6.02,0.08,6.02,0.08,-0.08,0.03,0.05,5.94,5.94,5.94
30.08,6.03,0.07,6.03,0.08,-0.09,0.02,0.05,5.94,5.94,5.96
30.38,6.04,0.10,6.04,0.09,-0.10,0.00,0.04,5.94,5.94,5.94
30.68,6.05,0.11,6.05,0.11,-0.11,-0.01,0.03,5.94,5.94,5.94
30.99,6.06,0.12,6.06,0.12,-0.12,-0.02,0.02,5.94,5.94,5.94
31.30,6.07,0.13,6.07,0.13,-0.13,-0.04,0.01,5.94,5.94,5.94
31.61,6.07,0.13,6.07,0.14,-0.14,-0.05,0.00,5.93,5.93,5.94
31.93,6.08,0.15,6.08,0.15,-0.15,-0.07,-0.01,5.93,5.93,5.92
32.24,6.08,0.16,6.08,0.16,-0.16,-0.08,-0.02,5.92,5.92,5.92
32.57,6.09,0.18,6.09,0.17,-0.17,-0.10,-0.04,5.92,5.92,5.91
32.89,6.09,0.18,6.09,0.18,-0.18,-0.12,-0.05,5.91,5.91,5.91
33.22,6.09,0.18,6.09,0.19,-0.19,-0.13,-0.07,5.90,5.90,5.91
33.55,6.10,0.20,6.10,0.20,-0.20,-0.15,-0.09,5.90,5.89,5.90
33.89,6.10,0.21,6.10,0.21,-0.21,-0.17,-0.10,5.89,5.89,5.89
34.23,6.10,0.22,6.10,0.22,-0.22,-0.18,-0.12,5.88,5.88,5.88
34.57,6.11,0.23,6.11,0.24,-0.23,-0.20,-0.15,5.87,5.88,5.87
34.92,6.12,0.26,6.11,0.25,-0.25,-0.22,-0.17,5.87,5.87,5.86
35.27,6.12,0.25,6.12,0.26,-0.26,-0.24,-0.19,5.86,5.86,5.87
35.62,6.11,0.27,6.11,0.27,-0.27,-0.26,-0.21,5.84,5.85,5.84
35.97,6.11,0.28,6.11,0.28,-0.28,-0.28,-0.24,5.83,5.83,5.83
36.33,6.11,0.29,6.11,0.29,-0.29,-0.30,-0.26,5.82,5.82,5.82
36.70,6.10,0.29,6.10,0.30,-0.30,-0.32,-0.29,5.80,5.81,5.81
37.06,6.10,0.31,6.10,0.31,-0.31,-0.34,-0.32,5.79,5.79,5.79
37.43,6.10,0.32,6.09,0.32,-0.32,-0.36,-0.34,5.78,5.77,5.78
37.81,6.09,0.33,6.09,0.33,-0.34,-0.38,-0.37,5.75,5.76,5.76
38.19,6.09,0.35,6.09,0.35,-0.36,-0.40,-0.40,5.73,5.74,5.74
38.57,6.10,0.37,6.09,0.37,-0.38,-0.43,-0.43,5.72,5.72,5.73
38.95,6.10,0.40,6.10,0.40,-0.40,-0.45,-0.46,5.70,5.70,5.70
39.34,6.10,0.42,6.10,0.42,-0.42,-0.47,-0.49,5.68,5.68,5.68
39.74,6.11,0.45,6.11,0.45,-0.44,-0.50,-0.52,5.67,5.66,5.66
40.14,6.11,0.47,6.11,0.47,-0.47,-0.52,-0.56,5.64,5.64,5.64
40.54,6.11,0.49,6.11,0.49,-0.49,-0.55,-0.59,5.62,5.62,5.62
40.94,6.11,0.51,6.11,0.51,-0.51,-0.57,-0.62,5.60,5.60,5.60
41.35,6.11,0.53,6.11,0.53,-0.53,-0.60,-0.66,5.58,5.58,5.58
41.76,6.11,0.55,6.11,0.55,-0.55,-0.63,-0.69,5.56,5.56,5.56
42.18,6.11,0.56,6.11,0.57,-0.57,-0.65,-0.73,5.54,5.54,5.55
42.60,6.12,0.60,6.12,0.59,-0.59,-0.68,-0.76,5.53,5.52,5.52
43.03,6.12,0.62,6.12,0.62,-0.62,-0.71,-0.80,5.50,5.50,5.50
43.46,6.12,0.64,6.12,0.65,-0.64,-0.74,-0.84,5.48,5.48,5.48
43.90,6.13,0.68,6.13,0.67,-0.67,-0.77,-0.88,5.46,5.45,5.45
44.33,6.13,0.70,6.13,0.70,-0.70,-0.80,-0.91,5.43,5.43,5.43
44.78,6.14,0.73,6.14,0.73,-0.73,-0.83,-0.95,5.40,5.40,5.41
45.23,6.15,0.76,6.15,0.77,-0.77,-0.86,-0.99,5.38,5.38,5.39
45.68,6.16,0.81,6.16,0.81,-0.81,-0.89,-1.04,5.35,5.35,5.35
46.13,6.17,0.86,6.17,0.85,-0.85,-0.93,-1.08,5.32,5.32,5.31
46.60,6.18,0.90,6.18,0.90,-0.89,-0.96,-1.12,5.29,5.29,5.28
47.06,6.19,0.94,6.19,0.94,-0.94,-0.99,-1.16,5.25,5.25,5.25
47.53,6.21,0.99,6.21,0.99,-0.99,-1.03,-1.20,5.22,5.22,5.22
48.01,6.22,1.04,6.22,1.04,-1.04,-1.06,-1.25,5.18,5.18,5.17
48.49,6.23,1.08,6.23,1.09,-1.09,-1.10,-1.29,5.14,5.14,5.14
48.97,6.25,1.15,6.25,1.14,-1.14,-1.13,-1.34,5.11,5.11,5.10
49.46,6.26,1.19,6.26,1.19,-1.19,-1.17,-1.38,5.07,5.07,5.07
49.96,6.28,1.26,6.28,1.25,-1.24,-1.21,-1.43,5.04,5.04,5.02
50.46,6.29,1.29,6.29,1.29,-1.29,-1.25,-1.47,5.00,5.00,5.00
50.96,6.31,1.34,6.31,1.34,-1.34,-1.28,-1.52,4.97,4.97,4.97
51.47,6.32,1.38,6.32,1.38,-1.39,-1.32,-1.57,4.93,4.93,4.93
51.99,6.33,1.43,6.33,1.43,-1.43,-1.36,-1.61,4.90,4.90,4.90
52.51,6.35,1.48,6.35,1.48,-1.48,-1.40,-1.66,4.87,4.87,4.87
53.03,6.36,1.52,6.36,1.52,-1.52,-1.44,-1.70,4.84,4.84,4.84
53.56,6.37,1.57,6.37,1.56,-1.57,-1.49,-1.75,4.80,4.80,4.80
54.10,6.37,1.60,6.37,1.61,-1.61,-1.53,-1.79,4.76,4.76,4.76
54.64,6.38,1.65,6.38,1.66,-1.65,-1.57,-1.84,4.73,4.73,4.73
55.18,6.39,1.71,6.39,1.70,-1.70,-1.61,-1.88,4.69,4.69,4.68
55.74,6.40,1.75,6.40,1.74,-1.74,-1.66,-1.93,4.66,4.66,4.65
56.29,6.40,1.77,6.40,1.78,-1.78,-1.70,-1.97,4.62,4.62,4.63
56.86,6.41,1.81,6.41,1.82,-1.82,-1.74,-2.01,4.59,4.59,4.60
57.42,6.42,1.86,6.42,1.85,-1.85,-1.79,-2.05,4.57,4.57,4.56
58.00,6.44,1.91,6.44,1.90,-1.89,-1.83,-2.08,4.55,4.55,4.53
58.58,6.45,1.92,6.45,1.93,-1.92,-1.88,-2.12,4.53,4.53,4.52
59.16,6.45,1.96,6.45,1.95,-1.95,-1.92,-2.16,4.50,4.50,4.49
59.76,6.44,1.98,6.44,1.98,-1.99,-1.97,-2.19,4.45,4.46,4.46
60.35,6.44,2.02,6.44,2.01,-2.02,-2.01,-2.22,4.42,4.41,4.42
60.96,6.43,2.05,6.43,2.05,-2.06,-2.05,-2.25,4.37,4.37,4.38
61.57,6.42,2.09,6.42,2.09,-2.10,-2.10,-2.27,4.32,4.33,4.33
62.18,6.42,2.14,6.42,2.14,-2.14,-2.14,-2.30,4.28,4.28,4.28
62.80,6.42,2.18,6.42,2.18,-2.18,-2.19,-2.32,4.24,4.24,4.24
63.43,6.42,2.23,6.42,2.22,-2.22,-2.23,-2.34,4.20,4.20,4.19
64.07,6.42,2.26,6.42,2.26,-2.26,-2.28,-2.36,4.16,4.16,4.16
64.71,6.42,2.30,6.42,2.30,-2.30,-2.32,-2.38,4.12,4.12,4.12
65.35,6.42,2.34,6.42,2.33,-2.34,-2.36,-2.39,4.08,4.08,4.08
66.01,6.42,2.37,6.42,2.37,-2.38,-2.40,-2.41,4.04,4.04,4.05
66.67,6.42,2.40,6.42,2.41,-2.41,-2.45,-2.42,4.01,4.01,4.02
67.33,6.42,2.45,6.42,2.45,-2.45,-2.49,-2.43,3.97,3.97,3.97
68.01,6.42,2.49,6.42,2.49,-2.49,-2.53,-2.44,3.93,3.93,3.93
68.69,6.42,2.53,6.42,2.53,-2.53,-2.57,-2.44,3.89,3.89,3.89
69.37,6.42,2.57,6.42,2.57,-2.57,-2.60,-2.45,3.85,3.85,3.85
70.07,6.42,2.60,6.42,2.60,-2.61,-2.64,-2.46,3.81,3.81,3.82
70.77,6.42,2.64,6.42,2.64,-2.65,-2.68,-2.46,3.77,3.77,3.78
71.48,6.42,2.69,6.42,2.69,-2.69,-2.71,-2.47,3.73,3.73,3.73
72.19,6.42,2.73,6.42,2.73,-2.73,-2.75,-2.47,3.69,3.69,3.69
72.91,6.42,2.77,6.42,2.77,-2.77,-2.78,-2.48,3.65,3.65,3.65
73.64,6.42,2.82,6.42,2.82,-2.81,-2.82,-2.48,3.61,3.61,3.60
74.38,6.42,2.86,6.42,2.85,-2.85,-2.85,-2.49,3.57,3.57,3.56
75.12,6.42,2.88,6.42,2.89,-2.88,-2.88,-2.50,3.54,3.54,3.54
75.87,6.42,2.91,6.42,2.91,-2.92,-2.91,-2.50,3.50,3.50,3.51
76.63,6.42,2.94,6.42,2.95,-2.95,-2.94,-2.51,3.47,3.47,3.47
77.40,6.42,2.98,6.42,2.98,-2.99,-2.96,-2.52,3.43,3.44,3.44
78.17,6.43,3.02,6.43,3.01,-3.02,-2.99,-2.53,3.41,3.41,3.41
78.95,6.44,3.05,6.44,3.05,-3.05,-3.02,-2.54,3.39,3.39,3.39
79.74,6.44,3.08,6.44,3.08,-3.07,-3.04,-2.56,3.36,3.37,3.36
80.54,6.44,3.11,6.44,3.11,-3.10,-3.06,-2.57,3.34,3.34,3.33
81.35,6.43,3.13,6.43,3.13,-3.13,-3.09,-2.59,3.30,3.30,3.30
82.16,6.42,3.14,6.42,3.15,-3.15,-3.11,-2.61,3.27,3.27,3.28
82.98,6.40,3.16,6.40,3.16,-3.16,-3.13,-2.63,3.24,3.24,3.24
83.81,6.38,3.18,6.38,3.18,-3.18,-3.15,-2.65,3.20,3.20,3.20
84.65,6.36,3.19,6.36,3.19,-3.19,-3.17,-2.67,3.17,3.17,3.17
85.50,6.34,3.21,6.34,3.20,-3.20,-3.19,-2.70,3.14,3.14,3.13
86.35,6.31,3.21,6.31,3.21,-3.21,-3.21,-2.73,3.10,3.10,3.10
87.22,6.28,3.21,6.28,3.21,-3.21,-3.23,-2.76,3.07,3.07,3.07
88.09,6.25,3.22,6.25,3.22,-3.22,-3.25,-2.79,3.03,3.03,3.03
88.97,6.22,3.22,6.22,3.22,-3.22,-3.26,-2.83,3.00,3.00,3.00
89.86,6.19,3.23,6.19,3.23,-3.23,-3.28,-2.86,2.96,2.96,2.96
90.76,6.16,3.24,6.16,3.24,-3.24,-3.30,-2.90,2.92,2.93,2.92
91.66,6.14,3.25,6.13,3.25,-3.25,-3.32,-2.94,2.89,2.89,2.89
92.58,6.11,3.26,6.11,3.26,-3.26,-3.33,-2.98,2.85,2.85,2.85
93.51,6.09,3.27,6.10,3.28,-3.29,-3.35,-3.03,2.80,2.81,2.82
94.44,6.09,3.31,6.08,3.30,-3.31,-3.37,-3.08,2.78,2.77,2.78
95.39,6.08,3.34,6.08,3.34,-3.35,-3.39,-3.12,2.73,2.73,2.74
96.34,6.07,3.38,6.08,3.38,-3.39,-3.40,-3.17,2.68,2.69,2.69
97.30,6.08,3.42,6.08,3.43,-3.43,-3.42,-3.23,2.65,2.65,2.65
98.28,6.09,3.47,6.09,3.48,-3.47,-3.44,-3.28,2.62,2.62,2.62
99.26,6.10,3.53,6.10,3.52,-3.51,-3.46,-3.34,2.59,2.59,2.57
100.25,6.10,3.57,6.10,3.56,-3.55,-3.48,-3.39,2.55,2.55,2.53
101.25,6.10,3.58,6.10,3.59,-3.59,-3.50,-3.45,2.51,2.51,2.52
102.27,6.10,3.62,6.10,3.62,-3.62,-3.52,-3.51,2.48,2.48,2.48
103.29,6.10,3.66,6.10,3.65,-3.65,-3.54,-3.57,2.45,2.45,2.44
104.32,6.10,3.68,6.10,3.68,-3.69,-3.56,-3.63,2.41,2.41,2.42
105.37,6.10,3.71,6.10,3.71,-3.72,-3.58,-3.69,2.38,2.38,2.38
106.42,6.10,3.74,6.10,3.74,-3.75,-3.60,-3.75,2.35,2.35,2.36
107.48,6.10,3.78,6.10,3.78,-3.78,-3.62,-3.81,2.31,2.31,2.32
108.56,6.10,3.81,6.10,3.81,-3.82,-3.64,-3.87,2.28,2.28,2.29
109.64,6.11,3.86,6.11,3.85,-3.85,-3.66,-3.93,2.25,2.26,2.25
110.74,6.12,3.89,6.12,3.89,-3.89,-3.69,-3.99,2.23,2.23,2.23
111.85,6.12,3.93,6.12,3.93,-3.92,-3.71,-4.05,2.20,2.20,2.19
112.97,6.11,3.96,6.11,3.95,-3.95,-3.73,-4.10,2.16,2.16,2.15
114.10,6.09,3.96,6.09,3.97,-3.97,-3.76,-4.16,2.12,2.12,2.13
115.24,6.07,3.99,6.07,3.99,-3.99,-3.78,-4.21,2.08,2.08,2.08
116.39,6.05,4.02,6.05,4.01,-4.00,-3.81,-4.26,2.05,2.04,2.03
117.55,6.02,4.01,6.02,4.02,-4.01,-3.83,-4.30,2.01,2.01,2.01
118.73,5.99,4.03,5.99,4.02,-4.01,-3.86,-4.34,1.98,1.97,1.96
119.92,5.95,4.01,5.95,4.01,-4.01,-3.89,-4.38,1.94,1.94,1.94
121.12,5.91,4.00,5.92,4.01,-4.01,-3.91,-4.41,1.90,1.91,1.91
122.33,5.89,4.01,5.89,4.00,-4.01,-3.94,-4.45,1.88,1.88,1.88
123.55,5.86,4.01,5.86,4.00,-4.00,-3.97,-4.47,1.86,1.85,1.85
124.79,5.83,4.00,5.83,4.01,-4.01,-4.00,-4.49,1.82,1.82,1.82
126.03,5.79,4.01,5.80,4.01,-4.02,-4.03,-4.51,1.77,1.78,1.78
127.29,5.78,4.03,5.78,4.02,-4.04,-4.06,-4.53,1.74,1.74,1.75
128.57,5.76,4.04,5.77,4.05,-4.06,-4.09,-4.54,1.69,1.70,1.72
129.85,5.77,4.09,5.77,4.08,-4.09,-4.12,-4.54,1.67,1.67,1.68
131.15,5.77,4.13,5.77,4.13,-4.13,-4.15,-4.55,1.64,1.64,1.64
132.46,5.78,4.17,5.78,4.17,-4.16,-4.18,-4.55,1.62,1.62,1.60
133.79,5.78,4.21,5.78,4.21,-4.19,-4.21,-4.54,1.59,1.58,1.57
135.12,5.77,4.24,5.77,4.23,-4.22,-4.24,-4.54,1.55,1.55,1.53
136.48,5.76,4.24,5.76,4.25,-4.24,-4.27,-4.53,1.52,1.51,1.51
137.84,5.73,4.25,5.74,4.26,-4.26,-4.30,-4.51,1.47,1.48,1.48
139.22,5.71,4.27,5.71,4.26,-4.26,-4.33,-4.50,1.45,1.44,1.44
140.61,5.68,4.27,5.67,4.27,-4.26,-4.36,-4.49,1.42,1.41,1.41
142.02,5.63,4.25,5.64,4.26,-4.26,-4.40,-4.47,1.37,1.38,1.38
143.44,5.61,4.26,5.60,4.25,-4.25,-4.43,-4.45,1.36,1.35,1.35
144.87,5.57,4.23,5.57,4.24,-4.24,-4.46,-4.44,1.33,1.33,1.34
146.32,5.54,4.23,5.54,4.23,-4.23,-4.49,-4.42,1.31,1.31,1.31
147.78,5.51,4.22,5.51,4.22,-4.22,-4.52,-4.40,1.29,1.29,1.29
149.26,5.48,4.22,5.48,4.22,-4.22,-4.56,-4.39,1.26,1.26,1.26
150.75,5.45,4.22,5.45,4.22,-4.21,-4.59,-4.37,1.24,1.24,1.23
152.26,5.43,4.22,5.43,4.21,-4.22,-4.62,-4.36,1.21,1.21,1.21
153.78,5.41,4.22,5.41,4.22,-4.23,-4.65,-4.35,1.18,1.18,1.19
155.32,5.40,4.24,5.41,4.24,-4.26,-4.68,-4.34,1.14,1.15,1.16
156.88,5.42,4.28,5.41,4.28,-4.29,-4.71,-4.33,1.13,1.13,1.14
158.44,5.43,4.32,5.43,4.32,-4.33,-4.74,-4.32,1.10,1.11,1.11
160.03,5.46,4.38,5.45,4.37,-4.37,-4.78,-4.32,1.09,1.08,1.08
161.63,5.48,4.43,5.48,4.43,-4.42,-4.81,-4.32,1.05,1.05,1.05
163.24,5.50,4.49,5.51,4.49,-4.48,-4.84,-4.32,1.02,1.03,1.01
164.88,5.54,4.56,5.53,4.55,-4.54,-4.87,-4.33,1.00,0.99,0.98
166.53,5.56,4.61,5.56,4.61,-4.60,-4.90,-4.33,0.96,0.96,0.95
168.19,5.58,4.66,5.59,4.66,-4.66,-4.93,-4.35,0.91,0.92,0.92
169.87,5.62,4.73,5.61,4.72,-4.73,-4.95,-4.36,0.89,0.88,0.89
171.57,5.64,4.78,5.64,4.79,-4.80,-4.98,-4.38,0.84,0.85,0.86
173.29,5.68,4.86,5.68,4.86,-4.87,-5.01,-4.40,0.81,0.82,0.82
175.02,5.73,4.94,5.72,4.93,-4.94,-5.04,-4.42,0.79,0.79,0.79
176.77,5.77,5.02,5.77,5.01,-5.01,-5.06,-4.45,0.76,0.76,0.75
178.54,5.81,5.08,5.81,5.09,-5.08,-5.09,-4.48,0.72,0.73,0.73
180.32,5.85,5.16,5.85,5.16,-5.16,-5.12,-4.51,0.69,0.69,0.69
182.13,5.89,5.24,5.89,5.24,-5.23,-5.14,-4.55,0.66,0.66,0.65
183.95,5.93,5.31,5.93,5.31,-5.30,-5.17,-4.59,0.63,0.62,0.62
185.79,5.96,5.38,5.96,5.37,-5.37,-5.19,-4.64,0.59,0.59,0.58
187.65,5.98,5.43,5.98,5.44,-5.44,-5.21,-4.69,0.54,0.55,0.55
189.52,6.01,5.50,6.01,5.50,-5.50,-5.24,-4.74,0.51,0.51,0.51
191.42,6.04,5.56,6.04,5.55,-5.56,-5.26,-4.79,0.48,0.48,0.48
193.33,6.06,5.61,6.06,5.61,-5.62,-5.28,-4.85,0.44,0.44,0.45
195.27,6.08,5.66,6.08,5.66,-5.67,-5.30,-4.91,0.41,0.41,0.42
197.22,6.10,5.72,6.10,5.72,-5.71,-5.32,-4.97,0.39,0.39,0.38
199.19,6.12,5.76,6.12,5.76,-5.76,-5.34,-5.03,0.36,0.36,0.36
201.18,6.13,5.80,6.13,5.80,-5.79,-5.35,-5.10,0.34,0.34,0.33
203.19,6.13,5.82,6.13,5.82,-5.82,-5.37,-5.17,0.31,0.31,0.31
205.23,6.13,5.85,6.13,5.84,-5.84,-5.38,-5.24,0.29,0.29,0.28
207.28,6.12,5.85,6.12,5.86,-5.86,-5.40,-5.31,0.26,0.26,0.27
209.35,6.11,5.87,6.11,5.87,-5.87,-5.41,-5.38,0.24,0.24,0.24
211.44,6.09,5.88,6.09,5.87,-5.87,-5.42,-5.45,0.22,0.22,0.21
213.56,6.07,5.87,6.07,5.87,-5.88,-5.44,-5.52,0.19,0.19,0.20
215.69,6.04,5.86,6.04,5.87,-5.88,-5.45,-5.59,0.16,0.16,0.18
217.85,6.01,5.86,6.02,5.86,-5.87,-5.46,-5.66,0.14,0.15,0.15
220.03,6.00,5.87,5.99,5.86,-5.86,-5.46,-5.73,0.14,0.13,0.13
222.23,5.97,5.86,5.97,5.86,-5.85,-5.47,-5.80,0.12,0.12,0.11
224.45,5.94,5.85,5.94,5.84,-5.83,-5.48,-5.86,0.11,0.10,0.09
226.70,5.90,5.82,5.89,5.82,-5.81,-5.48,-5.92,0.09,0.08,0.08
228.96,5.84,5.77,5.85,5.79,-5.78,-5.49,-5.97,0.06,0.07,0.07
231.25,5.81,5.76,5.80,5.75,-5.75,-5.49,-6.02,0.06,0.05,0.05
233.57,5.76,5.72,5.75,5.72,-5.72,-5.49,-6.07,0.04,0.03,0.04
235.90,5.70,5.68,5.71,5.69,-5.69,-5.49,-6.11,0.01,0.02,0.02
238.26,5.67,5.66,5.66,5.65,-5.66,-5.49,-6.14,0.01,0.01,0.01
240.64,5.63,5.61,5.63,5.62,-5.63,-5.49,-6.17,0.00,0.00,0.02
243.05,5.60,5.59,5.60,5.60,-5.60,-5.48,-6.19,-0.00,0.00,0.01
245.48,5.58,5.58,5.58,5.58,-5.58,-5.48,-6.20,0.00,0.00,-0.01
247.93,5.55,5.56,5.55,5.56,-5.55,-5.47,-6.20,-0.00,0.00,-0.01
250.41,5.53,5.53,5.53,5.53,-5.53,-5.47,-6.20,0.00,0.00,-0.00
252.92,5.50,5.50,5.50,5.50,-5.50,-5.46,-6.19,-0.00,0.00,0.00
255.45,5.48,5.48,5.48,5.48,-5.48,-5.45,-6.17,0.00,0.00,-0.00
258.00,5.45,5.45,5.45,5.45,-5.45,-5.44,-6.14,-0.00,-0.00,-0.00
260.58,5.42,5.43,5.42,5.42,-5.43,-5.43,-6.11,-0.01,-0.01,-0.01
263.19,5.39,5.39,5.39,5.39,-5.40,-5.41,-6.07,-0.01,-0.02,-0.00
265.82,5.35,5.36,5.36,5.37,-5.38,-5.40,-6.02,-0.03,-0.02,-0.01
268.48,5.34,5.34,5.34,5.35,-5.35,-5.38,-5.96,-0.01,-0.01,-0.00
271.16,5.33,5.34,5.32,5.32,-5.33,-5.37,-5.90,0.00,-0.01,-0.01
273.87,5.29,5.29,5.29,5.30,-5.30,-5.35,-5.84,-0.01,-0.00,-0.01
276.61,5.26,5.27,5.26,5.27,-5.26,-5.33,-5.77,-0.00,-0.00,-0.01
279.38,5.22,5.24,5.22,5.24,-5.22,-5.31,-5.69,-0.00,-0.00,-0.03
282.17,5.18,5.19,5.18,5.19,-5.18,-5.29,-5.62,-0.00,0.00,-0.01
284.99,5.14,5.14,5.13,5.14,-5.13,-5.26,-5.54,0.01,-0.01,-0.00
287.84,5.07,5.07,5.07,5.08,-5.09,-5.24,-5.45,-0.02,-0.01,0.00
290.72,5.02,5.03,5.02,5.03,-5.04,-5.22,-5.37,-0.02,-0.02,-0.01
293.63,4.98,4.99,4.98,4.98,-5.00,-5.19,-5.28,-0.02,-0.02,-0.01
296.57,4.95,4.94,4.95,4.95,-4.96,-5.16,-5.20,-0.01,-0.01,0.01
299.53,4.93,4.92,4.93,4.92,-4.92,-5.13,-5.11,0.01,0.00,0.00
302.53,4.91,4.90,4.91,4.90,-4.89,-5.11,-5.03,0.02,0.02,0.01
305.55,4.89,4.87,4.89,4.87,-4.86,-5.08,-4.94,0.03,0.03,0.02
308.61,4.86,4.83,4.86,4.84,-4.83,-5.04,-4.86,0.03,0.03,0.02
311.69,4.83,4.80,4.83,4.80,-4.80,-5.01,-4.77,0.03,0.04,0.03
314.81,4.81,4.77,4.80,4.76,-4.76,-4.98,-4.69,0.05,0.04,0.04
317.96,4.77,4.72,4.77,4.73,-4.73,-4.94,-4.61,0.04,0.04,0.05
321.14,4.74,4.69,4.74,4.69,-4.69,-4.91,-4.53,0.05,0.05,0.05
324.35,4.71,4.66,4.71,4.65,-4.65,-4.87,-4.46,0.06,0.05,0.05
327.59,4.68,4.60,4.68,4.62,-4.62,-4.84,-4.39,0.06,0.07,0.08
330.87,4.66,4.58,4.65,4.58,-4.58,-4.80,-4.32,0.08,0.08,0.07
334.18,4.63,4.56,4.63,4.54,-4.54,-4.76,-4.25,0.09,0.08,0.07
337.52,4.59,4.50,4.60,4.51,-4.51,-4.72,-4.18,0.08,0.09,0.09
340.90,4.57,4.47,4.57,4.47,-4.47,-4.68,-4.12,0.10,0.10,0.10
344.30,4.54,4.43,4.54,4.43,-4.44,-4.64,-4.06,0.10,0.10,0.11
347.75,4.52,4.41,4.52,4.41,-4.41,-4.60,-4.01,0.11,0.11,0.11
351.23,4.50,4.38,4.50,4.38,-4.38,-4.55,-3.96,0.12,0.12,0.12
354.74,4.49,4.35,4.49,4.35,-4.36,-4.51,-3.91,0.13,0.13,0.14
358.28,4.47,4.33,4.47,4.33,-4.34,-4.47,-3.86,0.13,0.14,0.14
361.87,4.46,4.32,4.46,4.32,-4.31,-4.42,-3.82,0.15,0.15,0.14
365.49,4.45,4.29,4.45,4.30,-4.29,-4.38,-3.78,0.16,0.16,0.15
369.14,4.43,4.27,4.43,4.27,-4.27,-4.33,-3.74,0.16,0.17,0.16
372.83,4.42,4.25,4.41,4.24,-4.24,-4.28,-3.70,0.18,0.17,0.17
376.56,4.38,4.21,4.39,4.21,-4.21,-4.24,-3.67,0.17,0.18,0.17
380.33,4.36,4.18,4.36,4.18,-4.18,-4.19,-3.64,0.18,0.18,0.18
384.13,4.33,4.14,4.33,4.14,-4.14,-4.14,-3.62,0.19,0.18,0.19
387.97,4.30,4.10,4.30,4.10,-4.11,-4.09,-3.59,0.19,0.19,0.20
391.85,4.27,4.05,4.27,4.07,-4.07,-4.04,-3.57,0.20,0.21,0.21
395.77,4.25,4.04,4.25,4.03,-4.03,-3.99,-3.55,0.22,0.22,0.21
399.73,4.22,4.00,4.22,3.99,-3.99,-3.94,-3.53,0.23,0.23,0.22
403.72,4.19,3.95,4.19,3.95,-3.95,-3.89,-3.52,0.24,0.24,0.24
407.76,4.16,3.91,4.16,3.91,-3.91,-3.84,-3.50,0.25,0.25,0.25
411.84,4.12,3.86,4.12,3.86,-3.87,-3.79,-3.49,0.25,0.25,0.26
415.96,4.09,3.82,4.09,3.82,-3.84,-3.73,-3.48,0.25,0.25,0.27
420.12,4.06,3.79,4.06,3.79,-3.80,-3.68,-3.47,0.26,0.26,0.27
424.32,4.04,3.76,4.04,3.76,-3.77,-3.63,-3.46,0.27,0.28,0.28
428.56,4.03,3.73,4.03,3.73,-3.73,-3.57,-3.45,0.30,0.30,0.29
432.85,4.01,3.70,4.00,3.70,-3.69,-3.52,-3.44,0.32,0.32,0.31
437.18,3.97,3.67,3.97,3.66,-3.65,-3.47,-3.44,0.32,0.32,0.30
441.55,3.93,3.62,3.93,3.61,-3.60,-3.41,-3.43,0.33,0.32,0.31
445.96,3.88,3.56,3.88,3.56,-3.56,-3.36,-3.42,0.32,0.32,0.32
450.42,3.83,3.50,3.83,3.50,-3.51,-3.30,-3.41,0.32,0.32,0.33
454.93,3.79,3.45,3.79,3.45,-3.46,-3.25,-3.40,0.33,0.33,0.34
459.48,3.75,3.40,3.75,3.40,-3.41,-3.19,-3.38,0.34,0.34,0.35
464.07,3.72,3.35,3.72,3.36,-3.36,-3.14,-3.37,0.36,0.36,0.37
468.71,3.69,3.32,3.69,3.31,-3.32,-3.08,-3.35,0.37,0.37,0.37
473.40,3.65,3.27,3.65,3.27,-3.27,-3.03,-3.33,0.38,0.39,0.38
478.13,3.62,3.23,3.62,3.23,-3.22,-2.97,-3.31,0.40,0.40,0.39
482.91,3.58,3.18,3.57,3.18,-3.17,-2.91,-3.29,0.41,0.40,0.40
487.74,3.53,3.12,3.53,3.12,-3.12,-2.86,-3.26,0.41,0.41,0.41
492.62,3.48,3.06,3.48,3.07,-3.07,-2.80,-3.23,0.41,0.41,0.42
497.55,3.44,3.01,3.44,3.01,-3.01,-2.74,-3.20,0.43,0.43,0.43
502.52,3.40,2.96,3.39,2.96,-2.96,-2.69,-3.16,0.44,0.44,0.43
507.55,3.35,2.89,3.35,2.90,-2.90,-2.63,-3.12,0.45,0.45,0.45
512.62,3.30,2.84,3.30,2.84,-2.84,-2.57,-3.08,0.46,0.46,0.46
517.75,3.26,2.78,3.26,2.78,-2.78,-2.52,-3.03,0.48,0.48,0.48
522.93,3.21,2.72,3.21,2.72,-2.72,-2.46,-2.98,0.49,0.49,0.49
528.16,3.17,2.67,3.17,2.67,-2.66,-2.40,-2.93,0.51,0.51,0.50
533.44,3.12,2.61,3.12,2.61,-2.60,-2.35,-2.87,0.52,0.52,0.51
538.77,3.07,2.55,3.07,2.54,-2.54,-2.29,-2.81,0.53,0.53,0.52
544.16,3.01,2.47,3.01,2.47,-2.48,-2.23,-2.75,0.53,0.53,0.54
549.60,2.96,2.41,2.96,2.41,-2.42,-2.17,-2.69,0.54,0.54,0.55
