frequency,raw,error,smoothed,error_smoothed,equalization,parametric_eq,fixed_band_eq,equalized_raw,equalized_smoothed,target
20.00,6.59,1.53,6.59,1.53,-1.53,-1.60,-0.95,5.06,5.06,5.06
20.20,6.57,1.54,6.57,1.53,-1.53,-1.61,-0.98,5.04,5.03,5.03
20.40,6.55,1.54,6.55,1.54,-1.54,-1.63,-1.00,5.01,5.01,5.01
20.61,6.53,1.54,6.53,1.54,-1.54,-1.64,-1.03,4.99,4.99,4.99
20.81,6.52,1.55,6.52,1.55,-1.55,-1.66,-1.06,4.97,4.97,4.97
21.02,6.51,1.56,6.51,1.56,-1.56,-1.67,-1.10,4.95,4.94,4.95
21.23,6.50,1.57,6.50,1.57,-1.57,-1.69,-1.13,4.92,4.93,4.93
21.44,6.50,1.59,6.50,1.59,-1.59,-1.70,-1.16,4.91,4.91,4.91
21.66,6.50,1.61,6.50,1.61,-1.61,-1.72,-1.19,4.89,4.89,4.89
21.87,6.50,1.62,6.50,1.63,-1.62,-1.73,-1.23,4.87,4.88,4.88
22.09,6.51,1.65,6.51,1.65,-1.64,-1.74,-1.26,4.86,4.86,4.86
22.31,6.52,1.67,6.52,1.67,-1.67,-1.76,-1.30,4.85,4.85,4.85
22.54,6.53,1.69,6.53,1.69,-1.69,-1.77,-1.34,4.83,4.83,4.84
22.76,6.54,1.71,6.54,1.72,-1.72,-1.79,-1.38,4.82,4.82,4.82
22.99,6.56,1.74,6.56,1.75,-1.75,-1.80,-1.41,4.81,4.81,4.81
23.22,6.59,1.78,6.58,1.78,-1.78,-1.82,-1.45,4.80,4.80,4.80
23.45,6.62,1.82,6.61,1.82,-1.82,-1.83,-1.50,4.80,4.79,4.79
23.69,6.64,1.85,6.64,1.86,-1.86,-1.84,-1.54,4.78,4.79,4.78
23.92,6.68,1.90,6.67,1.90,-1.89,-1.86,-1.58,4.78,4.78,4.78
24.16,6.71,1.94,6.71,1.93,-1.93,-1.87,-1.62,4.77,4.77,4.77
24.40,6.74,1.97,6.74,1.97,-1.97,-1.89,-1.67,4.77,4.77,4.77
24.65,6.77,2.01,6.77,2.00,-2.01,-1.90,-1.71,4.76,4.76,4.76
24.89,6.80,2.04,6.80,2.04,-2.04,-1.91,-1.76,4.76,4.75,4.76
25.14,6.82,2.07,6.82,2.07,-2.07,-1.93,-1.80,4.75,4.75,4.75
25.39,6.85,2.11,6.84,2.10,-2.10,-1.94,-1.85,4.75,4.75,4.74
25.65,6.86,2.12,6.86,2.13,-2.12,-1.95,-1.89,4.74,4.74,4.74
25.91,6.88,2.15,6.87,2.14,-2.14,-1.97,-1.94,4.74,4.74,4.73
26.16,6.88,2.15,6.88,2.15,-2.15,-1.98,-1.98,4.73,4.73,4.73
26.43,6.88,2.15,6.88,2.16,-2.16,-1.99,-2.03,4.72,4.72,4.72
26.69,6.88,2.16,6.87,2.16,-2.16,-2.00,-2.07,4.72,4.71,4.71
26.96,6.87,2.16,6.87,2.16,-2.16,-2.02,-2.11,4.71,4.71,4.71
27.23,6.86,2.16,6.86,2.16,-2.16,-2.03,-2.16,4.70,4.70,4.70
27.50,6.86,2.16,6.86,2.16,-2.16,-2.04,-2.20,4.69,4.69,4.70
27.77,6.86,2.16,6.86,2.16,-2.16,-2.05,-2.24,4.69,4.69,4.70
28.05,6.86,2.17,6.86,2.17,-2.17,-2.07,-2.28,4.69,4.69,4.69
28.33,6.86,2.17,6.86,2.17,-2.17,-2.08,-2.31,4.69,4.69,4.69
28.62,6.86,2.17,6.86,2.18,-2.17,-2.09,-2.35,4.68,4.68,4.68
28.90,6.86,2.18,6.86,2.18,-2.18,-2.10,-2.38,4.68,4.68,4.67
29.19,6.86,2.19,6.86,2.18,-2.18,-2.11,-2.41,4.67,4.67,4.67
29.48,6.86,2.19,6.86,2.19,-2.19,-2.12,-2.44,4.67,4.67,4.67
29.78,6.86,2.19,6.86,2.19,-2.19,-2.14,-2.47,4.67,4.67,4.67
30.08,6.86,2.19,6.86,2.19,-2.19,-2.15,-2.49,4.66,4.66,4.67
30.38,6.86,2.20,6.86,2.20,-2.20,-2.16,-2.51,4.66,4.66,4.66
30.68,6.86,2.20,6.86,2.20,-2.20,-2.17,-2.53,4.66,4.66,4.65
30.99,6.86,2.21,6.86,2.21,-2.21,-2.18,-2.54,4.65,4.65,4.65
31.30,6.86,2.21,6.86,2.21,-2.21,-2.19,-2.56,4.65,4.65,4.65
31.61,6.86,2.22,6.86,2.21,-2.22,-2.20,-2.56,4.64,4.64,4.64
31.93,6.86,2.22,6.86,2.22,-2.22,-2.21,-2.57,4.64,4.64,4.64
32.24,6.86,2.22,6.86,2.23,-2.23,-2.22,-2.57,4.63,4.63,4.63
32.57,6.86,2.24,6.86,2.23,-2.23,-2.23,-2.57,4.63,4.63,4.62
32.89,6.86,2.24,6.86,2.24,-2.24,-2.24,-2.57,4.62,4.62,4.62
33.22,6.86,2.24,6.86,2.24,-2.24,-2.25,-2.56,4.61,4.61,4.62
33.55,6.86,2.25,6.86,2.25,-2.25,-2.26,-2.56,4.61,4.61,4.60
33.89,6.86,2.26,6.86,2.26,-2.26,-2.27,-2.55,4.60,4.60,4.60
34.23,6.86,2.26,6.86,2.26,-2.26,-2.28,-2.53,4.60,4.60,4.60
34.57,6.86,2.27,6.86,2.27,-2.27,-2.29,-2.52,4.59,4.59,4.59
34.92,6.86,2.27,6.86,2.27,-2.27,-2.30,-2.51,4.58,4.58,4.58
35.27,6.86,2.28,6.86,2.28,-2.28,-2.30,-2.49,4.58,4.58,4.58
35.62,6.86,2.29,6.86,2.29,-2.29,-2.31,-2.47,4.57,4.57,4.57
35.97,6.86,2.29,6.86,2.29,-2.29,-2.32,-2.45,4.57,4.57,4.56
36.33,6.86,2.30,6.86,2.30,-2.30,-2.33,-2.43,4.56,4.56,4.56
36.70,6.86,2.30,6.86,2.30,-2.30,-2.34,-2.42,4.56,4.56,4.56
37.06,6.86,2.30,6.86,2.31,-2.31,-2.35,-2.40,4.55,4.55,4.55
37.43,6.86,2.32,6.86,2.31,-2.31,-2.35,-2.38,4.54,4.54,4.54
37.81,6.86,2.32,6.86,2.32,-2.32,-2.36,-2.36,4.54,4.54,4.54
38.19,6.86,2.33,6.86,2.33,-2.33,-2.37,-2.34,4.53,4.53,4.53
38.57,6.86,2.34,6.86,2.34,-2.34,-2.38,-2.32,4.52,4.52,4.52
38.95,6.86,2.34,6.86,2.35,-2.35,-2.38,-2.30,4.51,4.51,4.51
39.34,6.86,2.36,6.86,2.36,-2.36,-2.39,-2.28,4.50,4.50,4.50
39.74,6.86,2.36,6.86,2.37,-2.37,-2.40,-2.27,4.49,4.49,4.49
40.14,6.86,2.38,6.86,2.38,-2.37,-2.40,-2.25,4.48,4.48,4.48
40.54,6.86,2.38,6.86,2.38,-2.38,-2.41,-2.24,4.48,4.48,4.47
40.94,6.86,2.39,6.86,2.39,-2.39,-2.42,-2.23,4.47,4.47,4.47
41.35,6.86,2.40,6.86,2.40,-2.40,-2.42,-2.21,4.46,4.46,4.46
41.76,6.86,2.40,6.86,2.40,-2.40,-2.43,-2.20,4.46,4.46,4.46
42.18,6.86,2.41,6.86,2.41,-2.41,-2.43,-2.19,4.45,4.45,4.45
42.60,6.86,2.41,6.86,2.41,-2.41,-2.44,-2.19,4.45,4.45,4.44
43.03,6.86,2.41,6.86,2.41,-2.41,-2.45,-2.18,4.44,4.44,4.45
43.46,6.86,2.42,6.86,2.42,-2.42,-2.45,-2.18,4.44,4.44,4.44
43.90,6.86,2.42,6.86,2.42,-2.42,-2.46,-2.18,4.43,4.43,4.43
44.33,6.86,2.43,6.86,2.43,-2.43,-2.46,-2.18,4.43,4.43,4.43
44.78,6.86,2.44,6.86,2.44,-2.44,-2.47,-2.18,4.42,4.42,4.42
45.23,6.86,2.45,6.86,2.45,-2.44,-2.47,-2.18,4.41,4.41,4.41
45.68,6.86,2.45,6.86,2.45,-2.45,-2.48,-2.18,4.40,4.40,4.40
46.13,6.86,2.46,6.86,2.46,-2.47,-2.48,-2.19,4.39,4.39,4.39
46.60,6.86,2.47,6.86,2.47,-2.48,-2.49,-2.20,4.38,4.38,4.39
47.06,6.86,2.48,6.86,2.49,-2.50,-2.49,-2.21,4.36,4.37,4.38
47.53,6.87,2.51,6.87,2.51,-2.51,-2.50,-2.22,4.36,4.36,4.36
48.01,6.88,2.53,6.87,2.53,-2.53,-2.50,-2.23,4.35,4.35,4.35
48.49,6.88,2.54,6.88,2.54,-2.54,-2.51,-2.24,4.34,4.34,4.34
48.97,6.88,2.55,6.88,2.55,-2.55,-2.51,-2.26,4.33,4.33,4.33
49.46,6.88,2.56,6.87,2.56,-2.55,-2.52,-2.27,4.33,4.32,4.32
49.96,6.86,2.55,6.86,2.56,-2.55,-2.52,-2.29,4.31,4.31,4.30
50.46,6.84,2.55,6.84,2.55,-2.54,-2.53,-2.31,4.29,4.29,4.29
50.96,6.82,2.54,6.82,2.53,-2.53,-2.53,-2.33,4.28,4.28,4.28
51.47,6.79,2.51,6.79,2.52,-2.52,-2.54,-2.35,4.27,4.27,4.28
51.99,6.77,2.50,6.76,2.50,-2.50,-2.54,-2.37,4.27,4.26,4.26
52.51,6.74,2.49,6.73,2.48,-2.48,-2.55,-2.39,4.26,4.25,4.25
53.03,6.70,2.46,6.70,2.47,-2.46,-2.55,-2.41,4.23,4.24,4.24
53.56,6.67,2.45,6.67,2.44,-2.44,-2.55,-2.44,4.22,4.22,4.22
54.10,6.64,2.42,6.64,2.42,-2.43,-2.56,-2.46,4.21,4.21,4.22
54.64,6.61,2.41,6.61,2.41,-2.41,-2.56,-2.48,4.20,4.20,4.20
55.18,6.59,2.40,6.58,2.40,-2.40,-2.57,-2.51,4.19,4.19,4.19
55.74,6.56,2.39,6.56,2.39,-2.39,-2.57,-2.53,4.17,4.17,4.17
56.29,6.54,2.38,6.54,2.38,-2.38,-2.58,-2.55,4.15,4.16,4.16
56.86,6.53,2.38,6.52,2.38,-2.39,-2.58,-2.57,4.14,4.14,4.14
57.42,6.52,2.39,6.52,2.39,-2.39,-2.59,-2.60,4.13,4.12,4.13
58.00,6.51,2.39,6.51,2.40,-2.40,-2.59,-2.62,4.10,4.11,4.12
58.58,6.52,2.42,6.52,2.42,-2.42,-2.59,-2.63,4.10,4.09,4.10
59.16,6.53,2.45,6.52,2.44,-2.44,-2.60,-2.65,4.08,4.08,4.08
59.76,6.53,2.46,6.53,2.47,-2.47,-2.60,-2.67,4.06,4.06,4.07
60.35,6.54,2.49,6.54,2.50,-2.50,-2.61,-2.68,4.04,4.04,4.04
60.96,6.55,2.53,6.55,2.52,-2.53,-2.61,-2.70,4.02,4.02,4.02
61.57,6.56,2.56,6.56,2.56,-2.55,-2.62,-2.71,4.00,4.00,4.00
62.18,6.56,2.58,6.56,2.58,-2.58,-2.63,-2.72,3.98,3.98,3.98
62.80,6.56,2.61,6.56,2.61,-2.60,-2.63,-2.73,3.96,3.96,3.95
63.43,6.55,2.62,6.55,2.62,-2.61,-2.64,-2.74,3.93,3.93,3.93
64.07,6.53,2.63,6.53,2.63,-2.63,-2.64,-2.74,3.90,3.90,3.90
64.71,6.51,2.63,6.51,2.63,-2.63,-2.65,-2.75,3.87,3.87,3.87
65.35,6.48,2.63,6.48,2.64,-2.64,-2.65,-2.75,3.84,3.84,3.85
66.01,6.46,2.64,6.46,2.64,-2.64,-2.66,-2.75,3.82,3.82,3.82
66.67,6.43,2.64,6.43,2.64,-2.64,-2.67,-2.75,3.79,3.79,3.79
67.33,6.40,2.64,6.40,2.64,-2.63,-2.67,-2.75,3.76,3.76,3.76
68.01,6.36,2.63,6.36,2.63,-2.63,-2.68,-2.75,3.72,3.73,3.73
68.69,6.33,2.63,6.33,2.63,-2.64,-2.69,-2.75,3.69,3.69,3.70
69.37,6.30,2.63,6.30,2.64,-2.64,-2.70,-2.75,3.66,3.66,3.67
70.07,6.28,2.65,6.28,2.64,-2.65,-2.70,-2.74,3.63,3.63,3.63
70.77,6.26,2.66,6.26,2.66,-2.66,-2.71,-2.74,3.60,3.60,3.60
71.48,6.24,2.66,6.24,2.67,-2.67,-2.72,-2.74,3.57,3.57,3.57
72.19,6.23,2.69,6.22,2.69,-2.69,-2.73,-2.73,3.54,3.54,3.54
72.91,6.21,2.71,6.21,2.71,-2.71,-2.74,-2.73,3.50,3.50,3.50
73.64,6.20,2.73,6.19,2.73,-2.73,-2.75,-2.73,3.47,3.47,3.46
74.38,6.18,2.74,6.18,2.75,-2.75,-2.76,-2.73,3.43,3.43,3.44
75.12,6.17,2.77,6.17,2.77,-2.77,-2.77,-2.73,3.40,3.40,3.40
75.87,6.16,2.79,6.15,2.79,-2.78,-2.78,-2.73,3.38,3.37,3.37
76.63,6.13,2.80,6.13,2.81,-2.80,-2.79,-2.73,3.33,3.34,3.33
77.40,6.11,2.82,6.11,2.82,-2.81,-2.80,-2.73,3.30,3.30,3.29
78.17,6.08,2.82,6.07,2.82,-2.82,-2.81,-2.74,3.25,3.25,3.25
78.95,6.04,2.83,6.04,2.83,-2.84,-2.82,-2.74,3.20,3.20,3.21
79.74,6.01,2.84,6.01,2.84,-2.85,-2.84,-2.75,3.16,3.16,3.17
80.54,5.99,2.86,5.99,2.86,-2.87,-2.85,-2.76,3.12,3.12,3.13
81.35,5.97,2.88,5.97,2.88,-2.89,-2.86,-2.77,3.08,3.08,3.08
82.16,5.95,2.91,5.95,2.91,-2.91,-2.88,-2.78,3.04,3.04,3.04
82.98,5.93,2.94,5.93,2.94,-2.93,-2.89,-2.80,3.00,3.00,2.99
83.81,5.91,2.96,5.90,2.96,-2.95,-2.91,-2.81,2.95,2.95,2.94
84.65,5.88,2.97,5.88,2.98,-2.98,-2.92,-2.83,2.90,2.90,2.90
85.50,5.86,3.00,5.86,3.00,-3.01,-2.94,-2.86,2.85,2.85,2.85
86.35,5.84,3.03,5.84,3.03,-3.03,-2.95,-2.88,2.80,2.80,2.80
87.22,5.82,3.06,5.82,3.06,-3.06,-2.97,-2.90,2.76,2.76,2.75
88.09,5.79,3.09,5.79,3.09,-3.09,-2.99,-2.93,2.70,2.71,2.70
88.97,5.77,3.12,5.76,3.11,-3.11,-3.01,-2.96,2.65,2.65,2.65
89.86,5.74,3.14,5.74,3.14,-3.14,-3.03,-3.00,2.60,2.60,2.60
90.76,5.71,3.16,5.71,3.17,-3.17,-3.05,-3.03,2.54,2.54,2.54
91.66,5.69,3.20,5.69,3.20,-3.20,-3.07,-3.07,2.49,2.49,2.49
92.58,5.66,3.22,5.66,3.23,-3.23,-3.09,-3.11,2.43,2.44,2.44
93.51,5.65,3.27,5.64,3.26,-3.26,-3.11,-3.15,2.39,2.39,2.38
94.44,5.62,3.29,5.62,3.29,-3.28,-3.13,-3.19,2.33,2.33,2.33
95.39,5.59,3.32,5.59,3.32,-3.31,-3.15,-3.24,2.27,2.28,2.27
96.34,5.56,3.34,5.56,3.34,-3.34,-3.17,-3.28,2.21,2.22,2.21
97.30,5.54,3.37,5.53,3.37,-3.38,-3.20,-3.33,2.16,2.16,2.17
98.28,5.51,3.40,5.51,3.40,-3.41,-3.22,-3.38,2.10,2.10,2.11
99.26,5.48,3.42,5.48,3.43,-3.44,-3.25,-3.44,2.04,2.04,2.05
100.25,5.47,3.47,5.46,3.47,-3.47,-3.27,-3.49,1.99,1.99,2.00
101.25,5.45,3.51,5.45,3.51,-3.51,-3.30,-3.54,1.94,1.94,1.94
102.27,5.43,3.55,5.43,3.55,-3.54,-3.33,-3.60,1.89,1.89,1.88
103.29,5.41,3.59,5.40,3.58,-3.57,-3.35,-3.66,1.84,1.83,1.82
104.32,5.38,3.60,5.38,3.61,-3.60,-3.38,-3.71,1.78,1.78,1.77
105.37,5.34,3.62,5.34,3.63,-3.62,-3.41,-3.77,1.72,1.72,1.72
106.42,5.31,3.65,5.30,3.64,-3.64,-3.44,-3.83,1.67,1.67,1.66
107.48,5.26,3.65,5.26,3.65,-3.65,-3.47,-3.88,1.60,1.61,1.61
108.56,5.22,3.66,5.22,3.67,-3.67,-3.49,-3.94,1.55,1.55,1.55
109.64,5.18,3.68,5.17,3.68,-3.69,-3.52,-3.99,1.49,1.48,1.50
110.74,5.14,3.70,5.14,3.70,-3.71,-3.55,-4.04,1.42,1.43,1.44
111.85,5.11,3.73,5.11,3.73,-3.74,-3.59,-4.09,1.37,1.37,1.38
112.97,5.10,3.76,5.09,3.76,-3.76,-3.62,-4.14,1.33,1.33,1.33
114.10,5.08,3.80,5.07,3.80,-3.79,-3.65,-4.19,1.29,1.28,1.28
115.24,5.05,3.83,5.05,3.83,-3.81,-3.68,-4.23,1.24,1.24,1.22
116.39,5.02,3.85,5.02,3.85,-3.83,-3.71,-4.26,1.18,1.18,1.17
117.55,4.98,3.86,4.98,3.86,-3.85,-3.74,-4.30,1.13,1.12,1.12
118.73,4.93,3.86,4.93,3.87,-3.87,-3.77,-4.33,1.06,1.06,1.06
119.92,4.89,3.88,4.88,3.87,-3.88,-3.80,-4.35,1.01,1.00,1.01
121.12,4.84,3.88,4.84,3.88,-3.89,-3.83,-4.37,0.94,0.95,0.96
122.33,4.81,3.90,4.81,3.90,-3.91,-3.86,-4.39,0.90,0.90,0.91
123.55,4.78,3.92,4.78,3.91,-3.92,-3.89,-4.40,0.86,0.85,0.86
124.79,4.75,3.93,4.75,3.94,-3.94,-3.92,-4.41,0.81,0.81,0.82
126.03,4.73,3.96,4.73,3.96,-3.95,-3.95,-4.41,0.78,0.77,0.77
127.29,4.70,3.97,4.70,3.98,-3.97,-3.98,-4.40,0.73,0.73,0.72
128.57,4.67,3.99,4.66,3.99,-3.98,-4.00,-4.39,0.69,0.68,0.67
129.85,4.62,3.99,4.62,4.00,-3.99,-4.03,-4.37,0.62,0.63,0.62
131.15,4.58,4.00,4.58,4.00,-4.01,-4.05,-4.35,0.57,0.58,0.58
132.46,4.55,4.01,4.54,4.01,-4.02,-4.08,-4.33,0.53,0.53,0.54
133.79,4.51,4.02,4.51,4.02,-4.02,-4.10,-4.30,0.48,0.48,0.49
135.12,4.47,4.02,4.47,4.03,-4.03,-4.12,-4.27,0.44,0.44,0.44
136.48,4.44,4.04,4.43,4.04,-4.04,-4.14,-4.23,0.40,0.40,0.40
137.84,4.40,4.05,4.40,4.05,-4.04,-4.16,-4.19,0.36,0.36,0.35
139.22,4.36,4.05,4.36,4.05,-4.04,-4.17,-4.15,0.31,0.32,0.31
140.61,4.32,4.05,4.31,4.05,-4.04,-4.19,-4.10,0.27,0.27,0.26
142.02,4.27,4.04,4.27,4.04,-4.04,-4.20,-4.05,0.23,0.23,0.23
143.44,4.22,4.03,4.22,4.03,-4.04,-4.21,-4.00,0.18,0.19,0.19
144.87,4.18,4.03,4.18,4.03,-4.03,-4.22,-3.95,0.15,0.15,0.15
146.32,4.14,4.02,4.14,4.02,-4.02,-4.22,-3.90,0.12,0.11,0.12
147.78,4.10,4.02,4.09,4.02,-4.01,-4.22,-3.85,0.08,0.08,0.08
149.26,4.05,4.01,4.05,4.00,-4.01,-4.23,-3.79,0.04,0.04,0.04
150.75,4.01,3.99,4.01,4.00,-4.00,-4.22,-3.74,0.00,0.00,0.01
152.26,3.97,3.99,3.97,3.99,-4.00,-4.22,-3.69,-0.03,-0.03,-0.02
153.78,3.94,4.00,3.94,3.99,-3.99,-4.21,-3.64,-0.05,-0.05,-0.06
155.32,3.91,3.99,3.90,3.99,-3.99,-4.20,-3.59,-0.08,-0.08,-0.08
156.88,3.87,3.99,3.87,3.99,-3.98,-4.19,-3.54,-0.11,-0.11,-0.12
158.44,3.83,3.98,3.82,3.98,-3.98,-4.18,-3.49,-0.15,-0.15,-0.15
160.03,3.78,3.96,3.78,3.96,-3.97,-4.16,-3.45,-0.19,-0.19,-0.18
161.63,3.74,3.95,3.74,3.95,-3.96,-4.14,-3.40,-0.23,-0.22,-0.22
163.24,3.71,3.94,3.71,3.95,-3.95,-4.12,-3.36,-0.24,-0.24,-0.24
164.88,3.68,3.94,3.67,3.94,-3.93,-4.10,-3.32,-0.26,-0.26,-0.27
166.53,3.64,3.93,3.63,3.93,-3.91,-4.07,-3.28,-0.28,-0.28,-0.30
168.19,3.58,3.90,3.58,3.90,-3.89,-4.04,-3.24,-0.31,-0.31,-0.32
169.87,3.53,3.87,3.53,3.87,-3.87,-4.01,-3.21,-0.34,-0.34,-0.34
171.57,3.47,3.84,3.47,3.84,-3.84,-3.98,-3.18,-0.37,-0.37,-0.37
173.29,3.41,3.80,3.41,3.80,-3.81,-3.94,-3.15,-0.40,-0.40,-0.39
175.02,3.35,3.77,3.35,3.77,-3.78,-3.90,-3.12,-0.43,-0.43,-0.42
176.77,3.30,3.73,3.30,3.74,-3.75,-3.87,-3.09,-0.45,-0.45,-0.43
178.54,3.27,3.73,3.26,3.72,-3.72,-3.82,-3.07,-0.45,-0.46,-0.46
180.32,3.23,3.71,3.22,3.70,-3.69,-3.78,-3.05,-0.46,-0.47,-0.48
182.13,3.18,3.68,3.18,3.68,-3.66,-3.74,-3.03,-0.49,-0.49,-0.50
183.95,3.12,3.64,3.12,3.64,-3.64,-3.69,-3.02,-0.52,-0.52,-0.53
185.79,3.06,3.60,3.06,3.61,-3.61,-3.65,-3.01,-0.55,-0.55,-0.55
187.65,3.01,3.57,3.01,3.57,-3.58,-3.60,-3.00,-0.58,-0.58,-0.57
189.52,2.96,3.54,2.96,3.55,-3.56,-3.55,-2.99,-0.60,-0.60,-0.59
191.42,2.92,3.52,2.92,3.53,-3.53,-3.50,-2.98,-0.61,-0.61,-0.61
193.33,2.89,3.51,2.89,3.51,-3.51,-3.45,-2.98,-0.62,-0.62,-0.62
195.27,2.86,3.50,2.85,3.49,-3.49,-3.40,-2.97,-0.63,-0.64,-0.64
197.22,2.81,3.47,2.81,3.47,-3.47,-3.34,-2.97,-0.66,-0.66,-0.66
199.19,2.77,3.44,2.77,3.44,-3.45,-3.29,-2.97,-0.68,-0.68,-0.68
201.18,2.73,3.41,2.73,3.42,-3.42,-3.24,-2.98,-0.69,-0.69,-0.68
203.19,2.70,3.40,2.70,3.40,-3.39,-3.18,-2.98,-0.70,-0.69,-0.70
205.23,2.67,3.37,2.66,3.37,-3.36,-3.13,-2.98,-0.69,-0.70,-0.70
207.28,2.63,3.35,2.62,3.34,-3.33,-3.08,-2.99,-0.70,-0.71,-0.72
209.35,2.57,3.30,2.57,3.30,-3.29,-3.02,-3.00,-0.73,-0.72,-0.73
211.44,2.52,3.25,2.51,3.25,-3.26,-2.97,-3.00,-0.74,-0.75,-0.74
213.56,2.46,3.21,2.46,3.21,-3.22,-2.92,-3.01,-0.77,-0.77,-0.75
215.69,2.41,3.17,2.41,3.17,-3.19,-2.86,-3.02,-0.78,-0.77,-0.76
217.85,2.37,3.14,2.37,3.14,-3.15,-2.81,-3.02,-0.78,-0.77,-0.77
220.03,2.34,3.11,2.33,3.11,-3.10,-2.75,-3.03,-0.76,-0.77,-0.78
222.23,2.29,3.08,2.29,3.08,-3.06,-2.70,-3.04,-0.77,-0.77,-0.79
224.45,2.23,3.03,2.23,3.03,-3.01,-2.65,-3.04,-0.79,-0.78,-0.80
226.70,2.17,2.98,2.16,2.97,-2.97,-2.60,-3.04,-0.80,-0.80,-0.81
228.96,2.10,2.91,2.10,2.91,-2.92,-2.55,-3.04,-0.83,-0.82,-0.81
231.25,2.04,2.86,2.04,2.86,-2.88,-2.49,-3.04,-0.84,-0.84,-0.82
233.57,1.99,2.82,1.99,2.82,-2.83,-2.44,-3.04,-0.84,-0.84,-0.83
235.90,1.95,2.78,1.95,2.78,-2.78,-2.39,-3.04,-0.83,-0.83,-0.83
238.26,1.91,2.75,1.90,2.74,-2.73,-2.34,-3.03,-0.82,-0.83,-0.84
240.64,1.86,2.69,1.86,2.69,-2.69,-2.29,-3.02,-0.83,-0.83,-0.84
243.05,1.81,2.64,1.81,2.64,-2.64,-2.25,-3.00,-0.84,-0.84,-0.83
245.48,1.76,2.59,1.76,2.59,-2.60,-2.20,-2.99,-0.84,-0.84,-0.83
247.93,1.71,2.55,1.71,2.55,-2.56,-2.15,-2.97,-0.85,-0.84,-0.84
250.41,1.67,2.51,1.67,2.51,-2.51,-2.10,-2.94,-0.84,-0.84,-0.84
252.92,1.64,2.47,1.63,2.47,-2.46,-2.06,-2.91,-0.82,-0.83,-0.84
255.45,1.59,2.42,1.59,2.42,-2.41,-2.01,-2.88,-0.82,-0.82,-0.83
258.00,1.54,2.38,1.53,2.37,-2.37,-1.97,-2.85,-0.83,-0.83,-0.84
260.58,1.48,2.31,1.48,2.32,-2.32,-1.93,-2.81,-0.85,-0.85,-0.83
263.19,1.42,2.26,1.42,2.26,-2.28,-1.88,-2.77,-0.86,-0.86,-0.84
265.82,1.38,2.22,1.38,2.22,-2.23,-1.84,-2.73,-0.85,-0.85,-0.85
268.48,1.34,2.18,1.34,2.19,-2.19,-1.80,-2.68,-0.85,-0.84,-0.84
271.16,1.31,2.16,1.30,2.15,-2.14,-1.76,-2.63,-0.83,-0.83,-0.85
273.87,1.26,2.11,1.25,2.10,-2.09,-1.72,-2.58,-0.83,-0.83,-0.85
276.61,1.20,2.05,1.20,2.05,-2.04,-1.68,-2.53,-0.84,-0.84,-0.85
279.38,1.14,1.99,1.14,1.99,-1.99,-1.64,-2.47,-0.86,-0.85,-0.85
282.17,1.09,1.94,1.09,1.94,-1.95,-1.60,-2.41,-0.86,-0.86,-0.85
284.99,1.04,1.89,1.04,1.89,-1.90,-1.56,-2.35,-0.86,-0.86,-0.85
287.84,0.99,1.84,0.99,1.85,-1.85,-1.53,-2.29,-0.87,-0.86,-0.86
290.72,0.95,1.81,0.95,1.81,-1.81,-1.49,-2.23,-0.86,-0.86,-0.86
293.63,0.91,1.77,0.91,1.77,-1.77,-1.45,-2.16,-0.87,-0.86,-0.87
296.57,0.88,1.75,0.87,1.74,-1.74,-1.42,-2.10,-0.86,-0.86,-0.87
299.53,0.84,1.70,0.84,1.71,-1.71,-1.38,-2.03,-0.87,-0.87,-0.86
302.53,0.81,1.67,0.81,1.68,-1.67,-1.35,-1.97,-0.87,-0.86,-0.87
305.55,0.78,1.65,0.78,1.64,-1.64,-1.32,-1.90,-0.86,-0.86,-0.87
308.61,0.75,1.61,0.74,1.61,-1.61,-1.28,-1.83,-0.86,-0.86,-0.86
311.69,0.71,1.57,0.71,1.58,-1.58,-1.25,-1.77,-0.87,-0.86,-0.87
314.81,0.68,1.54,0.68,1.54,-1.54,-1.22,-1.70,-0.87,-0.86,-0.86
317.96,0.65,1.51,0.65,1.51,-1.51,-1.19,-1.64,-0.86,-0.86,-0.86
321.14,0.62,1.47,0.61,1.47,-1.48,-1.16,-1.57,-0.86,-0.86,-0.86
324.35,0.58,1.44,0.58,1.44,-1.44,-1.13,-1.51,-0.86,-0.86,-0.86
327.59,0.55,1.41,0.55,1.41,-1.40,-1.10,-1.44,-0.85,-0.85,-0.86
330.87,0.52,1.37,0.51,1.37,-1.36,-1.07,-1.38,-0.84,-0.84,-0.85
334.18,0.48,1.32,0.48,1.32,-1.32,-1.04,-1.31,-0.84,-0.84,-0.85
337.52,0.43,1.28,0.43,1.27,-1.27,-1.01,-1.25,-0.84,-0.84,-0.85
340.90,0.38,1.22,0.38,1.22,-1.23,-0.98,-1.19,-0.85,-0.85,-0.84
344.30,0.33,1.17,0.33,1.17,-1.18,-0.96,-1.12,-0.85,-0.85,-0.84
347.75,0.29,1.13,0.29,1.13,-1.13,-0.93,-1.06,-0.85,-0.85,-0.84
351.23,0.25,1.09,0.25,1.09,-1.09,-0.90,-1.00,-0.84,-0.84,-0.85
354.74,0.21,1.05,0.20,1.05,-1.04,-0.88,-0.94,-0.84,-0.84,-0.84
358.28,0.16,1.00,0.16,1.00,-1.00,-0.85,-0.88,-0.84,-0.84,-0.84
361.87,0.12,0.96,0.12,0.96,-0.96,-0.82,-0.83,-0.84,-0.84,-0.84
365.49,0.08,0.92,0.08,0.92,-0.92,-0.80,-0.77,-0.84,-0.84,-0.84
369.14,0.04,0.88,0.04,0.89,-0.88,-0.77,-0.71,-0.85,-0.84,-0.84
372.83,0.01,0.85,0.00,0.85,-0.85,-0.75,-0.65,-0.84,-0.84,-0.85
376.56,-0.03,0.81,-0.03,0.81,-0.81,-0.72,-0.60,-0.84,-0.84,-0.84
380.33,-0.07,0.77,-0.07,0.77,-0.78,-0.70,-0.54,-0.85,-0.84,-0.84
384.13,-0.10,0.74,-0.10,0.74,-0.74,-0.67,-0.49,-0.84,-0.84,-0.84
387.97,-0.13,0.71,-0.14,0.70,-0.70,-0.65,-0.44,-0.83,-0.84,-0.84
391.85,-0.17,0.66,-0.17,0.67,-0.66,-0.63,-0.38,-0.83,-0.83,-0.83
395.77,-0.20,0.63,-0.20,0.63,-0.62,-0.60,-0.33,-0.82,-0.82,-0.83
399.73,-0.24,0.58,-0.25,0.58,-0.57,-0.58,-0.28,-0.82,-0.82,-0.83
403.72,-0.29,0.53,-0.29,0.53,-0.53,-0.55,-0.23,-0.82,-0.82,-0.83
407.76,-0.34,0.48,-0.34,0.48,-0.49,-0.53,-0.18,-0.83,-0.83,-0.82
411.84,-0.38,0.44,-0.38,0.43,-0.45,-0.51,-0.13,-0.83,-0.83,-0.82
415.96,-0.42,0.39,-0.42,0.40,-0.41,-0.48,-0.08,-0.83,-0.83,-0.81
420.12,-0.44,0.37,-0.45,0.37,-0.37,-0.46,-0.04,-0.81,-0.82,-0.81
424.32,-0.47,0.34,-0.47,0.34,-0.34,-0.44,0.01,-0.81,-0.81,-0.81
428.56,-0.49,0.31,-0.49,0.31,-0.30,-0.41,0.05,-0.80,-0.80,-0.80
432.85,-0.52,0.28,-0.52,0.28,-0.27,-0.39,0.09,-0.79,-0.79,-0.80
437.18,-0.55,0.25,-0.56,0.25,-0.24,-0.37,0.13,-0.79,-0.79,-0.80
441.55,-0.60,0.20,-0.60,0.21,-0.20,-0.34,0.17,-0.80,-0.80,-0.81
445.96,-0.64,0.16,-0.64,0.16,-0.17,-0.32,0.21,-0.81,-0.81,-0.81
450.42,-0.68,0.12,-0.68,0.12,-0.13,-0.30,0.25,-0.81,-0.81,-0.81
454.93,-0.72,0.09,-0.72,0.09,-0.09,-0.27,0.28,-0.82,-0.82,-0.81
459.48,-0.75,0.06,-0.75,0.05,-0.06,-0.25,0.31,-0.81,-0.81,-0.81
464.07,-0.78,0.03,-0.78,0.03,-0.03,-0.22,0.34,-0.81,-0.81,-0.81
468.71,-0.80,0.01,-0.80,0.01,-0.00,-0.20,0.37,-0.80,-0.81,-0.81
473.40,-0.82,-0.01,-0.83,-0.02,0.02,-0.17,0.40,-0.80,-0.81,-0.81
478.13,-0.85,-0.05,-0.85,-0.04,0.04,-0.15,0.42,-0.81,-0.80,-0.80
482.91,-0.87,-0.07,-0.87,-0.07,0.06,-0.12,0.44,-0.81,-0.80,-0.80
487.74,-0.88,-0.08,-0.89,-0.09,0.08,-0.10,0.46,-0.80,-0.80,-0.80
492.62,-0.90,-0.10,-0.90,-0.10,0.10,-0.07,0.47,-0.80,-0.80,-0.80
497.55,-0.91,-0.12,-0.92,-0.12,0.12,-0.05,0.48,-0.79,-0.80,-0.79
502.52,-0.93,-0.14,-0.93,-0.14,0.14,-0.02,0.49,-0.80,-0.80,-0.79
507.55,-0.95,-0.16,-0.95,-0.16,0.15,0.01,0.50,-0.80,-0.79,-0.79
