frequency,raw
20.00,10.73
20.20,10.79
20.40,10.83
20.61,10.88
20.81,10.93
21.02,10.97
21.23,11.02
21.44,11.06
21.66,11.11
21.87,11.15
22.09,11.19
22.31,11.22
22.54,11.26
22.76,11.29
22.99,11.33
23.22,11.36
23.45,11.40
23.69,11.43
23.92,11.45
24.16,11.48
24.40,11.51
24.65,11.54
24.89,11.56
25.14,11.59
25.39,11.62
25.65,11.64
25.91,11.66
26.16,11.68
26.43,11.70
26.69,11.73
26.96,11.75
27.23,11.77
27.50,11.79
27.77,11.81
28.05,11.83
28.33,11.84
28.62,11.85
28.90,11.88
29.19,11.89
29.48,11.90
29.78,11.91
30.08,11.92
30.38,11.94
30.68,11.94
30.99,11.95
31.30,11.95
31.61,11.96
31.93,11.96
32.24,11.96
32.57,11.97
32.89,11.97
33.22,11.97
33.55,11.98
33.89,11.98
34.23,11.98
34.57,11.98
34.92,11.97
35.27,11.97
35.62,11.98
35.97,11.98
36.33,11.98
36.70,11.97
37.06,11.97
37.43,11.97
37.81,11.96
38.19,11.95
38.57,11.95
38.95,11.94
39.34,11.93
39.74,11.91
40.14,11.90
40.54,11.89
40.94,11.87
41.35,11.85
41.76,11.83
42.18,11.81
42.60,11.80
43.03,11.78
43.46,11.76
43.90,11.74
44.33,11.73
44.78,11.71
45.23,11.69
45.68,11.68
46.13,11.66
46.60,11.64
47.06,11.62
47.53,11.60
48.01,11.58
48.49,11.55
48.97,11.51
49.46,11.48
49.96,11.44
50.46,11.41
50.96,11.37
51.47,11.33
51.99,11.30
52.51,11.27
53.03,11.24
53.56,11.21
54.10,11.17
54.64,11.14
55.18,11.11
55.74,11.08
56.29,11.04
56.86,11.01
57.42,10.97
58.00,10.93
58.58,10.90
59.16,10.86
59.76,10.81
60.35,10.78
60.96,10.74
61.57,10.71
62.18,10.68
62.80,10.64
63.43,10.60
64.07,10.55
64.71,10.50
65.35,10.46
66.01,10.42
66.67,10.38
67.33,10.34
68.01,10.29
68.69,10.23
69.37,10.18
70.07,10.13
70.77,10.08
71.48,10.03
72.19,9.98
72.91,9.93
73.64,9.86
74.38,9.79
75.12,9.73
75.87,9.67
76.63,9.62
77.40,9.57
78.17,9.50
78.95,9.43
79.74,9.39
80.54,9.33
81.35,9.28
82.16,9.23
82.98,9.15
83.81,9.09
84.65,9.03
85.50,8.98
86.35,8.93
87.22,8.86
88.09,8.79
88.97,8.73
89.86,8.69
90.76,8.63
91.66,8.56
92.58,8.49
93.51,8.42
94.44,8.36
95.39,8.29
96.34,8.22
97.30,8.14
98.28,8.06
99.26,7.99
100.25,7.92
101.25,7.83
102.27,7.76
103.29,7.72
104.32,7.66
105.37,7.58
106.42,7.50
107.48,7.41
108.56,7.33
109.64,7.24
110.74,7.18
111.85,7.09
112.97,7.00
114.10,6.91
115.24,6.84
116.39,6.79
117.55,6.71
118.73,6.60
119.92,6.52
121.12,6.41
122.33,6.34
123.55,6.26
124.79,6.15
126.03,6.04
127.29,5.98
128.57,5.90
129.85,5.82
131.15,5.73
132.46,5.68
133.79,5.60
135.12,5.53
136.48,5.49
137.84,5.42
139.22,5.39
140.61,5.35
142.02,5.28
143.44,5.25
144.87,5.22
146.32,5.20
147.78,5.18
149.26,5.17
150.75,5.14
152.26,5.13
153.78,5.13
155.32,5.11
156.88,5.12
158.44,5.13
160.03,5.14
161.63,5.16
163.24,5.16
164.88,5.19
166.53,5.21
168.19,5.24
169.87,5.27
171.57,5.31
173.29,5.36
175.02,5.43
176.77,5.46
178.54,5.52
180.32,5.56
182.13,5.60
183.95,5.66
185.79,5.69
187.65,5.71
189.52,5.74
191.42,5.76
193.33,5.78
195.27,5.79
197.22,5.78
199.19,5.77
201.18,5.73
203.19,5.70
205.23,5.64
207.28,5.59
209.35,5.54
211.44,5.47
213.56,5.41
215.69,5.35
217.85,5.28
220.03,5.22
222.23,5.17
224.45,5.11
226.70,5.05
228.96,4.98
231.25,4.93
233.57,4.87
235.90,4.80
238.26,4.75
240.64,4.68
243.05,4.61
245.48,4.53
247.93,4.45
250.41,4.38
252.92,4.30
255.45,4.24
258.00,4.19
260.58,4.11
263.19,4.06
265.82,4.00
268.48,3.93
271.16,3.88
273.87,3.80
276.61,3.74
279.38,3.68
282.17,3.62
284.99,3.55
287.84,3.48
290.72,3.42
293.63,3.35
296.57,3.28
299.53,3.21
302.53,3.15
305.55,3.09
308.61,3.00
311.69,2.93
314.81,2.87
317.96,2.81
321.14,2.72
324.35,2.63
327.59,2.55
330.87,2.48
334.18,2.40
337.52,2.32
340.90,2.24
344.30,2.17
347.75,2.11
351.23,2.04
354.74,1.96
358.28,1.89
361.87,1.82
365.49,1.75
369.14,1.68
372.83,1.60
376.56,1.51
380.33,1.45
384.13,1.39
387.97,1.31
391.85,1.22
395.77,1.14
399.73,1.07
403.72,1.01
407.76,0.93
411.84,0.86
415.96,0.79
420.12,0.73
424.32,0.67
428.56,0.61
432.85,0.55
437.18,0.48
441.55,0.42
445.96,0.36
450.42,0.30
454.93,0.25
459.48,0.19
464.07,0.14
468.71,0.08
473.40,0.01
478.13,-0.05
482.91,-0.10
487.74,-0.14
492.62,-0.19
497.55,-0.27
502.52,-0.33
507.55,-0.38
512.62,-0.42
517.75,-0.48
522.93,-0.54
528.16,-0.61
533.44,-0.66
538.77,-0.73
544.16,-0.78
549.60,-0.81
555.10,-0.85
560.65,-0.90
566.25,-0.95
571.92,-1.00
577.64,-1.04
583.41,-1.08
589.25,-1.13
595.14,-1.18
601.09,-1.22
607.10,-1.25
613.17,-1.29
619.30,-1.33
625.50,-1.38
631.75,-1.43
638.07,-1.49
644.45,-1.54
650.89,-1.58
657.40,-1.61
663.98,-1.65
670.62,-1.66
677.32,-1.69
684.10,-1.73
690.94,-1.77
697.85,-1.81
704.83,-1.86
711.87,-1.90
718.99,-1.92
726.18,-1.94
733.44,-1.97
740.78,-2.01
748.19,-2.04
755.67,-2.07
763.23,-2.10
770.86,-2.10
778.57,-2.10
786.35,-2.11
794.22,-2.10
802.16,-2.10
810.18,-2.12
818.28,-2.14
826.46,-2.15
834.73,-2.19
843.08,-2.21
851.51,-2.24
860.02,-2.26
868.62,-2.28
877.31,-2.30
886.08,-2.31
894.94,-2.32
903.89,-2.31
912.93,-2.30
922.06,-2.27
931.28,-2.23
940.59,-2.20
950.00,-2.15
959.50,-2.12
969.09,-2.08
978.78,-2.04
988.57,-1.99
998.46,-1.94
1008.44,-1.89
1018.53,-1.83
1028.71,-1.76
1039.00,-1.68
1049.39,-1.60
1059.88,-1.54
1070.48,-1.48
1081.19,-1.42
1092.00,-1.37
1102.92,-1.30
1113.95,-1.24
1125.09,-1.19
1136.34,-1.13
1147.70,-1.08
1159.18,-1.03
1170.77,-0.98
1182.48,-0.92
1194.30,-0.87
1206.25,-0.80
1218.31,-0.72
1230.49,-0.61
1242.80,-0.51
1255.22,-0.40
1267.78,-0.30
1280.45,-0.20
1293.26,-0.09
1306.19,0.00
1319.25,0.10
1332.45,0.19
1345.77,0.29
1359.23,0.39
1372.82,0.49
1386.55,0.59
1400.41,0.69
1414.42,0.79
1428.56,0.89
1442.85,0.98
1457.28,1.10
1471.85,1.21
1486.57,1.31
1501.43,1.41
1516.45,1.50
1531.61,1.60
1546.93,1.70
1562.40,1.81
1578.02,1.93
1593.80,2.02
1609.74,2.11
1625.84,2.21
1642.10,2.32
1658.52,2.42
1675.10,2.52
1691.85,2.62
1708.77,2.72
1725.86,2.83
1743.12,2.94
1760.55,3.07
1778.15,3.20
1795.94,3.31
1813.90,3.42
1832.03,3.54
1850.36,3.68
1868.86,3.80
1887.55,3.95
1906.42,4.10
1925.49,4.24
1944.74,4.37
1964.19,4.51
1983.83,4.65
2003.67,4.77
2023.71,4.90
2043.94,5.02
2064.38,5.14
2085.03,5.25
2105.88,5.37
2126.94,5.48
2148.20,5.58
2169.69,5.68
2191.38,5.78
2213.30,5.88
2235.43,5.98
2257.78,6.07
2280.36,6.16
2303.17,6.24
2326.20,6.30
2349.46,6.36
2372.95,6.42
2396.68,6.48
2420.65,6.52
2444.86,6.55
2469.31,6.59
2494.00,6.60
2518.94,6.61
2544.13,6.61
2569.57,6.59
2595.27,6.56
2621.22,6.54
2647.43,6.51
2673.90,6.45
2700.64,6.39
2727.65,6.30
2754.93,6.20
2782.48,6.10
2810.30,5.99
2838.40,5.88
2866.79,5.76
2895.46,5.62
2924.41,5.49
2953.65,5.34
2983.19,5.17
3013.02,5.00
3043.15,4.82
3073.58,4.63
3104.32,4.46
3135.36,4.28
3166.72,4.09
3198.38,3.91
3230.37,3.71
3262.67,3.52
3295.30,3.31
3328.25,3.09
3361.53,2.88
3395.15,2.68
3429.10,2.47
3463.39,2.27
3498.03,2.04
3533.01,1.83
3568.34,1.59
3604.02,1.36
3640.06,1.12
3676.46,0.87
3713.22,0.61
3750.36,0.38
3787.86,0.15
3825.74,-0.09
3864.00,-0.32
3902.64,-0.58
3941.66,-0.83
3981.08,-1.08
4020.89,-1.32
4061.10,-1.57
4101.71,-1.83
4142.73,-2.08
4184.15,-2.33
4226.00,-2.58
4268.26,-2.80
4310.94,-3.04
4354.05,-3.28
4397.59,-3.51
4441.56,-3.73
4485.98,-3.93
4530.84,-4.12
4576.15,-4.29
4621.91,-4.44
4668.13,-4.58
4714.81,-4.73
4761.96,-4.86
4809.58,-4.96
4857.67,-5.06
4906.25,-5.14
4955.31,-5.22
5004.87,-5.30
5054.91,-5.34
5105.46,-5.39
5156.52,-5.44
5208.08,-5.51
5260.16,-5.55
5312.77,-5.60
5365.89,-5.65
5419.55,-5.68
5473.75,-5.70
5528.49,-5.72
5583.77,-5.72
5639.61,-5.69
5696.00,-5.67
5752.96,-5.62
5810.49,-5.55
5868.60,-5.44
5927.28,-5.33
5986.56,-5.19
6046.42,-5.03
6106.89,-4.84
6167.96,-4.65
6229.64,-4.48
6291.93,-4.28
6354.85,-4.09
6418.40,-3.87
6482.58,-3.64
6547.41,-3.40
6612.88,-3.14
6679.01,-2.88
6745.80,-2.59
6813.26,-2.29
6881.39,-1.96
6950.21,-1.61
7019.71,-1.22
7089.91,-0.81
7160.81,-0.34
7232.41,0.13
7304.74,0.65
7377.79,1.17
7451.56,1.71
7526.08,2.26
7601.34,2.81
7677.35,3.34
7754.13,3.85
7831.67,4.32
7909.98,4.77
7989.08,5.19
8068.98,5.57
8149.67,5.89
8231.16,6.17
8313.47,6.39
8396.61,6.56
8480.57,6.66
8565.38,6.70
8651.03,6.69
8737.54,6.62
8824.92,6.52
8913.17,6.38
9002.30,6.20
9092.32,5.99
9183.25,5.74
9275.08,5.49
9367.83,5.22
9461.51,4.90
9556.12,4.59
9651.68,4.27
9748.20,3.95
9845.68,3.60
9944.14,3.27
10043.58,2.90
10144.02,2.49
10245.46,2.02
10347.91,1.49
10451.39,0.87
10555.91,0.18
10661.46,-0.60
10768.08,-1.46
10875.76,-2.40
10984.52,-3.41
11094.36,-4.47
11205.31,-5.55
11317.36,-6.61
11430.53,-7.65
11544.84,-8.65
11660.29,-9.59
11776.89,-10.47
11894.66,-11.22
12013.60,-11.87
12133.74,-12.41
12255.08,-12.85
12377.63,-13.20
12501.41,-13.47
12626.42,-13.66
12752.68,-13.79
12880.21,-13.87
13009.01,-13.91
13139.10,-13.94
13270.49,-13.94
13403.20,-13.92
13537.23,-13.86
13672.60,-13.79
13809.33,-13.70
13947.42,-13.61
14086.90,-13.49
14227.77,-13.37
14370.04,-13.22
14513.74,-13.09
14658.88,-12.95
14805.47,-12.81
14953.52,-12.68
15103.06,-12.61
15254.09,-12.55
15406.63,-12.52
15560.70,-12.52
15716.30,-12.56
15873.47,-12.64
16032.20,-12.76
16192.52,-12.90
16354.45,-13.05
16517.99,-13.18
16683.17,-13.26
16850.01,-13.25
17018.51,-13.15
17188.69,-12.93
17360.58,-12.60
17534.18,-12.21
17709.53,-11.76
17886.62,-11.25
18065.49,-10.77
18246.14,-10.35
18428.60,-9.94
18612.89,-9.50
18799.02,-9.04
18987.01,-8.55
19176.88,-8.06
19368.65,-7.54
19562.33,-7.00
19757.96,-6.44
19955.54,-5.86
