frequency,raw,error,smoothed,error_smoothed,equalization,parametric_eq,fixed_band_eq,equalized_raw,equalized_smoothed,target
20.00,14.54,8.98,14.54,8.98,-8.94,-7.97,-3.78,5.60,5.60,5.56
20.20,14.51,8.96,14.51,8.95,-8.94,-7.97,-3.88,5.57,5.57,5.55
20.40,14.48,8.93,14.48,8.93,-8.93,-7.97,-3.99,5.54,5.54,5.55
20.61,14.45,8.91,14.45,8.91,-8.93,-7.97,-4.10,5.52,5.52,5.54
20.81,14.43,8.90,14.42,8.89,-8.93,-7.97,-4.21,5.50,5.50,5.53
21.02,14.40,8.88,14.41,8.88,-8.92,-7.97,-4.33,5.48,5.49,5.52
21.23,14.41,8.89,14.41,8.89,-8.91,-7.97,-4.44,5.50,5.50,5.52
21.44,14.43,8.90,14.42,8.90,-8.91,-7.97,-4.57,5.52,5.52,5.53
21.66,14.44,8.92,14.44,8.92,-8.91,-7.97,-4.69,5.53,5.53,5.52
21.87,14.45,8.93,14.45,8.93,-8.91,-7.97,-4.82,5.54,5.54,5.52
22.09,14.44,8.93,14.43,8.92,-8.90,-7.97,-4.95,5.54,5.54,5.51
22.31,14.41,8.90,14.41,8.90,-8.89,-7.97,-5.09,5.52,5.52,5.51
22.54,14.37,8.87,14.37,8.87,-8.87,-7.97,-5.22,5.50,5.50,5.50
22.76,14.34,8.83,14.34,8.83,-8.85,-7.97,-5.37,5.49,5.49,5.51
22.99,14.30,8.79,14.30,8.80,-8.82,-7.97,-5.51,5.48,5.49,5.51
23.22,14.28,8.78,14.28,8.78,-8.79,-7.97,-5.66,5.49,5.49,5.50
23.45,14.25,8.75,14.25,8.76,-8.76,-7.97,-5.82,5.49,5.49,5.49
23.69,14.23,8.74,14.23,8.74,-8.73,-7.97,-5.97,5.50,5.50,5.49
23.92,14.21,8.72,14.21,8.71,-8.70,-7.97,-6.13,5.51,5.50,5.49
24.16,14.18,8.68,14.18,8.68,-8.68,-7.97,-6.30,5.50,5.51,5.50
24.40,14.16,8.65,14.16,8.65,-8.65,-7.97,-6.46,5.51,5.50,5.51
24.65,14.13,8.62,14.13,8.62,-8.63,-7.97,-6.63,5.50,5.51,5.51
24.89,14.11,8.60,14.11,8.60,-8.60,-7.97,-6.81,5.51,5.51,5.51
25.14,14.09,8.59,14.08,8.58,-8.58,-7.97,-6.98,5.51,5.51,5.50
25.39,14.06,8.56,14.06,8.56,-8.56,-7.97,-7.16,5.50,5.50,5.50
25.65,14.04,8.54,14.04,8.54,-8.55,-7.97,-7.34,5.49,5.49,5.50
25.91,14.02,8.52,14.02,8.53,-8.54,-7.97,-7.52,5.48,5.48,5.50
26.16,14.01,8.51,14.01,8.52,-8.53,-7.97,-7.70,5.48,5.48,5.49
26.43,14.01,8.53,14.01,8.52,-8.53,-7.96,-7.88,5.48,5.48,5.48
26.69,14.00,8.52,14.00,8.52,-8.52,-7.96,-8.06,5.48,5.49,5.48
26.96,14.00,8.53,13.99,8.52,-8.51,-7.96,-8.24,5.49,5.49,5.47
27.23,13.98,8.52,13.98,8.51,-8.50,-7.96,-8.41,5.48,5.48,5.46
27.50,13.95,8.49,13.95,8.49,-8.49,-7.96,-8.59,5.46,5.47,5.46
27.77,13.92,8.46,13.92,8.46,-8.47,-7.96,-8.76,5.45,5.45,5.46
28.05,13.89,8.43,13.89,8.44,-8.45,-7.96,-8.92,5.44,5.45,5.46
28.33,13.87,8.41,13.87,8.41,-8.42,-7.96,-9.08,5.45,5.45,5.45
28.62,13.84,8.40,13.84,8.39,-8.39,-7.95,-9.23,5.45,5.45,5.44
28.90,13.81,8.36,13.81,8.36,-8.36,-7.95,-9.37,5.45,5.45,5.45
29.19,13.78,8.33,13.78,8.33,-8.33,-7.95,-9.50,5.45,5.45,5.45
29.48,13.75,8.29,13.75,8.29,-8.30,-7.95,-9.62,5.45,5.45,5.46
29.78,13.72,8.26,13.72,8.26,-8.27,-7.95,-9.73,5.45,5.45,5.46
30.08,13.69,8.23,13.69,8.23,-8.23,-7.95,-9.82,5.46,5.46,5.46
30.38,13.66,8.21,13.66,8.21,-8.20,-7.94,-9.91,5.46,5.46,5.45
30.68,13.63,8.18,13.63,8.18,-8.17,-7.94,-9.97,5.46,5.46,5.45
30.99,13.60,8.16,13.60,8.16,-8.16,-7.94,-10.02,5.44,5.44,5.44
31.30,13.57,8.13,13.57,8.13,-8.15,-7.93,-10.05,5.42,5.42,5.44
31.61,13.54,8.11,13.54,8.11,-8.14,-7.93,-10.08,5.40,5.39,5.43
31.93,13.51,8.09,13.52,8.10,-8.13,-7.93,-10.07,5.38,5.39,5.42
32.24,13.52,8.10,13.53,8.12,-8.12,-7.93,-10.07,5.40,5.42,5.42
32.57,13.55,8.14,13.55,8.14,-8.09,-7.92,-10.03,5.45,5.46,5.41
32.89,13.57,8.18,13.55,8.15,-8.08,-7.92,-10.00,5.49,5.47,5.39
33.22,13.51,8.12,13.49,8.10,-8.06,-7.91,-9.94,5.45,5.43,5.39
33.55,13.40,8.01,13.40,8.01,-8.04,-7.91,-9.88,5.36,5.36,5.39
33.89,13.29,7.90,13.32,7.94,-8.01,-7.91,-9.80,5.27,5.31,5.39
34.23,13.29,7.92,13.30,7.93,-7.98,-7.90,-9.72,5.31,5.32,5.37
34.57,13.32,7.95,13.32,7.95,-7.95,-7.90,-9.62,5.37,5.37,5.37
34.92,13.36,8.00,13.33,7.97,-7.91,-7.89,-9.52,5.44,5.41,5.36
35.27,13.30,7.94,13.28,7.93,-7.89,-7.89,-9.42,5.41,5.39,5.36
35.62,13.20,7.86,13.21,7.87,-7.87,-7.88,-9.31,5.33,5.34,5.34
35.97,13.11,7.78,13.14,7.81,-7.84,-7.88,-9.19,5.27,5.30,5.33
36.33,13.10,7.79,13.11,7.80,-7.81,-7.87,-9.08,5.29,5.30,5.31
36.70,13.11,7.81,13.10,7.80,-7.77,-7.86,-8.96,5.33,5.32,5.30
37.06,13.09,7.80,13.06,7.77,-7.75,-7.86,-8.85,5.34,5.31,5.28
37.43,12.99,7.72,12.98,7.71,-7.73,-7.85,-8.73,5.26,5.25,5.27
37.81,12.88,7.63,12.91,7.66,-7.72,-7.84,-8.62,5.16,5.19,5.25
38.19,12.86,7.64,12.89,7.67,-7.72,-7.83,-8.51,5.14,5.17,5.22
38.57,12.92,7.72,12.91,7.72,-7.72,-7.83,-8.40,5.20,5.19,5.20
38.95,12.97,7.80,12.93,7.76,-7.71,-7.82,-8.30,5.26,5.22,5.17
39.34,12.90,7.75,12.89,7.75,-7.70,-7.81,-8.19,5.20,5.20,5.15
39.74,12.81,7.69,12.83,7.71,-7.68,-7.80,-8.10,5.13,5.14,5.12
40.14,12.74,7.64,12.76,7.67,-7.66,-7.79,-8.00,5.08,5.10,5.10
40.54,12.72,7.65,12.72,7.65,-7.63,-7.78,-7.91,5.09,5.08,5.07
40.94,12.69,7.64,12.66,7.61,-7.61,-7.77,-7.83,5.08,5.05,5.04
41.35,12.59,7.56,12.58,7.55,-7.58,-7.76,-7.75,5.01,4.99,5.03
41.76,12.48,7.48,12.50,7.50,-7.56,-7.75,-7.67,4.92,4.94,5.00
42.18,12.44,7.45,12.48,7.50,-7.54,-7.73,-7.60,4.90,4.93,4.99
42.60,12.50,7.54,12.49,7.53,-7.53,-7.72,-7.54,4.97,4.96,4.96
43.03,12.55,7.62,12.51,7.57,-7.52,-7.71,-7.48,5.03,4.99,4.93
43.46,12.48,7.56,12.49,7.58,-7.51,-7.70,-7.42,4.97,4.97,4.91
43.90,12.41,7.52,12.42,7.53,-7.51,-7.68,-7.38,4.90,4.91,4.89
44.33,12.34,7.48,12.33,7.47,-7.50,-7.67,-7.33,4.83,4.83,4.86
44.78,12.27,7.44,12.29,7.45,-7.49,-7.65,-7.30,4.78,4.79,4.83
45.23,12.25,7.44,12.27,7.46,-7.47,-7.64,-7.26,4.77,4.79,4.81
45.68,12.27,7.50,12.25,7.48,-7.46,-7.62,-7.24,4.81,4.80,4.77
46.13,12.25,7.51,12.20,7.47,-7.44,-7.61,-7.22,4.80,4.76,4.73
46.60,12.13,7.42,12.14,7.43,-7.43,-7.59,-7.20,4.70,4.70,4.71
47.06,12.02,7.34,12.08,7.41,-7.43,-7.58,-7.19,4.59,4.65,4.68
47.53,12.05,7.40,12.04,7.41,-7.42,-7.56,-7.18,4.62,4.62,4.65
48.01,12.07,7.48,12.02,7.42,-7.41,-7.55,-7.18,4.65,4.61,4.59
48.49,11.98,7.42,11.98,7.43,-7.40,-7.53,-7.18,4.58,4.58,4.56
48.97,11.89,7.37,11.91,7.40,-7.38,-7.51,-7.19,4.50,4.53,4.51
49.46,11.84,7.37,11.84,7.37,-7.37,-7.50,-7.20,4.47,4.47,4.47
49.96,11.79,7.37,11.79,7.36,-7.36,-7.48,-7.21,4.43,4.43,4.42
50.46,11.75,7.35,11.75,7.35,-7.35,-7.47,-7.23,4.40,4.40,4.40
50.96,11.70,7.33,11.69,7.33,-7.34,-7.45,-7.25,4.36,4.35,4.37
51.47,11.65,7.32,11.64,7.31,-7.34,-7.44,-7.28,4.31,4.31,4.33
51.99,11.59,7.30,11.61,7.32,-7.34,-7.42,-7.31,4.25,4.28,4.29
52.51,11.59,7.33,11.59,7.33,-7.34,-7.41,-7.34,4.25,4.25,4.26
53.03,11.59,7.37,11.57,7.35,-7.34,-7.40,-7.37,4.25,4.23,4.22
53.56,11.53,7.35,11.54,7.36,-7.33,-7.38,-7.40,4.20,4.21,4.18
54.10,11.48,7.35,11.49,7.35,-7.33,-7.37,-7.43,4.15,4.16,4.13
54.64,11.43,7.33,11.42,7.33,-7.32,-7.36,-7.47,4.11,4.10,4.10
55.18,11.37,7.32,11.36,7.31,-7.32,-7.35,-7.50,4.05,4.04,4.05
55.74,11.29,7.28,11.30,7.28,-7.31,-7.34,-7.53,3.98,3.98,4.01
56.29,11.24,7.26,11.24,7.26,-7.30,-7.33,-7.56,3.94,3.94,3.98
56.86,11.20,7.24,11.22,7.28,-7.28,-7.32,-7.59,3.92,3.94,3.96
57.42,11.20,7.30,11.21,7.29,-7.26,-7.31,-7.61,3.94,3.94,3.90
58.00,11.22,7.34,11.16,7.28,-7.24,-7.30,-7.64,3.98,3.93,3.88
58.58,11.09,7.23,11.11,7.26,-7.21,-7.29,-7.66,3.87,3.89,3.86
59.16,11.00,7.17,11.04,7.21,-7.20,-7.28,-7.67,3.80,3.84,3.83
59.76,10.98,7.18,10.94,7.14,-7.18,-7.28,-7.68,3.80,3.75,3.80
60.35,10.89,7.14,10.86,7.11,-7.17,-7.27,-7.69,3.72,3.69,3.74
60.96,10.75,7.04,10.82,7.11,-7.16,-7.26,-7.69,3.59,3.66,3.71
61.57,10.79,7.13,10.79,7.13,-7.15,-7.25,-7.68,3.64,3.64,3.66
62.18,10.81,7.20,10.78,7.17,-7.14,-7.24,-7.67,3.67,3.64,3.61
62.80,10.76,7.21,10.75,7.19,-7.14,-7.23,-7.65,3.62,3.61,3.55
63.43,10.67,7.16,10.68,7.17,-7.13,-7.22,-7.62,3.54,3.54,3.51
64.07,10.57,7.11,10.60,7.14,-7.13,-7.21,-7.59,3.44,3.47,3.46
64.71,10.55,7.13,10.52,7.10,-7.12,-7.20,-7.56,3.43,3.40,3.42
65.35,10.48,7.10,10.46,7.08,-7.11,-7.19,-7.52,3.37,3.35,3.38
66.01,10.36,7.02,10.41,7.07,-7.10,-7.18,-7.47,3.26,3.31,3.34
66.67,10.37,7.07,10.36,7.07,-7.08,-7.17,-7.42,3.29,3.28,3.30
67.33,10.34,7.10,10.32,7.07,-7.06,-7.16,-7.36,3.28,3.26,3.24
68.01,10.28,7.08,10.28,7.08,-7.05,-7.14,-7.30,3.23,3.23,3.20
68.69,10.20,7.04,10.22,7.06,-7.04,-7.13,-7.24,3.16,3.17,3.16
69.37,10.15,7.03,10.14,7.03,-7.04,-7.11,-7.17,3.11,3.11,3.12
70.07,10.10,7.04,10.07,7.01,-7.03,-7.10,-7.10,3.07,3.04,3.06
70.77,9.99,6.97,10.03,7.00,-7.02,-7.08,-7.03,2.97,3.00,3.02
71.48,9.97,7.00,9.97,7.00,-7.01,-7.06,-6.96,2.96,2.96,2.97
72.19,9.96,7.03,9.93,7.00,-6.99,-7.05,-6.89,2.97,2.93,2.93
72.91,9.87,7.00,9.88,7.01,-6.97,-7.03,-6.82,2.90,2.91,2.87
73.64,9.81,6.98,9.81,6.99,-6.96,-7.01,-6.75,2.85,2.86,2.83
74.38,9.74,6.95,9.74,6.95,-6.94,-6.98,-6.67,2.80,2.80,2.79
75.12,9.67,6.92,9.66,6.91,-6.92,-6.96,-6.60,2.74,2.74,2.75
75.87,9.59,6.87,9.59,6.88,-6.91,-6.94,-6.53,2.68,2.68,2.72
76.63,9.53,6.86,9.53,6.86,-6.89,-6.92,-6.47,2.63,2.64,2.67
77.40,9.49,6.85,9.50,6.86,-6.88,-6.89,-6.40,2.61,2.62,2.64
78.17,9.48,6.88,9.48,6.88,-6.87,-6.87,-6.34,2.61,2.61,2.60
78.95,9.48,6.90,9.45,6.88,-6.86,-6.84,-6.28,2.62,2.59,2.58
79.74,9.41,6.87,9.41,6.87,-6.85,-6.81,-6.23,2.56,2.56,2.54
80.54,9.34,6.83,9.35,6.84,-6.83,-6.78,-6.17,2.51,2.52,2.51
81.35,9.29,6.82,9.29,6.82,-6.81,-6.76,-6.12,2.48,2.48,2.47
82.16,9.23,6.78,9.23,6.79,-6.78,-6.73,-6.08,2.45,2.45,2.45
82.98,9.17,6.77,9.15,6.74,-6.74,-6.70,-6.04,2.43,2.41,2.40
83.81,9.04,6.68,9.06,6.70,-6.69,-6.67,-6.00,2.35,2.37,2.36
84.65,8.97,6.64,8.98,6.65,-6.66,-6.64,-5.97,2.31,2.32,2.33
85.50,8.91,6.62,8.89,6.61,-6.63,-6.60,-5.94,2.28,2.27,2.29
86.35,8.83,6.58,8.83,6.58,-6.60,-6.57,-5.92,2.23,2.23,2.25
87.22,8.76,6.55,8.76,6.55,-6.59,-6.54,-5.90,2.17,2.18,2.21
88.09,8.72,6.55,8.73,6.56,-6.57,-6.51,-5.88,2.15,2.16,2.17
88.97,8.68,6.55,8.70,6.58,-6.56,-6.47,-5.87,2.12,2.15,2.13
89.86,8.71,6.62,8.66,6.57,-6.55,-6.44,-5.86,2.16,2.11,2.09
90.76,8.61,6.57,8.60,6.56,-6.54,-6.41,-5.86,2.07,2.07,2.04
91.66,8.49,6.50,8.54,6.55,-6.53,-6.37,-5.86,1.96,2.02,1.99
92.58,8.48,6.53,8.46,6.51,-6.52,-6.34,-5.87,1.96,1.94,1.95
93.51,8.42,6.52,8.38,6.48,-6.51,-6.31,-5.87,1.91,1.87,1.90
94.44,8.29,6.43,8.33,6.47,-6.50,-6.27,-5.89,1.79,1.83,1.86
95.39,8.25,6.44,8.27,6.47,-6.48,-6.24,-5.90,1.77,1.79,1.81
96.34,8.26,6.51,8.24,6.48,-6.47,-6.20,-5.93,1.79,1.77,1.75
97.30,8.21,6.51,8.19,6.50,-6.46,-6.17,-5.95,1.75,1.74,1.70
98.28,8.12,6.48,8.12,6.48,-6.44,-6.13,-5.98,1.67,1.67,1.64
99.26,8.00,6.42,8.01,6.43,-6.44,-6.10,-6.01,1.56,1.57,1.57
100.25,7.91,6.39,7.91,6.39,-6.42,-6.07,-6.05,1.49,1.49,1.52
101.25,7.83,6.36,7.84,6.37,-6.40,-6.03,-6.08,1.43,1.44,1.47
102.27,7.79,6.37,7.79,6.38,-6.38,-6.00,-6.12,1.41,1.42,1.42
103.29,7.75,6.39,7.72,6.36,-6.35,-5.97,-6.16,1.40,1.37,1.36
104.32,7.66,6.35,7.65,6.34,-6.33,-5.94,-6.21,1.33,1.33,1.31
105.37,7.52,6.27,7.57,6.32,-6.30,-5.90,-6.25,1.22,1.27,1.25
106.42,7.52,6.32,7.47,6.27,-6.28,-5.87,-6.29,1.24,1.19,1.20
107.48,7.39,6.25,7.39,6.25,-6.25,-5.84,-6.34,1.14,1.14,1.13
108.56,7.26,6.17,7.32,6.23,-6.22,-5.81,-6.39,1.04,1.10,1.09
109.64,7.26,6.23,7.21,6.18,-6.19,-5.78,-6.43,1.07,1.02,1.03
110.74,7.15,6.17,7.13,6.15,-6.16,-5.76,-6.47,0.99,0.97,0.98
111.85,6.99,6.06,7.07,6.14,-6.13,-5.73,-6.51,0.86,0.94,0.93
112.97,7.01,6.12,6.98,6.09,-6.10,-5.70,-6.55,0.91,0.87,0.89
114.10,6.96,6.12,6.91,6.07,-6.08,-5.68,-6.59,0.88,0.83,0.84
115.24,6.79,6.01,6.86,6.07,-6.06,-5.65,-6.62,0.73,0.80,0.78
116.39,6.78,6.05,6.76,6.03,-6.04,-5.63,-6.65,0.74,0.72,0.73
117.55,6.73,6.04,6.70,6.01,-6.02,-5.60,-6.68,0.71,0.68,0.69
118.73,6.61,5.97,6.66,6.02,-6.00,-5.58,-6.70,0.60,0.66,0.64
119.92,6.63,6.03,6.60,5.99,-5.99,-5.56,-6.71,0.64,0.61,0.60
121.12,6.56,5.98,6.53,5.96,-5.98,-5.54,-6.72,0.58,0.56,0.58
122.33,6.46,5.92,6.50,5.96,-5.96,-5.52,-6.72,0.50,0.54,0.53
123.55,6.43,5.93,6.45,5.94,-5.95,-5.50,-6.72,0.48,0.50,0.50
124.79,6.45,5.98,6.40,5.93,-5.93,-5.49,-6.70,0.52,0.47,0.47
126.03,6.35,5.92,6.36,5.93,-5.92,-5.47,-6.69,0.43,0.45,0.43
127.29,6.29,5.90,6.30,5.91,-5.90,-5.46,-6.66,0.39,0.40,0.39
128.57,6.24,5.89,6.23,5.87,-5.88,-5.44,-6.64,0.36,0.35,0.35
129.85,6.17,5.85,6.18,5.86,-5.86,-5.43,-6.60,0.30,0.32,0.32
131.15,6.13,5.84,6.12,5.84,-5.84,-5.42,-6.56,0.28,0.28,0.29
132.46,6.07,5.82,6.06,5.82,-5.83,-5.41,-6.51,0.24,0.24,0.25
133.79,6.00,5.80,6.01,5.81,-5.81,-5.40,-6.46,0.19,0.21,0.20
135.12,5.96,5.79,5.95,5.78,-5.78,-5.39,-6.40,0.18,0.17,0.17
136.48,5.90,5.77,5.89,5.76,-5.76,-5.39,-6.34,0.14,0.13,0.13
137.84,5.82,5.72,5.83,5.74,-5.74,-5.38,-6.27,0.08,0.09,0.10
139.22,5.76,5.72,5.77,5.71,-5.70,-5.37,-6.20,0.05,0.06,0.04
140.61,5.70,5.68,5.70,5.68,-5.67,-5.37,-6.13,0.03,0.02,0.02
142.02,5.64,5.66,5.62,5.64,-5.64,-5.37,-6.05,0.00,-0.02,-0.02
143.44,5.52,5.58,5.54,5.60,-5.60,-5.36,-5.98,-0.08,-0.06,-0.06
144.87,5.45,5.54,5.45,5.55,-5.56,-5.36,-5.90,-0.11,-0.11,-0.09
146.32,5.39,5.52,5.38,5.51,-5.52,-5.36,-5.82,-0.13,-0.14,-0.13
147.78,5.31,5.48,5.32,5.49,-5.49,-5.36,-5.75,-0.18,-0.17,-0.17
149.26,5.25,5.46,5.25,5.46,-5.45,-5.36,-5.67,-0.21,-0.21,-0.21
150.75,5.18,5.44,5.18,5.43,-5.43,-5.36,-5.59,-0.25,-0.25,-0.26
152.26,5.11,5.39,5.11,5.40,-5.41,-5.36,-5.51,-0.30,-0.30,-0.28
153.78,5.06,5.39,5.05,5.38,-5.40,-5.36,-5.44,-0.34,-0.35,-0.33
155.32,5.00,5.35,5.02,5.38,-5.39,-5.37,-5.37,-0.39,-0.37,-0.35
156.88,4.99,5.39,4.99,5.39,-5.38,-5.37,-5.29,-0.39,-0.39,-0.40
158.44,4.98,5.42,4.94,5.38,-5.37,-5.37,-5.23,-0.39,-0.43,-0.44
160.03,4.87,5.35,4.89,5.37,-5.35,-5.37,-5.16,-0.48,-0.47,-0.48
161.63,4.79,5.31,4.82,5.35,-5.34,-5.37,-5.10,-0.55,-0.51,-0.52
163.24,4.78,5.35,4.75,5.32,-5.32,-5.37,-5.04,-0.54,-0.57,-0.58
164.88,4.69,5.30,4.68,5.29,-5.29,-5.38,-4.98,-0.60,-0.62,-0.62
166.53,4.57,5.23,4.60,5.26,-5.26,-5.38,-4.92,-0.69,-0.66,-0.66
168.19,4.52,5.22,4.51,5.22,-5.23,-5.38,-4.87,-0.71,-0.72,-0.70
169.87,4.46,5.21,4.44,5.19,-5.20,-5.38,-4.82,-0.74,-0.76,-0.75
171.57,4.36,5.16,4.38,5.17,-5.17,-5.37,-4.78,-0.81,-0.79,-0.80
173.29,4.32,5.15,4.31,5.15,-5.14,-5.37,-4.74,-0.82,-0.83,-0.83
175.02,4.24,5.12,4.25,5.12,-5.12,-5.37,-4.70,-0.88,-0.87,-0.88
176.77,4.19,5.11,4.19,5.11,-5.10,-5.37,-4.67,-0.91,-0.91,-0.92
178.54,4.13,5.09,4.12,5.09,-5.09,-5.36,-4.64,-0.96,-0.96,-0.96
180.32,4.06,5.06,4.06,5.06,-5.08,-5.35,-4.61,-1.02,-1.02,-1.00
182.13,4.00,5.04,4.00,5.04,-5.07,-5.35,-4.59,-1.07,-1.07,-1.04
183.95,3.94,5.01,3.98,5.06,-5.06,-5.34,-4.57,-1.12,-1.08,-1.08
185.79,3.97,5.09,3.95,5.07,-5.06,-5.33,-4.55,-1.09,-1.10,-1.12
187.65,3.97,5.12,3.92,5.06,-5.05,-5.32,-4.54,-1.08,-1.13,-1.15
189.52,3.84,5.03,3.88,5.06,-5.04,-5.30,-4.53,-1.20,-1.16,-1.19
191.42,3.80,5.01,3.82,5.04,-5.03,-5.29,-4.52,-1.24,-1.21,-1.21
193.33,3.81,5.06,3.76,5.01,-5.03,-5.27,-4.52,-1.22,-1.26,-1.25
195.27,3.71,4.99,3.72,5.00,-5.01,-5.25,-4.51,-1.30,-1.29,-1.28
197.22,3.64,4.96,3.66,4.98,-4.98,-5.23,-4.52,-1.34,-1.32,-1.32
199.19,3.61,4.96,3.60,4.95,-4.95,-5.21,-4.52,-1.34,-1.36,-1.35
201.18,3.56,4.94,3.56,4.94,-4.92,-5.19,-4.53,-1.36,-1.36,-1.39
203.19,3.50,4.91,3.50,4.91,-4.89,-5.16,-4.53,-1.39,-1.39,-1.41
205.23,3.45,4.89,3.42,4.86,-4.86,-5.13,-4.54,-1.41,-1.44,-1.44
207.28,3.32,4.78,3.34,4.81,-4.82,-5.10,-4.55,-1.50,-1.48,-1.46
209.35,3.25,4.76,3.27,4.77,-4.79,-5.07,-4.57,-1.54,-1.52,-1.51
211.44,3.24,4.77,3.21,4.75,-4.76,-5.04,-4.58,-1.52,-1.55,-1.53
213.56,3.17,4.73,3.16,4.72,-4.74,-5.01,-4.59,-1.57,-1.57,-1.56
215.69,3.11,4.70,3.11,4.70,-4.71,-4.97,-4.61,-1.60,-1.60,-1.59
217.85,3.04,4.65,3.07,4.69,-4.69,-4.93,-4.62,-1.65,-1.61,-1.61
220.03,3.05,4.70,3.03,4.68,-4.66,-4.89,-4.63,-1.61,-1.63,-1.65
222.23,3.02,4.69,2.97,4.64,-4.63,-4.85,-4.64,-1.62,-1.66,-1.67
224.45,2.87,4.57,2.93,4.62,-4.60,-4.81,-4.65,-1.73,-1.67,-1.70
226.70,2.84,4.56,2.86,4.57,-4.56,-4.77,-4.66,-1.72,-1.71,-1.72
228.96,2.85,4.58,2.78,4.51,-4.52,-4.72,-4.67,-1.67,-1.74,-1.73
231.25,2.70,4.45,2.73,4.48,-4.48,-4.68,-4.67,-1.78,-1.75,-1.75
233.57,2.64,4.40,2.67,4.43,-4.44,-4.63,-4.68,-1.80,-1.77,-1.76
235.90,2.63,4.41,2.60,4.37,-4.40,-4.58,-4.67,-1.77,-1.81,-1.78
238.26,2.57,4.36,2.56,4.34,-4.37,-4.54,-4.67,-1.80,-1.81,-1.79
240.64,2.51,4.29,2.55,4.33,-4.33,-4.49,-4.66,-1.82,-1.79,-1.78
243.05,2.53,4.31,2.53,4.32,-4.31,-4.44,-4.65,-1.78,-1.77,-1.79
245.48,2.55,4.33,2.51,4.29,-4.28,-4.38,-4.63,-1.73,-1.77,-1.78
247.93,2.48,4.27,2.48,4.27,-4.24,-4.33,-4.60,-1.76,-1.76,-1.79
250.41,2.39,4.17,2.43,4.22,-4.21,-4.28,-4.58,-1.82,-1.77,-1.78
252.92,2.40,4.18,2.37,4.15,-4.16,-4.23,-4.55,-1.76,-1.79,-1.78
255.45,2.33,4.12,2.32,4.11,-4.11,-4.18,-4.51,-1.78,-1.79,-1.79
258.00,2.24,4.04,2.28,4.08,-4.06,-4.12,-4.47,-1.82,-1.78,-1.80
260.58,2.23,4.04,2.20,4.01,-4.01,-4.07,-4.42,-1.78,-1.81,-1.81
263.19,2.16,3.97,2.13,3.94,-3.97,-4.02,-4.37,-1.81,-1.84,-1.82
265.82,2.02,3.84,2.06,3.89,-3.93,-3.96,-4.32,-1.91,-1.87,-1.82
268.48,2.00,3.84,2.02,3.86,-3.89,-3.91,-4.26,-1.89,-1.87,-1.84
271.16,2.01,3.86,2.01,3.85,-3.85,-3.86,-4.20,-1.84,-1.84,-1.85
273.87,2.03,3.89,1.98,3.84,-3.81,-3.80,-4.14,-1.78,-1.83,-1.86
276.61,1.92,3.79,1.93,3.80,-3.76,-3.75,-4.07,-1.84,-1.84,-1.87
279.38,1.81,3.70,1.87,3.75,-3.72,-3.70,-4.00,-1.91,-1.85,-1.89
282.17,1.82,3.70,1.78,3.67,-3.68,-3.65,-3.93,-1.86,-1.89,-1.89
284.99,1.76,3.65,1.72,3.61,-3.63,-3.60,-3.86,-1.87,-1.91,-1.89
287.84,1.61,3.49,1.67,3.56,-3.58,-3.54,-3.78,-1.97,-1.92,-1.88
290.72,1.61,3.51,1.61,3.51,-3.53,-3.49,-3.71,-1.92,-1.92,-1.90
293.63,1.60,3.50,1.57,3.47,-3.49,-3.44,-3.63,-1.89,-1.91,-1.90
296.57,1.57,3.47,1.55,3.45,-3.44,-3.39,-3.55,-1.87,-1.89,-1.90
299.53,1.49,3.38,1.53,3.43,-3.40,-3.35,-3.47,-1.91,-1.87,-1.89
302.53,1.49,3.39,1.48,3.38,-3.36,-3.30,-3.39,-1.87,-1.87,-1.90
305.55,1.48,3.38,1.42,3.32,-3.31,-3.25,-3.32,-1.83,-1.89,-1.90
308.61,1.33,3.22,1.37,3.27,-3.27,-3.20,-3.24,-1.94,-1.89,-1.89
311.69,1.29,3.19,1.31,3.21,-3.22,-3.15,-3.16,-1.93,-1.91,-1.90
314.81,1.28,3.18,1.25,3.15,-3.18,-3.11,-3.08,-1.90,-1.92,-1.90
317.96,1.23,3.13,1.22,3.12,-3.14,-3.06,-3.01,-1.91,-1.92,-1.90
321.14,1.16,3.07,1.17,3.08,-3.09,-3.02,-2.93,-1.93,-1.92,-1.91
324.35,1.12,3.03,1.13,3.04,-3.05,-2.97,-2.86,-1.93,-1.91,-1.91
327.59,1.11,3.01,1.11,3.01,-3.00,-2.93,-2.79,-1.89,-1.90,-1.90
330.87,1.10,3.01,1.09,3.00,-2.96,-2.88,-2.72,-1.86,-1.87,-1.91
334.18,1.03,2.95,1.03,2.94,-2.91,-2.84,-2.65,-1.88,-1.87,-1.92
337.52,0.98,2.89,0.94,2.85,-2.85,-2.79,-2.58,-1.87,-1.91,-1.91
340.90,0.82,2.72,0.86,2.77,-2.79,-2.75,-2.52,-1.97,-1.93,-1.90
344.30,0.77,2.67,0.81,2.72,-2.73,-2.70,-2.46,-1.97,-1.92,-1.90
347.75,0.82,2.72,0.76,2.66,-2.67,-2.66,-2.39,-1.86,-1.91,-1.90
351.23,0.75,2.65,0.72,2.62,-2.61,-2.61,-2.33,-1.87,-1.89,-1.90
354.74,0.62,2.50,0.68,2.57,-2.56,-2.56,-2.27,-1.94,-1.88,-1.88
358.28,0.62,2.50,0.63,2.51,-2.51,-2.52,-2.22,-1.89,-1.88,-1.88
361.87,0.63,2.51,0.59,2.46,-2.46,-2.47,-2.16,-1.83,-1.87,-1.88
365.49,0.55,2.42,0.54,2.41,-2.41,-2.43,-2.11,-1.86,-1.86,-1.87
369.14,0.47,2.33,0.50,2.36,-2.35,-2.38,-2.06,-1.89,-1.86,-1.86
372.83,0.43,2.28,0.46,2.31,-2.31,-2.33,-2.01,-1.88,-1.85,-1.85
376.56,0.46,2.32,0.40,2.26,-2.26,-2.29,-1.96,-1.80,-1.86,-1.86
380.33,0.36,2.22,0.34,2.20,-2.22,-2.24,-1.91,-1.86,-1.87,-1.86
384.13,0.24,2.10,0.29,2.14,-2.17,-2.19,-1.87,-1.93,-1.89,-1.86
387.97,0.24,2.09,0.26,2.11,-2.13,-2.14,-1.82,-1.89,-1.87,-1.85
391.85,0.27,2.12,0.25,2.10,-2.08,-2.10,-1.78,-1.81,-1.83,-1.85
395.77,0.27,2.13,0.22,2.08,-2.04,-2.05,-1.74,-1.77,-1.83,-1.86
399.73,0.13,2.00,0.16,2.03,-2.00,-2.00,-1.70,-1.87,-1.84,-1.87
403.72,0.05,1.91,0.08,1.95,-1.96,-1.96,-1.66,-1.91,-1.88,-1.87
407.76,0.05,1.93,0.01,1.88,-1.92,-1.91,-1.62,-1.87,-1.91,-1.88
411.84,-0.05,1.84,-0.02,1.86,-1.87,-1.86,-1.58,-1.92,-1.89,-1.89
415.96,-0.06,1.83,-0.05,1.85,-1.82,-1.82,-1.55,-1.88,-1.87,-1.89
420.12,-0.06,1.84,-0.09,1.80,-1.78,-1.77,-1.52,-1.84,-1.88,-1.90
424.32,-0.13,1.76,-0.15,1.74,-1.74,-1.72,-1.48,-1.87,-1.90,-1.89
428.56,-0.23,1.64,-0.20,1.67,-1.70,-1.68,-1.45,-1.94,-1.91,-1.87
432.85,-0.26,1.59,-0.21,1.64,-1.67,-1.64,-1.42,-1.93,-1.88,-1.85
437.18,-0.16,1.67,-0.19,1.64,-1.63,-1.59,-1.39,-1.79,-1.82,-1.83
441.55,-0.13,1.67,-0.17,1.64,-1.60,-1.55,-1.36,-1.73,-1.76,-1.81
445.96,-0.18,1.59,-0.18,1.59,-1.57,-1.51,-1.33,-1.75,-1.74,-1.77
450.42,-0.22,1.50,-0.21,1.51,-1.54,-1.46,-1.30,-1.76,-1.75,-1.72
454.93,-0.24,1.43,-0.21,1.46,-1.51,-1.42,-1.27,-1.75,-1.72,-1.67
459.48,-0.16,1.46,-0.14,1.47,-1.47,-1.38,-1.24,-1.63,-1.61,-1.62
464.07,-0.06,1.49,-0.09,1.46,-1.42,-1.34,-1.22,-1.48,-1.52,-1.55
468.71,-0.02,1.47,-0.08,1.42,-1.38,-1.30,-1.19,-1.40,-1.46,-1.49
473.40,-0.14,1.30,-0.08,1.35,-1.33,-1.26,-1.16,-1.48,-1.42,-1.44
478.13,-0.14,1.24,-0.12,1.27,-1.29,-1.22,-1.14,-1.43,-1.41,-1.38
482.91,-0.07,1.26,-0.13,1.20,-1.24,-1.19,-1.11,-1.31,-1.37,-1.33
487.74,-0.15,1.13,-0.11,1.18,-1.18,-1.15,-1.09,-1.33,-1.29,-1.28
