frequency,raw
20.00,2.48
20.20,2.58
20.40,2.67
20.61,2.77
20.81,2.86
21.02,2.96
21.23,3.04
21.44,3.14
21.66,3.23
21.87,3.33
22.09,3.40
22.31,3.46
22.54,3.53
22.76,3.60
22.99,3.66
23.22,3.74
23.45,3.81
23.69,3.89
23.92,3.96
24.16,4.05
24.40,4.15
24.65,4.25
24.89,4.36
25.14,4.43
25.39,4.48
25.65,4.54
25.91,4.59
26.16,4.65
26.43,4.72
26.69,4.78
26.96,4.86
27.23,4.93
27.50,5.00
27.77,5.06
28.05,5.13
28.33,5.19
28.62,5.24
28.90,5.30
29.19,5.36
29.48,5.41
29.78,5.47
30.08,5.53
30.38,5.59
30.68,5.65
30.99,5.71
31.30,5.76
31.61,5.80
31.93,5.84
32.24,5.90
32.57,5.96
32.89,6.03
33.22,6.07
33.55,6.12
33.89,6.15
34.23,6.22
34.57,6.28
34.92,6.35
35.27,6.38
35.62,6.39
35.97,6.39
36.33,6.45
36.70,6.52
37.06,6.58
37.43,6.61
37.81,6.64
38.19,6.66
38.57,6.71
38.95,6.76
39.34,6.78
39.74,6.79
40.14,6.81
40.54,6.84
40.94,6.87
41.35,6.93
41.76,6.98
42.18,7.02
42.60,7.06
43.03,7.09
43.46,7.10
43.90,7.10
44.33,7.10
44.78,7.10
45.23,7.12
45.68,7.17
46.13,7.21
46.60,7.26
47.06,7.29
47.53,7.29
48.01,7.28
48.49,7.32
48.97,7.36
49.46,7.35
49.96,7.33
50.46,7.32
50.96,7.31
51.47,7.30
51.99,7.29
52.51,7.28
53.03,7.27
53.56,7.31
54.10,7.35
54.64,7.40
55.18,7.43
55.74,7.42
56.29,7.42
56.86,7.41
57.42,7.41
58.00,7.41
58.58,7.41
59.16,7.41
59.76,7.42
60.35,7.43
60.96,7.44
61.57,7.45
62.18,7.47
62.80,7.49
63.43,7.52
64.07,7.55
64.71,7.57
65.35,7.64
66.01,7.74
66.67,7.75
67.33,7.76
68.01,7.79
68.69,7.74
69.37,7.70
70.07,7.70
70.77,7.71
71.48,7.72
72.19,7.73
72.91,7.74
73.64,7.75
74.38,7.79
75.12,7.81
75.87,7.77
76.63,7.74
77.40,7.73
78.17,7.75
78.95,7.76
79.74,7.78
80.54,7.71
81.35,7.68
82.16,7.71
82.98,7.73
83.81,7.74
84.65,7.75
85.50,7.76
86.35,7.77
87.22,7.78
88.09,7.78
88.97,7.70
89.86,7.64
90.76,7.62
91.66,7.63
92.58,7.63
93.51,7.61
94.44,7.54
95.39,7.50
96.34,7.55
97.30,7.58
98.28,7.53
99.26,7.36
100.25,7.26
101.25,7.28
102.27,7.29
103.29,7.28
104.32,7.27
105.37,7.20
106.42,7.09
107.48,7.10
108.56,7.15
109.64,7.18
110.74,7.06
111.85,6.98
112.97,6.97
114.10,6.94
115.24,6.83
116.39,6.83
117.55,6.77
118.73,6.63
119.92,6.62
121.12,6.55
122.33,6.47
123.55,6.40
124.79,6.38
126.03,6.36
127.29,6.22
128.57,6.15
129.85,6.20
131.15,6.19
132.46,6.11
133.79,6.02
135.12,5.96
136.48,5.80
137.84,5.80
139.22,5.83
140.61,5.86
142.02,5.85
143.44,5.85
144.87,5.85
146.32,5.85
147.78,5.86
149.26,5.87
150.75,5.89
152.26,5.92
153.78,5.96
155.32,5.99
156.88,6.08
158.44,6.17
160.03,6.12
161.63,5.83
163.24,5.66
164.88,5.65
166.53,5.54
168.19,5.39
169.87,5.18
171.57,4.87
173.29,4.71
175.02,4.63
176.77,4.59
178.54,4.50
180.32,4.47
182.13,4.44
183.95,4.38
185.79,4.27
187.65,4.33
189.52,4.46
191.42,4.50
193.33,4.50
195.27,4.40
197.22,4.32
199.19,4.33
201.18,4.31
203.19,4.19
205.23,4.07
207.28,3.98
209.35,3.89
211.44,3.86
213.56,3.85
215.69,3.81
217.85,3.76
220.03,3.64
222.23,3.54
224.45,3.47
226.70,3.40
228.96,3.41
231.25,3.41
233.57,3.34
235.90,3.19
238.26,3.09
240.64,3.13
243.05,3.22
245.48,3.28
247.93,3.25
250.41,3.24
252.92,3.17
255.45,2.98
258.00,2.85
260.58,2.80
263.19,2.64
265.82,2.41
268.48,2.24
271.16,2.14
273.87,2.02
276.61,1.85
279.38,1.69
282.17,1.49
284.99,1.27
287.84,1.01
290.72,0.82
293.63,0.68
296.57,0.54
299.53,0.47
302.53,0.43
305.55,0.28
308.61,0.22
311.69,0.12
314.81,-0.02
317.96,-0.10
321.14,-0.12
324.35,-0.17
327.59,-0.46
330.87,-0.50
334.18,-0.50
337.52,-0.68
340.90,-0.97
344.30,-1.31
347.75,-1.53
351.23,-1.70
354.74,-1.82
358.28,-1.99
361.87,-2.27
365.49,-2.44
369.14,-2.58
372.83,-2.70
376.56,-2.85
380.33,-2.87
384.13,-3.06
387.97,-3.33
391.85,-3.60
395.77,-3.74
399.73,-3.86
403.72,-4.05
407.76,-4.32
411.84,-4.47
415.96,-4.73
420.12,-4.95
424.32,-4.88
428.56,-4.98
432.85,-5.20
437.18,-5.18
441.55,-5.21
445.96,-5.39
450.42,-5.20
454.93,-5.15
459.48,-5.48
464.07,-5.48
468.71,-5.62
473.40,-5.57
478.13,-5.50
482.91,-5.68
487.74,-5.77
492.62,-5.58
497.55,-5.53
502.52,-5.59
507.55,-5.52
512.62,-5.57
517.75,-5.60
522.93,-5.51
528.16,-5.53
533.44,-5.63
538.77,-5.74
544.16,-5.81
549.60,-5.72
555.10,-5.69
560.65,-5.67
566.25,-5.65
571.92,-5.60
577.64,-5.49
583.41,-5.32
589.25,-5.23
595.14,-5.20
601.09,-5.17
607.10,-5.06
613.17,-4.94
619.30,-4.79
625.50,-4.67
631.75,-4.60
638.07,-4.47
644.45,-4.33
650.89,-4.18
657.40,-4.01
663.98,-3.82
670.62,-3.65
677.32,-3.53
684.10,-3.37
690.94,-3.17
697.85,-3.00
704.83,-2.89
711.87,-2.74
718.99,-2.60
726.18,-2.49
733.44,-2.35
740.78,-2.20
748.19,-2.09
755.67,-2.02
763.23,-1.89
770.86,-1.77
778.57,-1.67
786.35,-1.57
794.22,-1.52
802.16,-1.45
810.18,-1.35
818.28,-1.22
826.46,-1.15
834.73,-1.04
843.08,-1.01
851.51,-0.96
860.02,-0.84
868.62,-0.79
877.31,-0.74
886.08,-0.71
894.94,-0.71
903.89,-0.63
912.93,-0.55
922.06,-0.44
931.28,-0.39
940.59,-0.28
950.00,-0.20
959.50,-0.19
969.09,-0.18
978.78,-0.10
988.57,-0.02
998.46,0.07
1008.44,0.11
1018.53,0.16
1028.71,0.19
1039.00,0.23
1049.39,0.24
1059.88,0.23
1070.48,0.27
1081.19,0.31
1092.00,0.33
1102.92,0.34
1113.95,0.34
1125.09,0.28
1136.34,0.27
1147.70,0.26
1159.18,0.25
1170.77,0.22
1182.48,0.14
1194.30,0.16
1206.25,0.15
1218.31,0.10
1230.49,0.18
1242.80,0.21
1255.22,0.24
1267.78,0.27
1280.45,0.35
1293.26,0.46
1306.19,0.58
1319.25,0.65
1332.45,0.65
1345.77,0.60
1359.23,0.66
1372.82,0.77
1386.55,0.86
1400.41,0.80
1414.42,0.79
1428.56,0.83
1442.85,0.99
1457.28,1.10
1471.85,1.21
1486.57,1.33
1501.43,1.44
1516.45,1.39
1531.61,1.39
1546.93,1.56
1562.40,1.50
1578.02,1.49
1593.80,1.78
1609.74,1.96
1625.84,2.05
1642.10,2.22
1658.52,2.36
1675.10,2.47
1691.85,2.65
1708.77,2.87
1725.86,3.03
1743.12,3.10
1760.55,3.22
1778.15,3.35
1795.94,3.48
1813.90,3.62
1832.03,3.71
1850.36,3.81
1868.86,3.88
1887.55,4.02
1906.42,4.18
1925.49,4.34
1944.74,4.38
1964.19,4.44
1983.83,4.56
2003.67,4.69
2023.71,4.74
2043.94,4.84
2064.38,4.90
2085.03,4.98
2105.88,5.10
2126.94,5.23
2148.20,5.37
2169.69,5.45
2191.38,5.59
2213.30,5.78
2235.43,5.92
2257.78,6.10
2280.36,6.28
2303.17,6.51
2326.20,6.79
2349.46,7.02
2372.95,7.31
2396.68,7.59
2420.65,7.68
2444.86,7.88
2469.31,8.06
2494.00,8.24
2518.94,8.43
2544.13,8.53
2569.57,8.68
2595.27,8.84
2621.22,8.97
2647.43,9.18
2673.90,9.36
2700.64,9.48
2727.65,9.59
2754.93,9.70
2782.48,9.76
2810.30,9.85
2838.40,9.95
2866.79,9.98
2895.46,10.03
2924.41,10.01
2953.65,9.99
2983.19,9.99
3013.02,10.10
3043.15,10.22
3073.58,10.32
3104.32,10.46
3135.36,10.60
3166.72,10.68
3198.38,10.73
3230.37,10.83
3262.67,10.73
3295.30,10.59
3328.25,10.48
3361.53,10.42
3395.15,10.34
3429.10,10.22
3463.39,10.07
3498.03,9.98
3533.01,10.02
3568.34,10.10
3604.02,10.15
3640.06,10.07
3676.46,9.94
3713.22,9.55
3750.36,9.34
3787.86,9.13
3825.74,8.92
3864.00,8.81
3902.64,8.67
3941.66,8.44
3981.08,8.47
4020.89,8.35
4061.10,8.06
4101.71,7.75
4142.73,7.55
4184.15,7.32
4226.00,6.87
4268.26,6.53
4310.94,6.40
4354.05,6.35
4397.59,6.29
4441.56,6.42
4485.98,6.50
4530.84,6.81
4576.15,7.09
4621.91,7.82
4668.13,8.10
4714.81,8.48
4761.96,8.49
4809.58,8.65
4857.67,8.91
4906.25,9.26
4955.31,9.63
5004.87,9.88
5054.91,9.91
5105.46,9.76
5156.52,9.54
5208.08,9.40
5260.16,9.20
5312.77,8.91
5365.89,8.65
5419.55,8.50
5473.75,8.17
5528.49,7.40
5583.77,6.85
5639.61,6.50
5696.00,6.05
5752.96,5.23
5810.49,4.87
5868.60,5.40
5927.28,5.51
5986.56,4.90
6046.42,4.22
6106.89,3.64
6167.96,3.54
6229.64,3.53
6291.93,3.33
6354.85,2.69
6418.40,1.72
6482.58,0.82
6547.41,0.18
6612.88,-0.11
6679.01,-0.25
6745.80,0.03
6813.26,0.53
6881.39,0.73
6950.21,1.03
7019.71,1.52
7089.91,2.03
7160.81,2.47
7232.41,3.01
7304.74,3.32
7377.79,3.74
7451.56,3.89
7526.08,3.97
7601.34,4.16
7677.35,4.35
7754.13,4.10
7831.67,3.59
7909.98,3.31
7989.08,3.12
8068.98,3.03
8149.67,3.08
8231.16,3.02
8313.47,3.04
8396.61,2.87
8480.57,2.45
8565.38,1.95
8651.03,1.37
8737.54,0.49
8824.92,-0.23
8913.17,-1.11
9002.30,-2.29
9092.32,-3.27
9183.25,-4.45
9275.08,-5.65
9367.83,-7.15
9461.51,-8.27
9556.12,-8.97
9651.68,-9.31
9748.20,-9.64
9845.68,-9.80
9944.14,-9.44
10043.58,-8.45
10144.02,-6.97
10245.46,-5.81
10347.91,-4.45
10451.39,-2.99
10555.91,-1.51
10661.46,-0.35
10768.08,0.26
10875.76,0.73
10984.52,0.89
11094.36,1.32
11205.31,1.98
11317.36,2.49
11430.53,2.49
11544.84,2.50
11660.29,2.76
11776.89,3.11
11894.66,3.02
12013.60,2.59
12133.74,1.96
12255.08,0.65
12377.63,-1.16
12501.41,-2.32
12626.42,-3.39
12752.68,-4.91
12880.21,-5.94
13009.01,-5.64
13139.10,-4.76
13270.49,-4.79
13403.20,-4.71
13537.23,-4.69
13672.60,-5.43
13809.33,-5.88
13947.42,-5.82
14086.90,-6.19
14227.77,-6.05
14370.04,-5.46
14513.74,-4.54
14658.88,-3.70
14805.47,-3.18
14953.52,-3.31
15103.06,-3.69
15254.09,-3.79
15406.63,-4.00
15560.70,-6.21
15716.30,-7.45
15873.47,-7.96
16032.20,-10.39
16192.52,-11.96
16354.45,-14.19
16517.99,-14.62
16683.17,-14.77
16850.01,-15.03
17018.51,-15.59
17188.69,-15.99
17360.58,-16.19
17534.18,-16.47
17709.53,-16.52
17886.62,-16.54
18065.49,-16.61
18246.14,-16.84
18428.60,-16.63
18612.89,-16.45
18799.02,-16.37
18987.01,-18.61
19176.88,-20.06
19368.65,-20.97
19562.33,-21.82
19757.96,-22.64
19955.54,-24.27
