frequency,raw,error,smoothed,error_smoothed,equalization,parametric_eq,fixed_band_eq,equalized_raw,equalized_smoothed,target
20.00,13.18,8.14,13.18,8.15,-8.14,-7.87,-4.18,5.04,5.04,5.04
20.20,13.20,8.19,13.20,8.19,-8.19,-7.88,-4.29,5.01,5.01,5.01
20.40,13.21,8.22,13.21,8.23,-8.23,-7.90,-4.40,4.98,4.99,4.99
20.61,13.23,8.26,13.23,8.26,-8.27,-7.92,-4.52,4.96,4.96,4.97
20.81,13.25,8.30,13.25,8.30,-8.30,-7.94,-4.64,4.95,4.94,4.95
21.02,13.26,8.33,13.26,8.34,-8.34,-7.96,-4.76,4.92,4.92,4.93
21.23,13.28,8.37,13.28,8.37,-8.38,-7.98,-4.89,4.90,4.90,4.91
21.44,13.30,8.41,13.30,8.41,-8.41,-8.01,-5.02,4.89,4.89,4.89
21.66,13.31,8.44,13.31,8.45,-8.44,-8.03,-5.16,4.87,4.87,4.87
21.87,13.33,8.47,13.33,8.48,-8.47,-8.06,-5.30,4.86,4.86,4.86
22.09,13.35,8.51,13.35,8.51,-8.50,-8.08,-5.44,4.85,4.84,4.84
22.31,13.36,8.53,13.36,8.53,-8.53,-8.11,-5.59,4.83,4.83,4.83
22.54,13.37,8.55,13.37,8.56,-8.56,-8.13,-5.74,4.81,4.82,4.82
22.76,13.39,8.58,13.39,8.58,-8.58,-8.15,-5.89,4.81,4.80,4.81
22.99,13.40,8.60,13.40,8.60,-8.61,-8.18,-6.05,4.79,4.79,4.80
23.22,13.41,8.62,13.41,8.63,-8.63,-8.20,-6.21,4.78,4.78,4.79
23.45,13.43,8.65,13.43,8.65,-8.65,-8.23,-6.37,4.78,4.78,4.78
23.69,13.44,8.67,13.44,8.67,-8.67,-8.25,-6.54,4.77,4.77,4.77
23.92,13.46,8.69,13.46,8.69,-8.69,-8.27,-6.72,4.77,4.77,4.77
24.16,13.47,8.71,13.47,8.71,-8.71,-8.29,-6.89,4.76,4.76,4.76
24.40,13.48,8.72,13.48,8.73,-8.73,-8.31,-7.07,4.75,4.75,4.76
24.65,13.49,8.74,13.49,8.74,-8.75,-8.33,-7.25,4.74,4.74,4.75
24.89,13.50,8.75,13.50,8.76,-8.76,-8.35,-7.44,4.74,4.74,4.75
25.14,13.52,8.78,13.52,8.78,-8.78,-8.37,-7.63,4.74,4.74,4.74
25.39,13.53,8.80,13.53,8.80,-8.80,-8.38,-7.82,4.73,4.73,4.73
25.65,13.54,8.81,13.54,8.82,-8.81,-8.40,-8.01,4.73,4.73,4.73
25.91,13.55,8.83,13.55,8.83,-8.83,-8.41,-8.21,4.72,4.72,4.72
26.16,13.56,8.84,13.56,8.84,-8.84,-8.43,-8.40,4.72,4.72,4.72
26.43,13.57,8.85,13.57,8.86,-8.86,-8.44,-8.60,4.71,4.71,4.72
26.69,13.58,8.87,13.58,8.87,-8.87,-8.45,-8.80,4.71,4.71,4.71
26.96,13.59,8.88,13.59,8.88,-8.88,-8.47,-8.99,4.71,4.70,4.71
27.23,13.59,8.89,13.59,8.89,-8.89,-8.48,-9.18,4.70,4.70,4.70
27.50,13.60,8.90,13.60,8.90,-8.90,-8.49,-9.37,4.70,4.70,4.70
27.77,13.61,8.91,13.61,8.91,-8.91,-8.50,-9.56,4.70,4.69,4.70
28.05,13.61,8.92,13.61,8.92,-8.92,-8.51,-9.74,4.69,4.69,4.69
28.33,13.62,8.93,13.62,8.93,-8.93,-8.51,-9.91,4.69,4.69,4.69
28.62,13.62,8.93,13.62,8.94,-8.94,-8.52,-10.07,4.68,4.68,4.69
28.90,13.63,8.95,13.63,8.95,-8.95,-8.53,-10.22,4.68,4.68,4.68
29.19,13.63,8.95,13.63,8.95,-8.95,-8.53,-10.37,4.68,4.68,4.68
29.48,13.63,8.95,13.63,8.96,-8.96,-8.54,-10.50,4.67,4.68,4.68
29.78,13.64,8.96,13.64,8.96,-8.96,-8.54,-10.61,4.68,4.67,4.68
30.08,13.64,8.96,13.64,8.97,-8.97,-8.55,-10.72,4.67,4.67,4.68
30.38,13.64,8.97,13.64,8.97,-8.97,-8.55,-10.80,4.67,4.67,4.67
30.68,13.64,8.97,13.64,8.97,-8.97,-8.56,-10.87,4.67,4.67,4.67
30.99,13.64,8.97,13.64,8.97,-8.98,-8.56,-10.92,4.66,4.66,4.67
31.30,13.64,8.97,13.64,8.98,-8.98,-8.56,-10.95,4.66,4.66,4.67
31.61,13.64,8.98,13.64,8.98,-8.98,-8.56,-10.97,4.66,4.66,4.66
31.93,13.64,8.98,13.64,8.98,-8.98,-8.56,-10.97,4.66,4.66,4.66
32.24,13.64,8.98,13.64,8.98,-8.98,-8.56,-10.95,4.66,4.66,4.66
32.57,13.63,8.98,13.63,8.98,-8.98,-8.57,-10.92,4.65,4.65,4.65
32.89,13.62,8.97,13.62,8.98,-8.97,-8.56,-10.87,4.65,4.65,4.65
33.22,13.61,8.96,13.61,8.97,-8.97,-8.56,-10.81,4.64,4.64,4.65
33.55,13.60,8.96,13.60,8.96,-8.96,-8.56,-10.73,4.64,4.64,4.64
33.89,13.58,8.94,13.58,8.95,-8.95,-8.56,-10.65,4.63,4.64,4.64
34.23,13.57,8.93,13.57,8.93,-8.93,-8.56,-10.55,4.64,4.63,4.64
34.57,13.55,8.92,13.55,8.92,-8.92,-8.56,-10.45,4.63,4.63,4.63
34.92,13.53,8.90,13.53,8.91,-8.91,-8.55,-10.34,4.62,4.62,4.63
35.27,13.52,8.89,13.52,8.90,-8.90,-8.55,-10.22,4.62,4.62,4.63
35.62,13.51,8.89,13.51,8.89,-8.89,-8.55,-10.10,4.62,4.62,4.62
35.97,13.50,8.88,13.50,8.88,-8.88,-8.54,-9.98,4.62,4.62,4.62
36.33,13.49,8.87,13.49,8.87,-8.87,-8.54,-9.86,4.62,4.62,4.62
36.70,13.48,8.86,13.48,8.86,-8.86,-8.53,-9.74,4.62,4.62,4.62
37.06,13.47,8.85,13.47,8.86,-8.86,-8.53,-9.62,4.61,4.61,4.62
37.43,13.46,8.85,13.46,8.85,-8.85,-8.52,-9.49,4.61,4.61,4.61
37.81,13.45,8.84,13.45,8.84,-8.84,-8.52,-9.37,4.61,4.61,4.61
38.19,13.44,8.83,13.44,8.84,-8.84,-8.51,-9.26,4.60,4.60,4.61
38.57,13.43,8.83,13.43,8.83,-8.83,-8.51,-9.15,4.60,4.60,4.60
38.95,13.42,8.82,13.42,8.83,-8.83,-8.50,-9.04,4.59,4.59,4.60
39.34,13.41,8.82,13.41,8.82,-8.82,-8.49,-8.93,4.59,4.59,4.59
39.74,13.40,8.81,13.40,8.81,-8.81,-8.48,-8.83,4.59,4.59,4.59
40.14,13.38,8.80,13.38,8.80,-8.80,-8.48,-8.73,4.58,4.58,4.58
40.54,13.37,8.79,13.37,8.79,-8.79,-8.47,-8.64,4.58,4.58,4.58
40.94,13.35,8.77,13.35,8.78,-8.78,-8.46,-8.56,4.57,4.58,4.58
41.35,13.34,8.76,13.34,8.76,-8.76,-8.45,-8.48,4.58,4.58,4.58
41.76,13.32,8.74,13.32,8.74,-8.74,-8.44,-8.40,4.58,4.58,4.58
42.18,13.30,8.72,13.30,8.73,-8.72,-8.43,-8.34,4.58,4.58,4.58
42.60,13.29,8.71,13.29,8.71,-8.70,-8.42,-8.27,4.59,4.58,4.58
43.03,13.27,8.68,13.27,8.69,-8.69,-8.41,-8.22,4.58,4.58,4.59
43.46,13.25,8.66,13.25,8.66,-8.67,-8.40,-8.17,4.58,4.58,4.59
43.90,13.23,8.64,13.23,8.65,-8.65,-8.39,-8.12,4.58,4.58,4.59
44.33,13.22,8.63,13.22,8.63,-8.64,-8.38,-8.08,4.58,4.58,4.59
44.78,13.21,8.62,13.21,8.62,-8.62,-8.37,-8.05,4.59,4.58,4.59
45.23,13.20,8.61,13.20,8.61,-8.62,-8.35,-8.02,4.58,4.59,4.59
45.68,13.19,8.60,13.19,8.61,-8.61,-8.34,-8.00,4.58,4.59,4.59
46.13,13.19,8.60,13.19,8.60,-8.60,-8.33,-7.98,4.59,4.59,4.59
46.60,13.18,8.59,13.18,8.59,-8.59,-8.32,-7.97,4.59,4.58,4.59
47.06,13.17,8.58,13.17,8.59,-8.59,-8.30,-7.97,4.58,4.59,4.59
47.53,13.16,8.58,13.16,8.58,-8.58,-8.29,-7.97,4.58,4.58,4.58
48.01,13.15,8.57,13.15,8.57,-8.56,-8.28,-7.98,4.59,4.58,4.58
48.49,13.13,8.55,13.13,8.55,-8.55,-8.26,-7.99,4.58,4.58,4.58
48.97,13.10,8.52,13.11,8.53,-8.53,-8.25,-8.00,4.57,4.58,4.58
49.46,13.08,8.50,13.08,8.50,-8.50,-8.23,-8.02,4.58,4.58,4.58
49.96,13.06,8.48,13.06,8.48,-8.48,-8.22,-8.05,4.58,4.58,4.58
50.46,13.03,8.45,13.03,8.45,-8.45,-8.20,-8.08,4.58,4.58,4.58
50.96,13.00,8.42,13.00,8.42,-8.43,-8.19,-8.11,4.57,4.58,4.58
51.47,12.98,8.39,12.98,8.39,-8.40,-8.17,-8.14,4.58,4.58,4.59
51.99,12.95,8.36,12.95,8.37,-8.37,-8.15,-8.18,4.58,4.58,4.59
52.51,12.93,8.34,12.93,8.34,-8.35,-8.14,-8.22,4.58,4.58,4.59
53.03,12.91,8.32,12.91,8.32,-8.32,-8.12,-8.26,4.59,4.59,4.59
53.56,12.89,8.30,12.89,8.30,-8.30,-8.10,-8.30,4.59,4.59,4.59
54.10,12.87,8.27,12.87,8.27,-8.27,-8.09,-8.35,4.60,4.60,4.60
54.64,12.84,8.24,12.84,8.25,-8.25,-8.07,-8.39,4.59,4.60,4.60
55.18,12.82,8.22,12.82,8.22,-8.22,-8.05,-8.43,4.60,4.60,4.60
55.74,12.79,8.19,12.79,8.19,-8.20,-8.03,-8.47,4.59,4.60,4.60
56.29,12.77,8.16,12.77,8.17,-8.17,-8.01,-8.51,4.60,4.60,4.61
56.86,12.75,8.14,12.75,8.14,-8.14,-7.99,-8.55,4.61,4.61,4.61
57.42,12.72,8.11,12.72,8.11,-8.11,-7.97,-8.58,4.61,4.61,4.61
58.00,12.70,8.08,12.70,8.08,-8.08,-7.95,-8.61,4.62,4.61,4.62
58.58,12.67,8.05,12.67,8.05,-8.05,-7.93,-8.63,4.62,4.62,4.62
59.16,12.64,8.02,12.64,8.02,-8.02,-7.91,-8.65,4.62,4.62,4.62
59.76,12.62,7.99,12.62,7.99,-8.00,-7.89,-8.66,4.62,4.62,4.63
60.35,12.59,7.96,12.59,7.96,-7.97,-7.87,-8.66,4.62,4.62,4.63
60.96,12.56,7.93,12.56,7.94,-7.94,-7.85,-8.66,4.62,4.63,4.63
61.57,12.54,7.91,12.54,7.91,-7.91,-7.82,-8.65,4.63,4.63,4.63
62.18,12.51,7.88,12.51,7.88,-7.88,-7.80,-8.63,4.63,4.63,4.63
62.80,12.48,7.85,12.48,7.85,-7.85,-7.78,-8.61,4.63,4.63,4.63
63.43,12.45,7.82,12.45,7.82,-7.82,-7.75,-8.57,4.63,4.63,4.63
64.07,12.42,7.79,12.42,7.79,-7.79,-7.73,-8.53,4.63,4.63,4.63
64.71,12.39,7.76,12.39,7.76,-7.76,-7.71,-8.48,4.63,4.63,4.63
65.35,12.36,7.73,12.36,7.73,-7.73,-7.68,-8.42,4.63,4.63,4.63
66.01,12.33,7.70,12.33,7.70,-7.70,-7.66,-8.36,4.63,4.63,4.63
66.67,12.30,7.67,12.30,7.67,-7.67,-7.63,-8.29,4.63,4.63,4.63
67.33,12.26,7.63,12.26,7.64,-7.63,-7.61,-8.22,4.63,4.63,4.63
68.01,12.23,7.60,12.23,7.60,-7.60,-7.58,-8.13,4.63,4.63,4.63
68.69,12.20,7.57,12.19,7.57,-7.57,-7.55,-8.05,4.63,4.63,4.63
69.37,12.16,7.53,12.16,7.54,-7.54,-7.53,-7.96,4.62,4.62,4.63
70.07,12.13,7.50,12.13,7.51,-7.51,-7.50,-7.87,4.62,4.62,4.63
70.77,12.11,7.48,12.11,7.48,-7.49,-7.47,-7.77,4.62,4.62,4.63
71.48,12.09,7.45,12.09,7.46,-7.47,-7.45,-7.67,4.62,4.63,4.64
72.19,12.08,7.44,12.08,7.45,-7.45,-7.42,-7.57,4.63,4.63,4.64
72.91,12.07,7.43,12.07,7.43,-7.43,-7.39,-7.48,4.64,4.64,4.64
73.64,12.06,7.42,12.06,7.42,-7.41,-7.36,-7.38,4.65,4.65,4.64
74.38,12.04,7.39,12.04,7.40,-7.39,-7.33,-7.28,4.65,4.65,4.65
75.12,12.03,7.38,12.02,7.37,-7.37,-7.30,-7.18,4.66,4.65,4.65
75.87,12.00,7.34,12.00,7.35,-7.35,-7.27,-7.08,4.65,4.65,4.66
76.63,11.98,7.32,11.98,7.33,-7.33,-7.24,-6.99,4.65,4.65,4.66
77.40,11.96,7.30,11.96,7.30,-7.31,-7.21,-6.90,4.65,4.65,4.66
78.17,11.95,7.28,11.95,7.28,-7.29,-7.18,-6.81,4.66,4.66,4.67
78.95,11.93,7.26,11.93,7.27,-7.27,-7.15,-6.72,4.66,4.67,4.67
79.74,11.92,7.25,11.92,7.25,-7.25,-7.12,-6.64,4.67,4.67,4.67
80.54,11.90,7.22,11.90,7.23,-7.23,-7.09,-6.56,4.67,4.67,4.68
81.35,11.88,7.20,11.88,7.21,-7.21,-7.05,-6.49,4.67,4.68,4.68
82.16,11.86,7.18,11.86,7.18,-7.18,-7.02,-6.41,4.68,4.68,4.68
82.98,11.84,7.16,11.84,7.16,-7.15,-6.99,-6.35,4.69,4.68,4.68
83.81,11.81,7.13,11.81,7.13,-7.12,-6.95,-6.28,4.69,4.69,4.68
84.65,11.77,7.08,11.77,7.09,-7.09,-6.92,-6.22,4.68,4.69,4.69
85.50,11.74,7.05,11.74,7.05,-7.05,-6.89,-6.17,4.69,4.68,4.69
86.35,11.70,7.01,11.70,7.01,-7.02,-6.85,-6.12,4.68,4.68,4.69
87.22,11.66,6.97,11.66,6.98,-6.98,-6.82,-6.07,4.68,4.68,4.69
88.09,11.63,6.94,11.63,6.94,-6.95,-6.78,-6.03,4.68,4.68,4.69
88.97,11.59,6.90,11.60,6.91,-6.92,-6.74,-5.99,4.67,4.68,4.69
89.86,11.57,6.88,11.57,6.88,-6.89,-6.71,-5.96,4.68,4.68,4.69
90.76,11.55,6.86,11.55,6.86,-6.86,-6.67,-5.93,4.69,4.69,4.69
91.66,11.52,6.83,11.52,6.84,-6.82,-6.63,-5.91,4.70,4.70,4.69
92.58,11.49,6.80,11.49,6.80,-6.79,-6.60,-5.89,4.70,4.70,4.69
93.51,11.45,6.76,11.45,6.76,-6.75,-6.56,-5.88,4.70,4.69,4.69
94.44,11.40,6.71,11.40,6.72,-6.71,-6.52,-5.86,4.69,4.69,4.69
95.39,11.35,6.66,11.35,6.67,-6.67,-6.48,-5.86,4.68,4.68,4.69
96.34,11.31,6.62,11.31,6.62,-6.62,-6.44,-5.85,4.69,4.69,4.69
97.30,11.27,6.57,11.27,6.58,-6.58,-6.40,-5.85,4.69,4.69,4.70
98.28,11.23,6.53,11.23,6.53,-6.53,-6.37,-5.86,4.70,4.70,4.70
99.26,11.18,6.48,11.18,6.48,-6.49,-6.33,-5.86,4.69,4.69,4.70
100.25,11.14,6.44,11.14,6.44,-6.45,-6.29,-5.87,4.69,4.69,4.70
101.25,11.09,6.39,11.10,6.40,-6.41,-6.24,-5.89,4.68,4.68,4.70
102.27,11.06,6.36,11.07,6.37,-6.37,-6.20,-5.90,4.69,4.69,4.70
103.29,11.04,6.34,11.04,6.34,-6.33,-6.16,-5.92,4.71,4.71,4.70
104.32,11.01,6.30,11.00,6.30,-6.28,-6.12,-5.94,4.73,4.72,4.71
105.37,10.96,6.25,10.96,6.25,-6.24,-6.08,-5.96,4.72,4.72,4.71
106.42,10.90,6.19,10.90,6.19,-6.19,-6.04,-5.98,4.71,4.71,4.71
107.48,10.85,6.13,10.85,6.13,-6.14,-5.99,-6.00,4.71,4.71,4.72
108.56,10.79,6.07,10.79,6.08,-6.09,-5.95,-6.02,4.70,4.71,4.72
109.64,10.74,6.02,10.74,6.03,-6.03,-5.91,-6.04,4.71,4.71,4.72
110.74,10.69,5.97,10.69,5.98,-5.97,-5.86,-6.06,4.72,4.72,4.72
111.85,10.65,5.93,10.64,5.92,-5.92,-5.82,-6.08,4.73,4.73,4.72
112.97,10.59,5.86,10.59,5.86,-5.86,-5.78,-6.09,4.73,4.72,4.73
114.10,10.53,5.80,10.53,5.81,-5.81,-5.73,-6.11,4.72,4.72,4.73
115.24,10.47,5.74,10.48,5.75,-5.77,-5.69,-6.12,4.70,4.72,4.73
116.39,10.45,5.72,10.44,5.71,-5.72,-5.64,-6.12,4.73,4.72,4.73
117.55,10.41,5.67,10.41,5.68,-5.67,-5.60,-6.13,4.74,4.74,4.74
118.73,10.37,5.63,10.37,5.63,-5.62,-5.55,-6.12,4.75,4.74,4.74
119.92,10.32,5.58,10.32,5.58,-5.58,-5.50,-6.12,4.74,4.74,4.74
121.12,10.26,5.52,10.27,5.53,-5.53,-5.46,-6.10,4.73,4.74,4.74
122.33,10.23,5.48,10.22,5.48,-5.48,-5.41,-6.09,4.75,4.74,4.75
123.55,10.18,5.43,10.17,5.42,-5.43,-5.36,-6.06,4.75,4.74,4.75
124.79,10.12,5.36,10.13,5.37,-5.38,-5.32,-6.03,4.74,4.75,4.76
126.03,10.07,5.31,10.08,5.32,-5.32,-5.27,-5.99,4.75,4.76,4.76
127.29,10.04,5.27,10.04,5.27,-5.26,-5.22,-5.95,4.77,4.77,4.77
128.57,10.00,5.23,9.98,5.22,-5.21,-5.17,-5.90,4.79,4.77,4.77
129.85,9.92,5.15,9.93,5.16,-5.15,-5.12,-5.85,4.77,4.77,4.77
131.15,9.85,5.08,9.86,5.09,-5.10,-5.07,-5.79,4.75,4.76,4.77
132.46,9.81,5.03,9.80,5.03,-5.04,-5.02,-5.72,4.76,4.76,4.78
133.79,9.76,4.98,9.76,4.98,-4.99,-4.98,-5.65,4.77,4.77,4.78
135.12,9.71,4.93,9.71,4.94,-4.93,-4.93,-5.57,4.78,4.78,4.78
136.48,9.67,4.89,9.66,4.88,-4.88,-4.88,-5.49,4.79,4.79,4.78
137.84,9.60,4.82,9.61,4.83,-4.82,-4.83,-5.41,4.78,4.79,4.78
139.22,9.55,4.77,9.55,4.77,-4.77,-4.77,-5.32,4.78,4.78,4.78
140.61,9.49,4.71,9.48,4.71,-4.72,-4.72,-5.23,4.77,4.77,4.78
142.02,9.42,4.63,9.43,4.65,-4.66,-4.67,-5.13,4.76,4.77,4.79
143.44,9.39,4.60,9.39,4.60,-4.60,-4.62,-5.04,4.79,4.79,4.79
144.87,9.35,4.56,9.34,4.55,-4.55,-4.57,-4.94,4.80,4.80,4.79
146.32,9.30,4.50,9.30,4.50,-4.49,-4.52,-4.84,4.81,4.81,4.80
147.78,9.23,4.43,9.24,4.44,-4.43,-4.47,-4.74,4.80,4.80,4.80
149.26,9.18,4.38,9.17,4.37,-4.38,-4.41,-4.64,4.80,4.79,4.80
150.75,9.11,4.30,9.12,4.32,-4.33,-4.36,-4.54,4.78,4.79,4.81
152.26,9.07,4.26,9.07,4.27,-4.27,-4.31,-4.44,4.80,4.80,4.81
153.78,9.03,4.22,9.03,4.22,-4.22,-4.26,-4.34,4.81,4.81,4.81
155.32,8.99,4.17,8.98,4.17,-4.16,-4.20,-4.25,4.83,4.82,4.82
156.88,8.93,4.11,8.93,4.12,-4.11,-4.15,-4.15,4.82,4.82,4.82
158.44,8.88,4.06,8.88,4.06,-4.07,-4.10,-4.05,4.81,4.81,4.82
160.03,8.82,4.00,8.83,4.01,-4.02,-4.04,-3.96,4.80,4.81,4.82
161.63,8.79,3.97,8.79,3.97,-3.97,-3.99,-3.87,4.82,4.82,4.82
163.24,8.76,3.93,8.75,3.92,-3.92,-3.93,-3.78,4.84,4.83,4.83
164.88,8.70,3.87,8.71,3.88,-3.87,-3.88,-3.69,4.83,4.83,4.83
166.53,8.65,3.82,8.65,3.82,-3.82,-3.83,-3.61,4.83,4.83,4.83
168.19,8.60,3.77,8.59,3.76,-3.77,-3.77,-3.52,4.83,4.83,4.83
169.87,8.54,3.70,8.55,3.71,-3.72,-3.72,-3.44,4.82,4.83,4.84
171.57,8.49,3.65,8.49,3.66,-3.66,-3.66,-3.36,4.83,4.83,4.84
173.29,8.45,3.61,8.44,3.60,-3.60,-3.61,-3.29,4.85,4.84,4.84
175.02,8.38,3.54,8.39,3.55,-3.54,-3.55,-3.21,4.84,4.84,4.84
176.77,8.33,3.48,8.33,3.48,-3.48,-3.49,-3.14,4.85,4.84,4.85
178.54,8.27,3.42,8.27,3.43,-3.42,-3.44,-3.07,4.85,4.85,4.85
180.32,8.21,3.36,8.21,3.36,-3.36,-3.38,-3.00,4.85,4.85,4.85
182.13,8.16,3.31,8.15,3.30,-3.30,-3.33,-2.94,4.86,4.85,4.85
183.95,8.07,3.22,8.09,3.24,-3.24,-3.27,-2.88,4.83,4.85,4.85
185.79,8.03,3.18,8.02,3.18,-3.18,-3.21,-2.82,4.85,4.84,4.85
187.65,7.96,3.11,7.96,3.11,-3.12,-3.16,-2.76,4.84,4.84,4.85
189.52,7.90,3.05,7.91,3.06,-3.06,-3.10,-2.70,4.84,4.85,4.85
191.42,7.85,3.00,7.85,3.00,-3.00,-3.04,-2.65,4.85,4.85,4.85
193.33,7.79,2.94,7.79,2.94,-2.94,-2.99,-2.60,4.85,4.85,4.85
195.27,7.73,2.88,7.73,2.89,-2.88,-2.93,-2.55,4.85,4.85,4.85
197.22,7.67,2.82,7.67,2.82,-2.82,-2.87,-2.50,4.85,4.85,4.85
199.19,7.61,2.76,7.61,2.76,-2.76,-2.81,-2.45,4.85,4.85,4.85
201.18,7.54,2.68,7.54,2.69,-2.69,-2.76,-2.41,4.85,4.85,4.86
203.19,7.48,2.62,7.48,2.62,-2.63,-2.70,-2.37,4.85,4.86,4.86
205.23,7.43,2.56,7.43,2.56,-2.56,-2.64,-2.32,4.87,4.86,4.87
207.28,7.37,2.50,7.37,2.50,-2.50,-2.58,-2.28,4.87,4.87,4.87
209.35,7.31,2.44,7.31,2.44,-2.44,-2.52,-2.24,4.87,4.87,4.87
211.44,7.25,2.37,7.25,2.37,-2.38,-2.47,-2.20,4.87,4.87,4.88
213.56,7.18,2.30,7.19,2.31,-2.32,-2.41,-2.17,4.86,4.87,4.88
215.69,7.14,2.26,7.14,2.26,-2.26,-2.35,-2.13,4.88,4.87,4.88
217.85,7.08,2.20,7.09,2.21,-2.21,-2.29,-2.09,4.87,4.88,4.88
220.03,7.05,2.16,7.04,2.16,-2.15,-2.23,-2.05,4.90,4.89,4.89
222.23,6.99,2.10,6.99,2.10,-2.10,-2.17,-2.02,4.89,4.89,4.89
224.45,6.93,2.04,6.93,2.04,-2.04,-2.11,-1.98,4.89,4.88,4.89
226.70,6.86,1.97,6.87,1.98,-1.99,-2.05,-1.95,4.87,4.88,4.89
228.96,6.81,1.91,6.82,1.93,-1.93,-1.99,-1.91,4.88,4.89,4.90
231.25,6.79,1.89,6.77,1.88,-1.88,-1.94,-1.87,4.91,4.90,4.90
233.57,6.73,1.83,6.73,1.83,-1.82,-1.88,-1.83,4.91,4.91,4.90
235.90,6.66,1.75,6.67,1.77,-1.76,-1.82,-1.79,4.90,4.91,4.91
238.26,6.61,1.70,6.61,1.70,-1.71,-1.76,-1.75,4.90,4.90,4.91
240.64,6.56,1.64,6.56,1.64,-1.65,-1.70,-1.71,4.91,4.91,4.92
243.05,6.52,1.59,6.52,1.59,-1.59,-1.64,-1.67,4.93,4.93,4.93
245.48,6.47,1.53,6.47,1.53,-1.53,-1.58,-1.63,4.94,4.94,4.94
247.93,6.41,1.47,6.41,1.47,-1.47,-1.52,-1.58,4.94,4.94,4.94
250.41,6.36,1.41,6.35,1.41,-1.41,-1.46,-1.54,4.95,4.94,4.95
252.92,6.29,1.33,6.30,1.34,-1.35,-1.40,-1.49,4.94,4.95,4.96
255.45,6.25,1.28,6.25,1.29,-1.30,-1.34,-1.44,4.95,4.95,4.97
258.00,6.21,1.24,6.21,1.24,-1.24,-1.28,-1.39,4.97,4.97,4.97
260.58,6.16,1.18,6.16,1.19,-1.18,-1.22,-1.34,4.98,4.98,4.98
263.19,6.11,1.13,6.10,1.13,-1.12,-1.16,-1.29,4.99,4.99,4.98
265.82,6.04,1.06,6.04,1.06,-1.06,-1.10,-1.23,4.98,4.99,4.98
268.48,5.97,0.98,5.98,0.99,-1.00,-1.03,-1.18,4.97,4.98,4.99
271.16,5.92,0.93,5.91,0.93,-0.93,-0.97,-1.12,4.99,4.98,4.99
273.87,5.85,0.86,5.85,0.86,-0.87,-0.91,-1.06,4.98,4.98,4.99
276.61,5.80,0.80,5.80,0.80,-0.81,-0.85,-1.00,4.99,4.99,5.00
279.38,5.74,0.74,5.74,0.74,-0.74,-0.79,-0.94,5.00,5.00,5.00
282.17,5.69,0.68,5.69,0.68,-0.68,-0.73,-0.88,5.01,5.01,5.01
284.99,5.63,0.62,5.62,0.62,-0.62,-0.67,-0.81,5.01,5.01,5.01
287.84,5.55,0.54,5.56,0.55,-0.56,-0.61,-0.75,4.99,5.00,5.01
290.72,5.50,0.49,5.50,0.49,-0.49,-0.55,-0.69,5.01,5.00,5.01
293.63,5.43,0.42,5.43,0.43,-0.43,-0.48,-0.62,5.00,5.01,5.01
296.57,5.38,0.37,5.38,0.37,-0.36,-0.42,-0.55,5.02,5.01,5.01
299.53,5.31,0.29,5.31,0.30,-0.30,-0.36,-0.48,5.01,5.02,5.02
302.53,5.25,0.23,5.25,0.23,-0.23,-0.30,-0.42,5.02,5.02,5.02
305.55,5.18,0.16,5.18,0.16,-0.16,-0.24,-0.35,5.02,5.01,5.02
308.61,5.11,0.08,5.11,0.09,-0.10,-0.18,-0.28,5.01,5.02,5.03
311.69,5.05,0.02,5.05,0.03,-0.03,-0.11,-0.21,5.02,5.02,5.03
314.81,5.00,-0.04,5.00,-0.04,0.04,-0.05,-0.14,5.04,5.04,5.04
317.96,4.94,-0.10,4.94,-0.10,0.11,0.01,-0.07,5.05,5.04,5.04
321.14,4.87,-0.18,4.87,-0.17,0.18,0.07,0.01,5.05,5.05,5.05
324.35,4.80,-0.25,4.80,-0.25,0.25,0.13,0.08,5.05,5.05,5.05
327.59,4.73,-0.32,4.73,-0.32,0.32,0.20,0.15,5.05,5.05,5.05
330.87,4.67,-0.39,4.67,-0.39,0.39,0.26,0.22,5.06,5.06,5.06
334.18,4.61,-0.46,4.60,-0.46,0.46,0.32,0.30,5.07,5.06,5.07
337.52,4.53,-0.54,4.53,-0.54,0.53,0.38,0.37,5.06,5.06,5.07
340.90,4.47,-0.61,4.47,-0.60,0.60,0.44,0.45,5.07,5.07,5.08
344.30,4.40,-0.68,4.41,-0.67,0.67,0.51,0.52,5.07,5.07,5.08
347.75,4.36,-0.72,4.35,-0.73,0.73,0.57,0.60,5.09,5.08,5.08
351.23,4.29,-0.79,4.29,-0.79,0.80,0.63,0.68,5.09,5.09,5.08
354.74,4.22,-0.87,4.22,-0.86,0.87,0.70,0.75,5.09,5.09,5.09
358.28,4.15,-0.94,4.15,-0.94,0.93,0.76,0.83,5.08,5.08,5.09
361.87,4.08,-1.01,4.08,-1.00,1.00,0.82,0.91,5.08,5.08,5.09
365.49,4.02,-1.07,4.02,-1.07,1.06,0.88,0.99,5.08,5.08,5.09
369.14,3.96,-1.13,3.96,-1.13,1.13,0.95,1.07,5.09,5.09,5.09
372.83,3.90,-1.19,3.90,-1.19,1.20,1.01,1.15,5.09,5.09,5.09
376.56,3.83,-1.27,3.83,-1.26,1.26,1.07,1.23,5.09,5.09,5.10
380.33,3.77,-1.33,3.77,-1.32,1.32,1.14,1.31,5.09,5.09,5.10
384.13,3.71,-1.39,3.71,-1.39,1.38,1.20,1.39,5.09,5.09,5.10
387.97,3.66,-1.44,3.66,-1.44,1.44,1.26,1.48,5.10,5.10,5.10
391.85,3.60,-1.51,3.60,-1.50,1.51,1.32,1.56,5.11,5.11,5.11
395.77,3.54,-1.57,3.54,-1.57,1.57,1.39,1.64,5.11,5.11,5.11
399.73,3.48,-1.64,3.48,-1.63,1.63,1.45,1.72,5.11,5.11,5.12
403.72,3.42,-1.70,3.42,-1.70,1.70,1.51,1.81,5.12,5.12,5.12
407.76,3.36,-1.77,3.36,-1.76,1.76,1.58,1.89,5.12,5.12,5.13
411.84,3.30,-1.83,3.30,-1.83,1.83,1.64,1.97,5.13,5.13,5.13
415.96,3.24,-1.90,3.24,-1.90,1.90,1.70,2.06,5.14,5.13,5.14
420.12,3.17,-1.97,3.17,-1.96,1.96,1.77,2.14,5.13,5.14,5.14
424.32,3.11,-2.03,3.11,-2.03,2.03,1.83,2.22,5.14,5.14,5.14
428.56,3.05,-2.10,3.05,-2.10,2.10,1.89,2.30,5.15,5.14,5.15
432.85,2.99,-2.16,2.98,-2.16,2.16,1.96,2.38,5.15,5.15,5.15
437.18,2.91,-2.24,2.92,-2.23,2.23,2.02,2.46,5.14,5.15,5.15
441.55,2.85,-2.30,2.85,-2.30,2.30,2.08,2.54,5.15,5.15,5.15
445.96,2.79,-2.36,2.78,-2.37,2.36,2.15,2.62,5.15,5.14,5.15
450.42,2.71,-2.44,2.72,-2.43,2.43,2.21,2.69,5.14,5.14,5.15
454.93,2.65,-2.50,2.65,-2.50,2.49,2.27,2.76,5.14,5.14,5.15
459.48,2.59,-2.56,2.59,-2.56,2.56,2.34,2.83,5.15,5.14,5.15
464.07,2.53,-2.62,2.53,-2.61,2.62,2.40,2.90,5.15,5.15,5.15
468.71,2.48,-2.67,2.48,-2.67,2.68,2.46,2.97,5.16,5.15,5.15
473.40,2.42,-2.73,2.42,-2.73,2.74,2.52,3.03,5.16,5.15,5.15
478.13,2.35,-2.81,2.36,-2.80,2.79,2.59,3.09,5.14,5.15,5.16
482.91,2.30,-2.86,2.30,-2.86,2.84,2.65,3.14,5.14,5.14,5.16
487.74,2.25,-2.91,2.25,-2.91,2.90,2.71,3.19,5.15,5.15,5.16
492.62,2.21,-2.95,2.21,-2.95,2.95,2.78,3.24,5.16,5.16,5.16
497.55,2.17,-3.00,2.17,-3.00,3.01,2.84,3.28,5.18,5.17,5.17
502.52,2.12,-3.05,2.12,-3.05,3.06,2.90,3.33,5.18,5.17,5.17
507.55,2.06,-3.11,2.06,-3.11,3.11,2.96,3.36,5.17,5.17,5.17
512.62,2.00,-3.17,2.00,-3.17,3.16,3.02,3.40,5.16,5.16,5.17
517.75,1.95,-3.23,1.95,-3.22,3.21,3.08,3.43,5.16,5.17,5.18
