frequency,raw,error,smoothed,error_smoothed,equalization,parametric_eq,fixed_band_eq,equalized_raw,equalized_smoothed,target
20.00,0.79,2.20,0.79,2.20,-2.21,-1.96,-1.29,-1.43,-1.43,-1.42
20.20,0.80,2.20,0.79,2.20,-2.20,-1.99,-1.33,-1.41,-1.41,-1.41
20.40,0.81,2.20,0.80,2.20,-2.20,-2.02,-1.37,-1.39,-1.40,-1.40
20.61,0.81,2.20,0.81,2.20,-2.19,-2.05,-1.41,-1.39,-1.39,-1.40
20.81,0.82,2.20,0.82,2.20,-2.19,-2.08,-1.45,-1.38,-1.38,-1.39
21.02,0.83,2.21,0.82,2.21,-2.20,-2.11,-1.50,-1.37,-1.37,-1.39
21.23,0.84,2.21,0.84,2.21,-2.21,-2.14,-1.54,-1.37,-1.37,-1.38
21.44,0.85,2.22,0.84,2.22,-2.22,-2.17,-1.59,-1.37,-1.37,-1.38
21.66,0.86,2.23,0.85,2.23,-2.23,-2.20,-1.63,-1.38,-1.38,-1.38
21.87,0.87,2.24,0.87,2.24,-2.25,-2.23,-1.68,-1.38,-1.38,-1.38
22.09,0.89,2.25,0.89,2.26,-2.27,-2.26,-1.73,-1.39,-1.38,-1.37
22.31,0.92,2.28,0.92,2.29,-2.30,-2.29,-1.79,-1.38,-1.38,-1.37
22.54,0.95,2.33,0.95,2.33,-2.33,-2.32,-1.84,-1.37,-1.38,-1.38
22.76,0.99,2.37,0.99,2.37,-2.36,-2.35,-1.89,-1.37,-1.37,-1.39
22.99,1.03,2.41,1.02,2.41,-2.39,-2.38,-1.95,-1.37,-1.37,-1.39
23.22,1.05,2.43,1.05,2.44,-2.43,-2.41,-2.01,-1.38,-1.38,-1.39
23.45,1.08,2.47,1.07,2.46,-2.46,-2.44,-2.06,-1.39,-1.39,-1.40
23.69,1.09,2.49,1.09,2.49,-2.50,-2.47,-2.12,-1.40,-1.40,-1.40
23.92,1.12,2.51,1.12,2.52,-2.53,-2.50,-2.18,-1.41,-1.41,-1.40
24.16,1.16,2.55,1.15,2.55,-2.56,-2.53,-2.25,-1.41,-1.41,-1.40
24.40,1.20,2.59,1.19,2.59,-2.59,-2.56,-2.31,-1.40,-1.40,-1.40
24.65,1.22,2.62,1.23,2.63,-2.62,-2.59,-2.37,-1.40,-1.39,-1.40
24.89,1.27,2.66,1.26,2.66,-2.65,-2.62,-2.44,-1.39,-1.39,-1.40
25.14,1.30,2.69,1.29,2.69,-2.68,-2.64,-2.50,-1.38,-1.39,-1.40
25.39,1.31,2.71,1.31,2.71,-2.70,-2.67,-2.57,-1.39,-1.39,-1.41
25.65,1.32,2.72,1.32,2.72,-2.71,-2.70,-2.63,-1.40,-1.39,-1.41
25.91,1.33,2.73,1.32,2.73,-2.72,-2.73,-2.70,-1.40,-1.40,-1.41
26.16,1.33,2.73,1.33,2.73,-2.73,-2.75,-2.76,-1.40,-1.40,-1.41
26.43,1.33,2.73,1.32,2.73,-2.73,-2.78,-2.83,-1.41,-1.41,-1.41
26.69,1.33,2.73,1.32,2.73,-2.74,-2.81,-2.89,-1.42,-1.42,-1.41
26.96,1.33,2.73,1.33,2.74,-2.76,-2.83,-2.96,-1.43,-1.42,-1.41
27.23,1.35,2.76,1.35,2.76,-2.77,-2.86,-3.02,-1.42,-1.42,-1.41
27.50,1.39,2.79,1.38,2.79,-2.79,-2.88,-3.08,-1.41,-1.41,-1.41
27.77,1.42,2.82,1.41,2.82,-2.82,-2.91,-3.14,-1.40,-1.40,-1.41
28.05,1.45,2.85,1.44,2.85,-2.84,-2.93,-3.20,-1.40,-1.40,-1.41
28.33,1.47,2.87,1.47,2.88,-2.87,-2.95,-3.25,-1.40,-1.40,-1.41
28.62,1.49,2.90,1.50,2.90,-2.89,-2.97,-3.31,-1.39,-1.39,-1.41
28.90,1.53,2.92,1.52,2.92,-2.91,-3.00,-3.35,-1.38,-1.39,-1.40
29.19,1.54,2.93,1.53,2.93,-2.92,-3.02,-3.40,-1.38,-1.38,-1.40
29.48,1.54,2.93,1.54,2.93,-2.93,-3.04,-3.44,-1.39,-1.39,-1.40
29.78,1.54,2.92,1.54,2.93,-2.93,-3.06,-3.48,-1.40,-1.40,-1.39
30.08,1.54,2.92,1.54,2.93,-2.94,-3.07,-3.51,-1.40,-1.40,-1.39
30.38,1.55,2.94,1.55,2.94,-2.95,-3.09,-3.54,-1.39,-1.40,-1.39
30.68,1.57,2.95,1.56,2.95,-2.96,-3.11,-3.57,-1.39,-1.39,-1.39
30.99,1.58,2.96,1.58,2.96,-2.97,-3.13,-3.59,-1.39,-1.39,-1.39
31.30,1.59,2.98,1.60,2.98,-2.97,-3.14,-3.60,-1.38,-1.38,-1.39
31.61,1.62,3.00,1.62,3.00,-2.98,-3.16,-3.61,-1.37,-1.37,-1.39
31.93,1.63,3.02,1.63,3.02,-3.00,-3.17,-3.62,-1.36,-1.37,-1.39
32.24,1.63,3.02,1.62,3.01,-3.01,-3.18,-3.62,-1.39,-1.39,-1.40
32.57,1.62,3.01,1.62,3.01,-3.03,-3.19,-3.62,-1.41,-1.41,-1.40
32.89,1.61,3.00,1.62,3.01,-3.05,-3.21,-3.61,-1.44,-1.43,-1.40
33.22,1.64,3.04,1.64,3.04,-3.07,-3.22,-3.60,-1.43,-1.43,-1.41
33.55,1.68,3.08,1.68,3.09,-3.08,-3.23,-3.58,-1.41,-1.41,-1.41
33.89,1.73,3.14,1.71,3.13,-3.10,-3.23,-3.57,-1.37,-1.39,-1.42
34.23,1.74,3.15,1.73,3.15,-3.11,-3.24,-3.54,-1.38,-1.38,-1.42
34.57,1.74,3.15,1.74,3.16,-3.13,-3.25,-3.52,-1.39,-1.39,-1.42
34.92,1.74,3.15,1.74,3.15,-3.15,-3.25,-3.50,-1.41,-1.41,-1.42
35.27,1.74,3.15,1.73,3.15,-3.17,-3.26,-3.47,-1.44,-1.44,-1.42
35.62,1.74,3.15,1.73,3.15,-3.19,-3.26,-3.44,-1.46,-1.46,-1.42
35.97,1.74,3.15,1.76,3.17,-3.21,-3.27,-3.41,-1.47,-1.45,-1.42
36.33,1.80,3.21,1.80,3.22,-3.22,-3.27,-3.38,-1.43,-1.42,-1.42
36.70,1.86,3.28,1.85,3.27,-3.24,-3.27,-3.34,-1.37,-1.39,-1.42
37.06,1.90,3.32,1.88,3.30,-3.25,-3.27,-3.31,-1.35,-1.37,-1.42
37.43,1.87,3.29,1.88,3.29,-3.26,-3.27,-3.28,-1.39,-1.38,-1.42
37.81,1.86,3.26,1.86,3.27,-3.27,-3.27,-3.25,-1.41,-1.41,-1.41
38.19,1.84,3.24,1.84,3.25,-3.27,-3.27,-3.22,-1.43,-1.43,-1.41
38.57,1.84,3.24,1.83,3.24,-3.26,-3.27,-3.19,-1.42,-1.42,-1.41
38.95,1.84,3.23,1.83,3.23,-3.25,-3.27,-3.16,-1.41,-1.41,-1.40
39.34,1.84,3.23,1.84,3.23,-3.23,-3.26,-3.13,-1.40,-1.40,-1.40
39.74,1.84,3.23,1.84,3.23,-3.23,-3.26,-3.10,-1.39,-1.39,-1.40
40.14,1.84,3.23,1.84,3.23,-3.23,-3.26,-3.08,-1.39,-1.39,-1.40
40.54,1.84,3.23,1.84,3.23,-3.23,-3.25,-3.05,-1.39,-1.39,-1.40
40.94,1.84,3.23,1.84,3.23,-3.23,-3.25,-3.03,-1.40,-1.40,-1.40
41.35,1.84,3.23,1.84,3.23,-3.23,-3.24,-3.01,-1.40,-1.40,-1.40
41.76,1.84,3.24,1.84,3.24,-3.24,-3.23,-3.00,-1.40,-1.40,-1.41
42.18,1.84,3.24,1.84,3.24,-3.24,-3.23,-2.98,-1.40,-1.40,-1.41
42.60,1.84,3.24,1.84,3.24,-3.24,-3.22,-2.97,-1.41,-1.41,-1.41
43.03,1.84,3.24,1.84,3.24,-3.24,-3.21,-2.96,-1.41,-1.41,-1.41
43.46,1.84,3.24,1.84,3.24,-3.25,-3.21,-2.95,-1.41,-1.41,-1.41
43.90,1.84,3.25,1.84,3.25,-3.25,-3.20,-2.95,-1.41,-1.41,-1.42
44.33,1.84,3.25,1.84,3.25,-3.25,-3.19,-2.94,-1.42,-1.42,-1.42
44.78,1.84,3.25,1.84,3.25,-3.25,-3.19,-2.94,-1.41,-1.41,-1.42
45.23,1.84,3.25,1.84,3.25,-3.24,-3.18,-2.94,-1.41,-1.41,-1.42
45.68,1.84,3.25,1.84,3.25,-3.24,-3.17,-2.95,-1.40,-1.40,-1.42
46.13,1.84,3.24,1.84,3.24,-3.24,-3.16,-2.95,-1.40,-1.40,-1.41
46.60,1.84,3.24,1.84,3.24,-3.24,-3.16,-2.96,-1.41,-1.41,-1.41
47.06,1.84,3.23,1.83,3.22,-3.25,-3.15,-2.97,-1.42,-1.43,-1.40
47.53,1.84,3.22,1.83,3.22,-3.26,-3.14,-2.98,-1.43,-1.43,-1.39
48.01,1.84,3.21,1.88,3.25,-3.27,-3.14,-3.00,-1.44,-1.40,-1.38
48.49,1.93,3.30,1.93,3.30,-3.28,-3.13,-3.02,-1.34,-1.34,-1.37
48.97,2.02,3.38,1.97,3.33,-3.28,-3.13,-3.03,-1.26,-1.31,-1.36
49.46,1.98,3.33,1.99,3.33,-3.28,-3.12,-3.05,-1.30,-1.29,-1.35
49.96,1.94,3.26,1.96,3.29,-3.28,-3.12,-3.08,-1.34,-1.32,-1.33
50.46,1.94,3.25,1.93,3.25,-3.27,-3.11,-3.10,-1.34,-1.34,-1.32
50.96,1.94,3.23,1.93,3.23,-3.26,-3.11,-3.12,-1.32,-1.33,-1.30
51.47,1.94,3.22,1.94,3.22,-3.24,-3.11,-3.15,-1.30,-1.30,-1.29
51.99,1.94,3.21,1.94,3.21,-3.21,-3.10,-3.18,-1.28,-1.28,-1.28
52.51,1.94,3.20,1.94,3.20,-3.20,-3.10,-3.20,-1.26,-1.26,-1.27
53.03,1.94,3.19,1.94,3.19,-3.18,-3.10,-3.23,-1.25,-1.25,-1.26
53.56,1.94,3.18,1.94,3.18,-3.17,-3.10,-3.26,-1.24,-1.24,-1.25
54.10,1.94,3.16,1.94,3.16,-3.16,-3.10,-3.29,-1.23,-1.23,-1.23
54.64,1.94,3.15,1.94,3.15,-3.16,-3.11,-3.31,-1.22,-1.22,-1.22
55.18,1.94,3.14,1.94,3.14,-3.15,-3.11,-3.34,-1.22,-1.22,-1.21
55.74,1.94,3.14,1.94,3.14,-3.15,-3.11,-3.37,-1.21,-1.21,-1.21
56.29,1.94,3.13,1.94,3.13,-3.14,-3.11,-3.39,-1.20,-1.20,-1.20
56.86,1.94,3.12,1.94,3.12,-3.13,-3.12,-3.41,-1.19,-1.19,-1.19
57.42,1.94,3.12,1.94,3.12,-3.11,-3.13,-3.43,-1.17,-1.17,-1.19
58.00,1.94,3.12,1.95,3.13,-3.08,-3.13,-3.45,-1.15,-1.14,-1.19
58.58,1.94,3.12,1.92,3.10,-3.07,-3.14,-3.47,-1.13,-1.15,-1.19
59.16,1.89,3.08,1.86,3.04,-3.05,-3.15,-3.48,-1.15,-1.19,-1.19
59.76,1.77,2.95,1.81,3.00,-3.04,-3.16,-3.49,-1.27,-1.23,-1.19
60.35,1.76,2.95,1.78,2.98,-3.03,-3.16,-3.50,-1.27,-1.25,-1.20
60.96,1.82,3.03,1.79,3.00,-3.03,-3.17,-3.51,-1.21,-1.24,-1.21
61.57,1.84,3.05,1.83,3.05,-3.04,-3.18,-3.51,-1.20,-1.21,-1.22
62.18,1.84,3.07,1.84,3.08,-3.05,-3.19,-3.51,-1.22,-1.21,-1.24
62.80,1.84,3.09,1.84,3.09,-3.08,-3.21,-3.50,-1.25,-1.24,-1.26
63.43,1.84,3.12,1.84,3.12,-3.12,-3.22,-3.49,-1.28,-1.28,-1.29
64.07,1.84,3.14,1.84,3.14,-3.15,-3.23,-3.48,-1.32,-1.32,-1.31
64.71,1.84,3.17,1.84,3.17,-3.18,-3.24,-3.46,-1.34,-1.34,-1.34
65.35,1.84,3.19,1.84,3.19,-3.19,-3.25,-3.44,-1.36,-1.36,-1.36
66.01,1.84,3.21,1.84,3.21,-3.20,-3.26,-3.42,-1.36,-1.36,-1.38
66.67,1.84,3.23,1.85,3.24,-3.20,-3.26,-3.40,-1.36,-1.35,-1.40
67.33,1.84,3.24,1.83,3.24,-3.20,-3.27,-3.37,-1.36,-1.37,-1.41
68.01,1.84,3.26,1.77,3.19,-3.20,-3.28,-3.34,-1.37,-1.43,-1.43
68.69,1.67,3.10,1.72,3.16,-3.20,-3.28,-3.30,-1.53,-1.48,-1.44
69.37,1.65,3.09,1.69,3.14,-3.19,-3.28,-3.27,-1.54,-1.50,-1.45
70.07,1.74,3.19,1.69,3.15,-3.17,-3.28,-3.23,-1.44,-1.48,-1.46
70.77,1.74,3.20,1.73,3.19,-3.16,-3.28,-3.19,-1.43,-1.43,-1.47
71.48,1.74,3.20,1.75,3.22,-3.16,-3.28,-3.15,-1.43,-1.41,-1.47
72.19,1.73,3.20,1.70,3.18,-3.17,-3.27,-3.11,-1.45,-1.47,-1.48
72.91,1.68,3.17,1.64,3.12,-3.17,-3.26,-3.07,-1.49,-1.54,-1.49
73.64,1.55,3.04,1.62,3.12,-3.16,-3.25,-3.03,-1.62,-1.54,-1.50
74.38,1.59,3.09,1.64,3.15,-3.14,-3.24,-2.99,-1.56,-1.50,-1.51
75.12,1.75,3.27,1.66,3.18,-3.11,-3.22,-2.95,-1.35,-1.45,-1.52
75.87,1.66,3.20,1.64,3.18,-3.08,-3.20,-2.91,-1.42,-1.44,-1.54
76.63,1.52,3.07,1.53,3.07,-3.06,-3.18,-2.87,-1.53,-1.53,-1.55
77.40,1.38,2.94,1.40,2.97,-3.04,-3.16,-2.83,-1.66,-1.63,-1.57
78.17,1.31,2.88,1.36,2.94,-3.03,-3.13,-2.79,-1.72,-1.66,-1.58
78.95,1.43,3.02,1.38,2.97,-3.02,-3.10,-2.75,-1.60,-1.65,-1.60
79.74,1.44,3.04,1.42,3.03,-3.03,-3.07,-2.71,-1.60,-1.61,-1.61
80.54,1.44,3.06,1.45,3.07,-3.05,-3.03,-2.68,-1.61,-1.60,-1.63
81.35,1.44,3.07,1.42,3.06,-3.07,-3.00,-2.65,-1.63,-1.64,-1.64
82.16,1.43,3.07,1.43,3.08,-3.09,-2.96,-2.61,-1.66,-1.65,-1.65
82.98,1.43,3.08,1.48,3.13,-3.09,-2.92,-2.58,-1.67,-1.61,-1.66
83.81,1.53,3.19,1.50,3.17,-3.08,-2.88,-2.55,-1.55,-1.57,-1.67
84.65,1.54,3.20,1.44,3.11,-3.05,-2.83,-2.53,-1.51,-1.60,-1.67
85.50,1.33,3.00,1.33,3.00,-3.01,-2.79,-2.50,-1.69,-1.68,-1.68
86.35,1.12,2.80,1.22,2.90,-2.98,-2.75,-2.48,-1.86,-1.76,-1.69
87.22,1.16,2.85,1.18,2.87,-2.95,-2.70,-2.45,-1.79,-1.77,-1.70
88.09,1.23,2.94,1.15,2.85,-2.90,-2.66,-2.43,-1.66,-1.75,-1.71
88.97,1.19,2.89,1.13,2.84,-2.84,-2.61,-2.42,-1.66,-1.71,-1.71
89.86,0.99,2.70,1.13,2.85,-2.79,-2.57,-2.40,-1.80,-1.66,-1.72
90.76,1.09,2.82,1.11,2.83,-2.75,-2.52,-2.39,-1.66,-1.64,-1.73
91.66,1.19,2.92,1.03,2.76,-2.72,-2.48,-2.37,-1.52,-1.69,-1.73
92.58,0.92,2.65,0.92,2.65,-2.68,-2.44,-2.36,-1.75,-1.75,-1.73
93.51,0.68,2.41,0.80,2.53,-2.62,-2.39,-2.35,-1.94,-1.82,-1.74
94.44,0.71,2.44,0.77,2.50,-2.55,-2.35,-2.35,-1.85,-1.79,-1.74
95.39,0.87,2.61,0.79,2.53,-2.49,-2.31,-2.34,-1.62,-1.70,-1.74
96.34,0.88,2.61,0.75,2.49,-2.43,-2.27,-2.34,-1.56,-1.68,-1.74
97.30,0.56,2.30,0.65,2.39,-2.37,-2.23,-2.33,-1.81,-1.72,-1.74
98.28,0.45,2.19,0.53,2.27,-2.31,-2.20,-2.33,-1.86,-1.78,-1.75
99.26,0.53,2.27,0.46,2.20,-2.24,-2.16,-2.33,-1.71,-1.78,-1.75
100.25,0.47,2.21,0.45,2.20,-2.16,-2.13,-2.34,-1.70,-1.71,-1.75
101.25,0.37,2.12,0.40,2.15,-2.08,-2.09,-2.34,-1.71,-1.68,-1.75
102.27,0.30,2.05,0.26,2.02,-2.00,-2.06,-2.34,-1.70,-1.74,-1.76
103.29,0.13,1.89,0.09,1.86,-1.92,-2.03,-2.35,-1.79,-1.82,-1.77
104.32,-0.06,1.71,0.00,1.77,-1.83,-2.00,-2.35,-1.90,-1.83,-1.78
105.37,-0.11,1.66,-0.03,1.75,-1.76,-1.98,-2.36,-1.87,-1.78,-1.78
106.42,0.07,1.85,-0.04,1.75,-1.69,-1.95,-2.37,-1.62,-1.73,-1.79
107.48,-0.04,1.76,-0.12,1.68,-1.64,-1.93,-2.37,-1.67,-1.75,-1.80
108.56,-0.28,1.52,-0.26,1.55,-1.60,-1.90,-2.38,-1.88,-1.86,-1.81
109.64,-0.47,1.34,-0.35,1.46,-1.56,-1.88,-2.39,-2.03,-1.91,-1.82
110.74,-0.37,1.44,-0.33,1.48,-1.51,-1.87,-2.40,-1.88,-1.84,-1.82
111.85,-0.15,1.67,-0.29,1.53,-1.45,-1.85,-2.40,-1.59,-1.74,-1.82
112.97,-0.26,1.55,-0.28,1.54,-1.39,-1.84,-2.41,-1.66,-1.67,-1.82
114.10,-0.45,1.36,-0.37,1.44,-1.36,-1.82,-2.42,-1.82,-1.73,-1.82
115.24,-0.47,1.33,-0.53,1.28,-1.35,-1.81,-2.42,-1.82,-1.88,-1.81
116.39,-0.59,1.21,-0.60,1.20,-1.34,-1.80,-2.42,-1.93,-1.95,-1.81
117.55,-0.65,1.13,-0.56,1.23,-1.33,-1.80,-2.43,-1.99,-1.89,-1.79
118.73,-0.45,1.32,-0.44,1.34,-1.33,-1.79,-2.43,-1.79,-1.77,-1.78
119.92,-0.22,1.54,-0.30,1.46,-1.36,-1.79,-2.43,-1.58,-1.66,-1.76
121.12,-0.16,1.57,-0.24,1.49,-1.42,-1.79,-2.43,-1.58,-1.66,-1.74
122.33,-0.28,1.43,-0.25,1.46,-1.50,-1.79,-2.42,-1.78,-1.75,-1.72
123.55,-0.32,1.37,-0.19,1.51,-1.59,-1.79,-2.42,-1.91,-1.78,-1.70
124.79,-0.04,1.64,-0.05,1.63,-1.67,-1.80,-2.41,-1.71,-1.72,-1.68
126.03,0.27,1.92,0.13,1.78,-1.74,-1.80,-2.40,-1.48,-1.61,-1.66
127.29,0.23,1.86,0.27,1.90,-1.81,-1.81,-2.39,-1.59,-1.54,-1.64
128.57,0.28,1.89,0.30,1.91,-1.88,-1.83,-2.38,-1.61,-1.58,-1.62
129.85,0.36,1.95,0.34,1.94,-1.97,-1.84,-2.37,-1.61,-1.63,-1.60
131.15,0.41,1.98,0.46,2.03,-2.06,-1.86,-2.35,-1.65,-1.60,-1.58
132.46,0.60,2.16,0.53,2.10,-2.13,-1.88,-2.33,-1.54,-1.60,-1.57
133.79,0.66,2.20,0.63,2.18,-2.20,-1.90,-2.31,-1.54,-1.56,-1.55
135.12,0.65,2.18,0.75,2.28,-2.26,-1.92,-2.29,-1.61,-1.51,-1.54
136.48,0.89,2.41,0.84,2.35,-2.33,-1.95,-2.27,-1.43,-1.49,-1.52
137.84,0.96,2.46,0.92,2.43,-2.40,-1.98,-2.25,-1.45,-1.48,-1.51
139.22,0.99,2.48,1.01,2.51,-2.48,-2.01,-2.23,-1.49,-1.47,-1.50
140.61,1.03,2.51,1.03,2.52,-2.55,-2.05,-2.20,-1.53,-1.52,-1.49
142.02,1.13,2.60,1.10,2.58,-2.63,-2.08,-2.18,-1.50,-1.52,-1.48
143.44,1.16,2.63,1.20,2.67,-2.70,-2.12,-2.15,-1.54,-1.50,-1.48
144.87,1.33,2.80,1.29,2.77,-2.77,-2.17,-2.13,-1.45,-1.48,-1.48
146.32,1.40,2.87,1.38,2.86,-2.85,-2.21,-2.10,-1.46,-1.47,-1.48
147.78,1.44,2.92,1.46,2.95,-2.94,-2.26,-2.08,-1.50,-1.47,-1.49
149.26,1.52,3.01,1.51,3.00,-3.02,-2.31,-2.05,-1.51,-1.51,-1.50
150.75,1.56,3.07,1.54,3.05,-3.10,-2.36,-2.03,-1.54,-1.56,-1.52
152.26,1.56,3.10,1.57,3.11,-3.15,-2.41,-2.00,-1.59,-1.58,-1.55
153.78,1.56,3.13,1.60,3.18,-3.16,-2.46,-1.98,-1.60,-1.56,-1.58
155.32,1.62,3.23,1.58,3.20,-3.13,-2.51,-1.96,-1.52,-1.55,-1.62
156.88,1.58,3.22,1.52,3.17,-3.07,-2.56,-1.93,-1.49,-1.55,-1.65
158.44,1.31,3.00,1.37,3.05,-2.96,-2.61,-1.91,-1.65,-1.59,-1.69
160.03,1.17,2.88,1.15,2.86,-2.82,-2.66,-1.89,-1.65,-1.67,-1.72
161.63,0.92,2.65,0.90,2.64,-2.65,-2.71,-1.87,-1.73,-1.74,-1.74
163.24,0.66,2.43,0.68,2.44,-2.45,-2.76,-1.86,-1.79,-1.78,-1.77
164.88,0.45,2.22,0.47,2.24,-2.26,-2.80,-1.84,-1.82,-1.80,-1.78
166.53,0.30,2.08,0.28,2.07,-2.10,-2.83,-1.82,-1.81,-1.82,-1.79
168.19,0.19,1.97,0.14,1.93,-1.99,-2.87,-1.81,-1.80,-1.85,-1.79
169.87,0.02,1.79,0.06,1.84,-1.93,-2.89,-1.80,-1.91,-1.86,-1.78
171.57,0.06,1.82,0.08,1.84,-1.93,-2.91,-1.78,-1.87,-1.85,-1.77
173.29,0.17,1.91,0.15,1.89,-1.97,-2.92,-1.77,-1.80,-1.82,-1.75
175.02,0.36,2.07,0.32,2.04,-2.05,-2.93,-1.76,-1.69,-1.73,-1.72
176.77,0.43,2.11,0.50,2.19,-2.15,-2.93,-1.76,-1.72,-1.65,-1.69
178.54,0.72,2.38,0.66,2.32,-2.26,-2.92,-1.75,-1.53,-1.59,-1.66
180.32,0.83,2.44,0.81,2.43,-2.36,-2.90,-1.74,-1.54,-1.55,-1.62
182.13,0.90,2.48,0.94,2.52,-2.45,-2.88,-1.74,-1.56,-1.51,-1.59
183.95,1.03,2.57,0.99,2.54,-2.52,-2.85,-1.74,-1.49,-1.53,-1.55
185.79,1.04,2.56,1.04,2.56,-2.56,-2.81,-1.74,-1.52,-1.52,-1.53
187.65,1.06,2.56,1.06,2.57,-2.58,-2.77,-1.74,-1.52,-1.52,-1.51
189.52,1.07,2.55,1.06,2.55,-2.59,-2.73,-1.74,-1.52,-1.52,-1.49
191.42,1.08,2.55,1.08,2.55,-2.58,-2.68,-1.74,-1.51,-1.50,-1.48
193.33,1.10,2.55,1.10,2.56,-2.57,-2.64,-1.74,-1.47,-1.47,-1.46
195.27,1.12,2.56,1.11,2.56,-2.55,-2.58,-1.75,-1.43,-1.43,-1.45
197.22,1.13,2.57,1.12,2.56,-2.52,-2.53,-1.75,-1.40,-1.41,-1.45
199.19,1.10,2.53,1.09,2.53,-2.50,-2.48,-1.76,-1.40,-1.41,-1.44
201.18,1.06,2.49,1.05,2.48,-2.47,-2.44,-1.77,-1.42,-1.43,-1.44
203.19,0.99,2.42,0.99,2.43,-2.45,-2.39,-1.77,-1.46,-1.45,-1.44
205.23,0.95,2.38,0.96,2.39,-2.42,-2.34,-1.78,-1.48,-1.47,-1.44
207.28,0.95,2.38,0.94,2.38,-2.41,-2.30,-1.79,-1.46,-1.47,-1.44
209.35,0.95,2.38,0.94,2.38,-2.40,-2.27,-1.80,-1.46,-1.46,-1.44
211.44,0.95,2.39,0.94,2.39,-2.40,-2.23,-1.81,-1.45,-1.45,-1.45
213.56,0.95,2.39,0.94,2.38,-2.40,-2.21,-1.81,-1.45,-1.46,-1.45
215.69,0.94,2.39,0.94,2.40,-2.40,-2.18,-1.82,-1.46,-1.45,-1.46
217.85,0.94,2.39,0.97,2.43,-2.39,-2.16,-1.83,-1.45,-1.42,-1.46
220.03,0.99,2.45,0.95,2.41,-2.37,-2.15,-1.83,-1.38,-1.42,-1.47
222.23,0.96,2.42,0.88,2.35,-2.33,-2.14,-1.84,-1.37,-1.45,-1.47
224.45,0.74,2.20,0.83,2.30,-2.28,-2.13,-1.84,-1.54,-1.45,-1.47
226.70,0.72,2.18,0.75,2.22,-2.23,-2.11,-1.84,-1.51,-1.47,-1.47
228.96,0.79,2.26,0.66,2.13,-2.17,-2.10,-1.85,-1.37,-1.50,-1.47
231.25,0.57,2.02,0.62,2.08,-2.10,-2.09,-1.84,-1.54,-1.48,-1.46
233.57,0.50,1.95,0.55,2.01,-2.03,-2.06,-1.84,-1.54,-1.48,-1.46
235.90,0.55,1.99,0.50,1.94,-1.96,-2.03,-1.84,-1.42,-1.46,-1.45
238.26,0.49,1.92,0.49,1.93,-1.89,-1.99,-1.83,-1.40,-1.40,-1.44
240.64,0.47,1.88,0.45,1.87,-1.81,-1.94,-1.82,-1.35,-1.36,-1.42
243.05,0.37,1.77,0.36,1.77,-1.74,-1.87,-1.81,-1.38,-1.38,-1.41
245.48,0.27,1.66,0.28,1.67,-1.68,-1.80,-1.79,-1.41,-1.40,-1.40
247.93,0.19,1.57,0.20,1.58,-1.61,-1.72,-1.77,-1.43,-1.42,-1.39
250.41,0.15,1.52,0.13,1.51,-1.56,-1.64,-1.75,-1.41,-1.43,-1.38
252.92,0.09,1.45,0.08,1.45,-1.50,-1.55,-1.73,-1.41,-1.42,-1.37
255.45,0.04,1.40,0.06,1.42,-1.44,-1.46,-1.70,-1.41,-1.38,-1.37
258.00,0.04,1.40,0.05,1.42,-1.39,-1.36,-1.67,-1.35,-1.33,-1.37
260.58,0.07,1.43,0.03,1.39,-1.34,-1.27,-1.64,-1.27,-1.31,-1.37
263.19,-0.00,1.36,-0.03,1.33,-1.29,-1.19,-1.60,-1.29,-1.32,-1.37
265.82,-0.16,1.20,-0.12,1.24,-1.23,-1.10,-1.56,-1.39,-1.35,-1.37
268.48,-0.23,1.13,-0.23,1.14,-1.16,-1.02,-1.52,-1.39,-1.39,-1.37
271.16,-0.28,1.08,-0.31,1.06,-1.08,-0.95,-1.48,-1.37,-1.39,-1.37
273.87,-0.37,0.99,-0.36,1.01,-1.01,-0.87,-1.43,-1.38,-1.37,-1.37
276.61,-0.42,0.94,-0.43,0.93,-0.94,-0.80,-1.39,-1.36,-1.37,-1.37
279.38,-0.49,0.87,-0.51,0.85,-0.88,-0.74,-1.34,-1.37,-1.39,-1.37
282.17,-0.59,0.76,-0.56,0.79,-0.82,-0.67,-1.28,-1.41,-1.38,-1.36
284.99,-0.61,0.73,-0.61,0.74,-0.76,-0.61,-1.23,-1.37,-1.36,-1.35
287.84,-0.61,0.73,-0.64,0.70,-0.69,-0.55,-1.17,-1.30,-1.33,-1.35
290.72,-0.66,0.67,-0.65,0.69,-0.62,-0.50,-1.12,-1.28,-1.27,-1.34
293.63,-0.72,0.60,-0.72,0.61,-0.55,-0.44,-1.06,-1.27,-1.27,-1.33
296.57,-0.76,0.55,-0.84,0.48,-0.48,-0.39,-1.00,-1.24,-1.32,-1.32
299.53,-1.00,0.31,-0.96,0.35,-0.41,-0.34,-0.94,-1.42,-1.37,-1.32
302.53,-1.08,0.22,-1.03,0.28,-0.34,-0.29,-0.88,-1.42,-1.37,-1.31
305.55,-1.06,0.24,-1.07,0.23,-0.27,-0.24,-0.82,-1.33,-1.34,-1.31
308.61,-1.01,0.29,-1.08,0.22,-0.20,-0.19,-0.76,-1.22,-1.28,-1.31
311.69,-1.14,0.16,-1.13,0.17,-0.14,-0.14,-0.69,-1.29,-1.27,-1.31
314.81,-1.24,0.07,-1.22,0.09,-0.09,-0.09,-0.63,-1.33,-1.31,-1.32
317.96,-1.30,0.01,-1.30,0.02,-0.03,-0.05,-0.56,-1.34,-1.34,-1.32
321.14,-1.35,-0.03,-1.35,-0.03,0.02,0.00,-0.50,-1.33,-1.33,-1.33
324.35,-1.39,-0.07,-1.41,-0.08,0.10,0.05,-0.43,-1.30,-1.31,-1.33
327.59,-1.48,-0.15,-1.48,-0.14,0.18,0.10,-0.37,-1.31,-1.30,-1.34
330.87,-1.58,-0.24,-1.59,-0.25,0.26,0.15,-0.30,-1.32,-1.33,-1.35
334.18,-1.68,-0.33,-1.71,-0.36,0.35,0.20,-0.24,-1.33,-1.36,-1.36
337.52,-1.87,-0.51,-1.81,-0.45,0.44,0.25,-0.17,-1.43,-1.37,-1.37
340.90,-1.89,-0.53,-1.91,-0.54,0.53,0.30,-0.11,-1.36,-1.38,-1.37
344.30,-1.96,-0.58,-2.02,-0.64,0.63,0.36,-0.04,-1.33,-1.39,-1.38
347.75,-2.14,-0.75,-2.10,-0.71,0.71,0.41,0.03,-1.43,-1.39,-1.40
351.23,-2.22,-0.82,-2.19,-0.78,0.78,0.47,0.10,-1.44,-1.40,-1.41
354.74,-2.23,-0.82,-2.26,-0.85,0.84,0.53,0.16,-1.40,-1.42,-1.42
358.28,-2.29,-0.87,-2.34,-0.91,0.88,0.59,0.23,-1.41,-1.46,-1.43
361.87,-2.41,-0.98,-2.40,-0.96,0.92,0.65,0.30,-1.50,-1.48,-1.44
365.49,-2.50,-1.05,-2.41,-0.95,0.95,0.72,0.36,-1.56,-1.46,-1.46
369.14,-2.36,-0.90,-2.43,-0.97,0.97,0.78,0.43,-1.39,-1.46,-1.47
372.83,-2.36,-0.89,-2.46,-0.99,1.00,0.85,0.50,-1.37,-1.47,-1.48
376.56,-2.60,-1.12,-2.48,-0.99,1.03,0.92,0.57,-1.57,-1.45,-1.49
380.33,-2.57,-1.08,-2.56,-1.06,1.07,0.99,0.64,-1.50,-1.48,-1.50
384.13,-2.51,-1.01,-2.64,-1.13,1.14,1.07,0.70,-1.38,-1.50,-1.51
387.97,-2.75,-1.24,-2.70,-1.18,1.22,1.14,0.77,-1.54,-1.48,-1.52
391.85,-2.84,-1.32,-2.80,-1.27,1.32,1.22,0.84,-1.53,-1.48,-1.53
395.77,-2.88,-1.35,-2.92,-1.39,1.41,1.29,0.91,-1.47,-1.51,-1.54
399.73,-3.00,-1.46,-3.04,-1.50,1.50,1.37,0.97,-1.50,-1.54,-1.55
403.72,-3.19,-1.64,-3.19,-1.63,1.58,1.44,1.04,-1.62,-1.61,-1.56
407.76,-3.35,-1.78,-3.30,-1.73,1.64,1.52,1.11,-1.71,-1.66,-1.58
411.84,-3.35,-1.77,-3.34,-1.76,1.69,1.59,1.17,-1.67,-1.66,-1.59
415.96,-3.28,-1.69,-3.32,-1.72,1.72,1.66,1.23,-1.57,-1.60,-1.60
420.12,-3.26,-1.67,-3.27,-1.66,1.72,1.72,1.30,-1.54,-1.54,-1.60
424.32,-3.25,-1.65,-3.26,-1.65,1.70,1.78,1.36,-1.55,-1.56,-1.61
428.56,-3.24,-1.64,-3.28,-1.68,1.67,1.83,1.42,-1.58,-1.61,-1.61
432.85,-3.30,-1.71,-3.25,-1.65,1.63,1.87,1.47,-1.68,-1.63,-1.60
437.18,-3.24,-1.66,-3.20,-1.62,1.59,1.90,1.53,-1.66,-1.62,-1.59
441.55,-3.05,-1.49,-3.14,-1.58,1.56,1.93,1.58,-1.50,-1.58,-1.57
445.96,-3.08,-1.54,-3.05,-1.50,1.54,1.94,1.63,-1.54,-1.50,-1.55
450.42,-3.02,-1.51,-3.00,-1.48,1.54,1.95,1.68,-1.49,-1.46,-1.52
454.93,-2.92,-1.45,-2.99,-1.51,1.53,1.94,1.72,-1.39,-1.46,-1.48
459.48,-2.99,-1.56,-2.97,-1.53,1.54,1.93,1.76,-1.45,-1.43,-1.44
