frequency,raw,error,smoothed,error_smoothed,equalization,parametric_eq,fixed_band_eq,equalized_raw,equalized_smoothed,target
20.00,0.94,-4.17,0.94,-4.17,4.18,4.01,0.59,5.12,5.12,5.12
20.20,1.01,-4.09,1.01,-4.10,4.10,3.97,0.61,5.11,5.11,5.11
20.40,1.08,-4.02,1.08,-4.02,4.02,3.92,0.63,5.10,5.10,5.10
20.61,1.16,-3.94,1.16,-3.94,3.93,3.87,0.66,5.09,5.09,5.10
20.81,1.24,-3.85,1.24,-3.86,3.85,3.81,0.68,5.09,5.09,5.09
21.02,1.31,-3.78,1.32,-3.77,3.76,3.76,0.70,5.07,5.08,5.09
21.23,1.40,-3.67,1.40,-3.68,3.68,3.70,0.72,5.08,5.07,5.07
21.44,1.47,-3.58,1.47,-3.59,3.59,3.64,0.75,5.06,5.06,5.05
21.66,1.54,-3.49,1.54,-3.49,3.50,3.58,0.77,5.04,5.04,5.03
21.87,1.60,-3.40,1.61,-3.40,3.40,3.52,0.80,5.00,5.01,5.00
22.09,1.68,-3.30,1.67,-3.31,3.31,3.45,0.82,4.99,4.98,4.98
22.31,1.74,-3.22,1.74,-3.22,3.22,3.38,0.85,4.96,4.96,4.96
22.54,1.80,-3.13,1.81,-3.13,3.12,3.31,0.88,4.92,4.93,4.93
22.76,1.87,-3.03,1.87,-3.04,3.03,3.24,0.91,4.90,4.90,4.90
22.99,1.93,-2.94,1.93,-2.94,2.94,3.17,0.93,4.87,4.87,4.87
23.22,1.99,-2.85,1.99,-2.85,2.85,3.10,0.96,4.84,4.85,4.84
23.45,2.06,-2.76,2.06,-2.76,2.77,3.02,0.99,4.83,4.82,4.82
23.69,2.12,-2.68,2.12,-2.68,2.68,2.94,1.02,4.80,4.80,4.80
23.92,2.19,-2.59,2.19,-2.59,2.59,2.87,1.05,4.78,4.78,4.78
24.16,2.26,-2.51,2.26,-2.51,2.51,2.79,1.09,4.77,4.76,4.77
24.40,2.32,-2.43,2.32,-2.42,2.42,2.71,1.12,4.74,4.75,4.75
24.65,2.39,-2.34,2.39,-2.34,2.34,2.63,1.15,4.73,4.73,4.73
24.89,2.45,-2.26,2.45,-2.25,2.25,2.55,1.18,4.71,4.71,4.71
25.14,2.52,-2.17,2.52,-2.17,2.17,2.47,1.21,4.69,4.69,4.69
25.39,2.58,-2.09,2.58,-2.09,2.09,2.39,1.24,4.67,4.67,4.67
25.65,2.64,-2.02,2.65,-2.01,2.01,2.30,1.27,4.65,4.65,4.66
25.91,2.71,-1.92,2.71,-1.92,1.93,2.22,1.30,4.64,4.63,4.63
26.16,2.77,-1.84,2.77,-1.85,1.85,2.14,1.33,4.62,4.62,4.62
26.43,2.83,-1.77,2.83,-1.76,1.77,2.05,1.36,4.60,4.60,4.60
26.69,2.89,-1.69,2.89,-1.69,1.69,1.97,1.38,4.58,4.58,4.58
26.96,2.96,-1.60,2.96,-1.61,1.61,1.89,1.41,4.57,4.56,4.56
27.23,3.02,-1.53,3.02,-1.53,1.53,1.80,1.43,4.55,4.55,4.55
27.50,3.07,-1.46,3.08,-1.46,1.45,1.72,1.45,4.52,4.53,4.53
27.77,3.14,-1.37,3.14,-1.38,1.37,1.63,1.47,4.52,4.51,4.51
28.05,3.20,-1.30,3.20,-1.29,1.30,1.55,1.49,4.50,4.50,4.50
28.33,3.26,-1.21,3.26,-1.22,1.22,1.46,1.50,4.49,4.49,4.47
28.62,3.32,-1.14,3.32,-1.14,1.15,1.38,1.51,4.47,4.47,4.46
28.90,3.37,-1.09,3.37,-1.08,1.08,1.29,1.52,4.45,4.45,4.46
29.19,3.43,-1.01,3.43,-1.01,1.01,1.21,1.52,4.44,4.44,4.44
29.48,3.49,-0.95,3.49,-0.94,0.93,1.12,1.52,4.43,4.42,4.44
29.78,3.55,-0.87,3.55,-0.87,0.86,1.04,1.51,4.41,4.41,4.42
30.08,3.61,-0.79,3.61,-0.79,0.79,0.95,1.50,4.40,4.40,4.40
30.38,3.67,-0.71,3.67,-0.71,0.71,0.87,1.48,4.38,4.39,4.38
30.68,3.73,-0.63,3.73,-0.63,0.64,0.79,1.47,4.37,4.37,4.36
30.99,3.79,-0.55,3.79,-0.56,0.56,0.70,1.44,4.35,4.35,4.34
31.30,3.84,-0.49,3.85,-0.48,0.48,0.62,1.41,4.32,4.33,4.33
31.61,3.91,-0.41,3.90,-0.41,0.41,0.53,1.38,4.32,4.31,4.32
31.93,3.96,-0.33,3.96,-0.33,0.33,0.45,1.34,4.29,4.29,4.29
32.24,4.01,-0.25,4.02,-0.25,0.25,0.36,1.29,4.26,4.27,4.27
32.57,4.08,-0.16,4.07,-0.17,0.17,0.28,1.25,4.25,4.25,4.25
32.89,4.13,-0.10,4.13,-0.09,0.09,0.20,1.19,4.23,4.23,4.23
33.22,4.19,-0.01,4.19,-0.01,0.02,0.11,1.13,4.21,4.21,4.20
33.55,4.25,0.06,4.25,0.06,-0.06,0.03,1.07,4.19,4.19,4.19
33.89,4.30,0.14,4.30,0.14,-0.14,-0.05,1.01,4.16,4.16,4.16
34.23,4.36,0.21,4.36,0.22,-0.22,-0.14,0.94,4.14,4.14,4.15
34.57,4.41,0.30,4.41,0.30,-0.29,-0.22,0.86,4.12,4.12,4.12
34.92,4.47,0.38,4.47,0.37,-0.37,-0.30,0.78,4.10,4.10,4.09
35.27,4.52,0.44,4.52,0.44,-0.44,-0.39,0.70,4.08,4.08,4.08
35.62,4.57,0.51,4.58,0.52,-0.52,-0.47,0.62,4.05,4.05,4.06
35.97,4.63,0.60,4.63,0.59,-0.60,-0.55,0.53,4.03,4.03,4.03
36.33,4.69,0.68,4.69,0.68,-0.68,-0.63,0.44,4.02,4.01,4.01
36.70,4.74,0.75,4.74,0.76,-0.75,-0.72,0.35,3.99,3.99,3.99
37.06,4.80,0.84,4.80,0.83,-0.83,-0.80,0.26,3.97,3.97,3.96
37.43,4.86,0.91,4.86,0.92,-0.92,-0.88,0.16,3.95,3.95,3.95
37.81,4.92,1.00,4.92,1.00,-1.00,-0.96,0.07,3.92,3.93,3.93
38.19,4.99,1.09,4.99,1.08,-1.08,-1.05,-0.03,3.91,3.91,3.90
38.57,5.05,1.16,5.05,1.16,-1.17,-1.13,-0.14,3.89,3.89,3.89
38.95,5.11,1.24,5.11,1.25,-1.25,-1.21,-0.24,3.86,3.86,3.87
39.34,5.18,1.34,5.18,1.34,-1.34,-1.29,-0.34,3.84,3.84,3.84
39.74,5.24,1.43,5.24,1.42,-1.42,-1.37,-0.45,3.82,3.82,3.81
40.14,5.31,1.51,5.31,1.51,-1.51,-1.46,-0.56,3.80,3.80,3.80
40.54,5.37,1.60,5.38,1.60,-1.60,-1.54,-0.66,3.77,3.78,3.77
40.94,5.45,1.69,5.45,1.69,-1.69,-1.62,-0.77,3.76,3.76,3.76
41.35,5.52,1.78,5.52,1.78,-1.78,-1.70,-0.88,3.75,3.74,3.74
41.76,5.59,1.87,5.59,1.87,-1.86,-1.78,-0.99,3.73,3.73,3.72
42.18,5.66,1.95,5.66,1.95,-1.95,-1.86,-1.11,3.71,3.71,3.71
42.60,5.73,2.05,5.73,2.04,-2.04,-1.94,-1.22,3.69,3.69,3.69
43.03,5.80,2.12,5.80,2.13,-2.13,-2.03,-1.34,3.67,3.67,3.68
43.46,5.87,2.21,5.87,2.22,-2.23,-2.11,-1.45,3.64,3.65,3.66
43.90,5.95,2.33,5.95,2.32,-2.32,-2.19,-1.57,3.63,3.63,3.62
44.33,6.02,2.42,6.02,2.42,-2.42,-2.27,-1.69,3.61,3.60,3.60
44.78,6.09,2.51,6.09,2.51,-2.51,-2.35,-1.81,3.58,3.58,3.58
45.23,6.17,2.61,6.17,2.61,-2.61,-2.43,-1.93,3.56,3.56,3.56
45.68,6.24,2.70,6.24,2.70,-2.70,-2.51,-2.05,3.54,3.54,3.54
46.13,6.32,2.80,6.32,2.79,-2.79,-2.59,-2.17,3.53,3.53,3.52
46.60,6.39,2.88,6.39,2.88,-2.88,-2.67,-2.29,3.51,3.51,3.51
47.06,6.46,2.97,6.46,2.97,-2.97,-2.75,-2.42,3.49,3.49,3.50
47.53,6.54,3.06,6.53,3.05,-3.06,-2.83,-2.54,3.48,3.47,3.48
48.01,6.60,3.14,6.60,3.14,-3.15,-2.91,-2.67,3.45,3.45,3.46
48.49,6.67,3.23,6.67,3.24,-3.24,-2.99,-2.80,3.43,3.43,3.44
48.97,6.74,3.33,6.74,3.33,-3.33,-3.06,-2.93,3.41,3.41,3.41
49.46,6.80,3.42,6.80,3.42,-3.42,-3.14,-3.06,3.38,3.39,3.38
49.96,6.86,3.51,6.87,3.51,-3.50,-3.22,-3.19,3.36,3.36,3.36
50.46,6.93,3.59,6.93,3.59,-3.59,-3.30,-3.32,3.34,3.34,3.34
50.96,6.99,3.67,6.99,3.67,-3.67,-3.37,-3.45,3.32,3.32,3.32
51.47,7.04,3.75,7.05,3.75,-3.75,-3.45,-3.57,3.29,3.30,3.29
51.99,7.10,3.83,7.10,3.82,-3.82,-3.53,-3.70,3.28,3.27,3.27
52.51,7.15,3.89,7.15,3.89,-3.90,-3.60,-3.83,3.25,3.25,3.26
53.03,7.20,3.96,7.21,3.96,-3.97,-3.68,-3.96,3.23,3.24,3.25
53.56,7.26,4.05,7.26,4.04,-4.04,-3.75,-4.09,3.22,3.22,3.22
54.10,7.31,4.11,7.31,4.11,-4.11,-3.82,-4.21,3.20,3.20,3.20
54.64,7.35,4.17,7.36,4.18,-4.18,-3.90,-4.33,3.17,3.18,3.18
55.18,7.40,4.25,7.40,4.24,-4.25,-3.97,-4.45,3.16,3.15,3.16
55.74,7.45,4.32,7.44,4.31,-4.31,-4.04,-4.57,3.14,3.13,3.13
56.29,7.48,4.37,7.49,4.38,-4.37,-4.11,-4.68,3.11,3.11,3.11
56.86,7.53,4.44,7.53,4.44,-4.43,-4.18,-4.79,3.10,3.10,3.09
57.42,7.57,4.50,7.57,4.50,-4.49,-4.25,-4.90,3.08,3.08,3.07
58.00,7.61,4.55,7.61,4.55,-4.55,-4.32,-5.00,3.06,3.06,3.06
58.58,7.64,4.60,7.64,4.60,-4.60,-4.38,-5.09,3.04,3.04,3.04
59.16,7.68,4.65,7.68,4.65,-4.65,-4.45,-5.18,3.03,3.02,3.03
59.76,7.71,4.70,7.71,4.70,-4.71,-4.52,-5.26,3.00,3.00,3.01
60.35,7.74,4.76,7.74,4.75,-4.76,-4.58,-5.34,2.98,2.98,2.98
60.96,7.77,4.80,7.77,4.81,-4.81,-4.64,-5.41,2.96,2.96,2.97
61.57,7.80,4.87,7.80,4.86,-4.86,-4.71,-5.48,2.94,2.94,2.93
62.18,7.83,4.92,7.83,4.92,-4.91,-4.77,-5.53,2.92,2.92,2.91
62.80,7.86,4.97,7.86,4.97,-4.96,-4.83,-5.58,2.90,2.90,2.89
63.43,7.88,5.01,7.88,5.01,-5.01,-4.89,-5.63,2.87,2.87,2.87
64.07,7.90,5.05,7.90,5.05,-5.05,-4.94,-5.66,2.85,2.85,2.85
64.71,7.92,5.09,7.92,5.09,-5.09,-5.00,-5.69,2.83,2.83,2.83
65.35,7.94,5.13,7.94,5.13,-5.13,-5.06,-5.72,2.81,2.81,2.81
66.01,7.96,5.17,7.96,5.17,-5.17,-5.11,-5.74,2.79,2.79,2.80
66.67,7.98,5.20,7.98,5.20,-5.20,-5.17,-5.75,2.78,2.78,2.78
67.33,8.00,5.24,8.00,5.24,-5.24,-5.22,-5.76,2.76,2.76,2.76
68.01,8.01,5.27,8.02,5.28,-5.28,-5.27,-5.76,2.73,2.74,2.74
68.69,8.03,5.31,8.03,5.32,-5.31,-5.32,-5.76,2.72,2.72,2.72
69.37,8.05,5.36,8.05,5.35,-5.35,-5.37,-5.75,2.70,2.70,2.69
70.07,8.06,5.39,8.07,5.39,-5.39,-5.42,-5.75,2.67,2.68,2.67
70.77,8.08,5.42,8.08,5.42,-5.43,-5.47,-5.74,2.65,2.65,2.66
71.48,8.10,5.46,8.10,5.46,-5.46,-5.52,-5.73,2.64,2.63,2.64
72.19,8.11,5.50,8.11,5.50,-5.50,-5.56,-5.71,2.61,2.61,2.61
72.91,8.13,5.55,8.13,5.54,-5.54,-5.61,-5.70,2.59,2.59,2.58
73.64,8.14,5.59,8.14,5.58,-5.58,-5.65,-5.69,2.56,2.56,2.55
74.38,8.15,5.61,8.16,5.62,-5.62,-5.69,-5.67,2.53,2.54,2.54
75.12,8.17,5.66,8.17,5.66,-5.66,-5.74,-5.66,2.51,2.51,2.51
75.87,8.19,5.70,8.19,5.69,-5.70,-5.78,-5.65,2.49,2.49,2.49
76.63,8.20,5.73,8.20,5.74,-5.74,-5.82,-5.64,2.46,2.46,2.47
77.40,8.21,5.77,8.22,5.78,-5.78,-5.86,-5.64,2.43,2.44,2.44
78.17,8.23,5.83,8.23,5.82,-5.82,-5.90,-5.63,2.41,2.41,2.40
78.95,8.25,5.87,8.25,5.86,-5.86,-5.94,-5.63,2.39,2.39,2.38
79.74,8.26,5.90,8.26,5.90,-5.90,-5.97,-5.63,2.36,2.36,2.36
80.54,8.28,5.95,8.28,5.95,-5.95,-6.01,-5.63,2.33,2.33,2.33
81.35,8.30,6.00,8.30,5.99,-6.00,-6.05,-5.64,2.30,2.30,2.30
82.16,8.32,6.05,8.32,6.04,-6.04,-6.09,-5.65,2.28,2.28,2.27
82.98,8.33,6.08,8.33,6.09,-6.09,-6.12,-5.67,2.24,2.25,2.25
83.81,8.35,6.14,8.35,6.14,-6.13,-6.16,-5.68,2.22,2.21,2.21
84.65,8.36,6.18,8.36,6.18,-6.18,-6.19,-5.71,2.18,2.18,2.18
85.50,8.38,6.23,8.38,6.23,-6.23,-6.23,-5.73,2.15,2.15,2.15
86.35,8.39,6.27,8.39,6.27,-6.28,-6.26,-5.76,2.12,2.11,2.12
87.22,8.40,6.32,8.41,6.32,-6.32,-6.30,-5.80,2.08,2.08,2.08
88.09,8.42,6.37,8.42,6.37,-6.37,-6.33,-5.84,2.05,2.05,2.05
88.97,8.44,6.42,8.44,6.41,-6.41,-6.37,-5.88,2.03,2.02,2.02
89.86,8.45,6.45,8.45,6.46,-6.46,-6.40,-5.93,1.99,1.99,2.00
90.76,8.46,6.51,8.46,6.50,-6.50,-6.44,-5.98,1.96,1.96,1.95
91.66,8.47,6.55,8.47,6.55,-6.55,-6.47,-6.04,1.92,1.92,1.93
92.58,8.48,6.60,8.48,6.60,-6.59,-6.51,-6.10,1.89,1.89,1.88
93.51,8.49,6.63,8.49,6.64,-6.64,-6.54,-6.17,1.85,1.85,1.86
94.44,8.51,6.69,8.51,6.68,-6.69,-6.57,-6.24,1.82,1.82,1.82
95.39,8.51,6.73,8.51,6.73,-6.73,-6.61,-6.31,1.78,1.78,1.79
96.34,8.52,6.78,8.52,6.78,-6.78,-6.64,-6.39,1.74,1.74,1.74
97.30,8.52,6.82,8.52,6.82,-6.82,-6.67,-6.48,1.70,1.70,1.70
98.28,8.53,6.87,8.53,6.87,-6.87,-6.71,-6.56,1.67,1.66,1.66
99.26,8.53,6.91,8.53,6.91,-6.91,-6.74,-6.65,1.62,1.62,1.62
100.25,8.53,6.95,8.53,6.95,-6.95,-6.77,-6.74,1.58,1.58,1.58
101.25,8.53,6.99,8.53,6.99,-6.99,-6.81,-6.84,1.54,1.54,1.54
102.27,8.53,7.03,8.53,7.03,-7.03,-6.84,-6.93,1.50,1.50,1.50
103.29,8.52,7.08,8.52,7.07,-7.07,-6.87,-7.03,1.45,1.46,1.44
104.32,8.52,7.11,8.52,7.11,-7.10,-6.91,-7.13,1.42,1.41,1.42
105.37,8.51,7.14,8.51,7.14,-7.14,-6.94,-7.24,1.37,1.37,1.37
106.42,8.50,7.17,8.50,7.17,-7.18,-6.97,-7.34,1.33,1.32,1.33
107.48,8.48,7.19,8.49,7.20,-7.21,-7.00,-7.44,1.27,1.28,1.29
108.56,8.47,7.24,8.47,7.24,-7.24,-7.03,-7.54,1.23,1.23,1.23
109.64,8.46,7.27,8.46,7.27,-7.27,-7.06,-7.63,1.19,1.19,1.19
110.74,8.44,7.30,8.44,7.30,-7.30,-7.09,-7.73,1.14,1.14,1.14
111.85,8.41,7.31,8.41,7.32,-7.32,-7.12,-7.82,1.09,1.09,1.10
112.97,8.39,7.36,8.39,7.34,-7.35,-7.14,-7.91,1.04,1.04,1.03
114.10,8.35,7.36,8.36,7.37,-7.37,-7.17,-7.99,0.98,0.99,0.99
115.24,8.33,7.39,8.33,7.39,-7.38,-7.20,-8.06,0.95,0.94,0.95
116.39,8.30,7.40,8.30,7.40,-7.40,-7.22,-8.13,0.90,0.90,0.90
117.55,8.26,7.41,8.26,7.41,-7.41,-7.24,-8.19,0.85,0.85,0.85
118.73,8.22,7.42,8.22,7.42,-7.42,-7.26,-8.24,0.80,0.81,0.80
119.92,8.18,7.42,8.18,7.42,-7.42,-7.28,-8.27,0.76,0.76,0.76
121.12,8.14,7.42,8.14,7.42,-7.42,-7.30,-8.30,0.72,0.72,0.72
122.33,8.09,7.42,8.09,7.42,-7.42,-7.31,-8.32,0.67,0.68,0.67
123.55,8.05,7.41,8.05,7.41,-7.41,-7.33,-8.32,0.64,0.64,0.64
124.79,8.00,7.40,8.00,7.40,-7.41,-7.34,-8.32,0.59,0.59,0.60
126.03,7.95,7.40,7.95,7.39,-7.40,-7.34,-8.30,0.55,0.55,0.56
127.29,7.89,7.38,7.90,7.38,-7.39,-7.35,-8.26,0.50,0.51,0.51
128.57,7.84,7.37,7.84,7.37,-7.37,-7.35,-8.22,0.47,0.47,0.47
129.85,7.79,7.37,7.78,7.36,-7.35,-7.35,-8.16,0.44,0.43,0.42
131.15,7.72,7.33,7.73,7.34,-7.33,-7.35,-8.10,0.39,0.40,0.39
132.46,7.67,7.31,7.67,7.31,-7.31,-7.34,-8.02,0.36,0.36,0.36
133.79,7.61,7.28,7.61,7.28,-7.28,-7.34,-7.93,0.33,0.32,0.33
135.12,7.54,7.26,7.54,7.25,-7.25,-7.32,-7.83,0.29,0.29,0.28
136.48,7.47,7.21,7.48,7.21,-7.22,-7.31,-7.73,0.25,0.26,0.26
137.84,7.41,7.18,7.41,7.18,-7.18,-7.29,-7.62,0.23,0.23,0.23
139.22,7.35,7.15,7.35,7.14,-7.14,-7.27,-7.50,0.21,0.21,0.20
140.61,7.28,7.11,7.28,7.10,-7.10,-7.24,-7.38,0.18,0.18,0.17
142.02,7.22,7.05,7.22,7.06,-7.05,-7.21,-7.25,0.17,0.16,0.17
143.44,7.14,7.00,7.15,7.01,-7.01,-7.18,-7.12,0.13,0.14,0.14
144.87,7.08,6.96,7.08,6.96,-6.96,-7.14,-6.98,0.12,0.12,0.12
146.32,7.01,6.91,7.01,6.91,-6.91,-7.10,-6.85,0.10,0.10,0.10
147.78,6.94,6.85,6.94,6.86,-6.86,-7.06,-6.71,0.08,0.09,0.09
149.26,6.87,6.80,6.87,6.80,-6.80,-7.01,-6.57,0.07,0.07,0.07
150.75,6.79,6.75,6.79,6.75,-6.75,-6.96,-6.43,0.04,0.05,0.04
152.26,6.71,6.69,6.71,6.69,-6.69,-6.91,-6.30,0.02,0.03,0.02
153.78,6.64,6.63,6.64,6.63,-6.63,-6.85,-6.16,0.01,0.01,0.01
155.32,6.56,6.57,6.56,6.57,-6.57,-6.79,-6.03,-0.01,-0.01,-0.01
156.88,6.48,6.51,6.48,6.51,-6.51,-6.72,-5.89,-0.03,-0.03,-0.03
158.44,6.39,6.44,6.39,6.44,-6.45,-6.65,-5.76,-0.06,-0.05,-0.05
160.03,6.31,6.38,6.31,6.38,-6.38,-6.58,-5.63,-0.07,-0.07,-0.07
161.63,6.22,6.32,6.22,6.32,-6.32,-6.51,-5.51,-0.09,-0.09,-0.10
163.24,6.13,6.25,6.13,6.25,-6.25,-6.43,-5.38,-0.12,-0.11,-0.12
164.88,6.04,6.17,6.04,6.18,-6.18,-6.35,-5.27,-0.14,-0.13,-0.13
166.53,5.95,6.10,5.95,6.10,-6.10,-6.27,-5.15,-0.15,-0.15,-0.15
168.19,5.86,6.04,5.86,6.03,-6.03,-6.19,-5.04,-0.17,-0.17,-0.18
169.87,5.76,5.96,5.76,5.96,-5.96,-6.10,-4.93,-0.20,-0.20,-0.20
171.57,5.66,5.89,5.66,5.88,-5.89,-6.01,-4.82,-0.22,-0.22,-0.22
173.29,5.56,5.80,5.56,5.80,-5.81,-5.92,-4.72,-0.25,-0.25,-0.24
175.02,5.46,5.73,5.46,5.73,-5.74,-5.83,-4.62,-0.28,-0.28,-0.27
176.77,5.36,5.67,5.36,5.66,-5.66,-5.74,-4.52,-0.30,-0.30,-0.30
178.54,5.26,5.60,5.26,5.59,-5.59,-5.64,-4.43,-0.33,-0.33,-0.34
180.32,5.15,5.52,5.15,5.52,-5.52,-5.55,-4.34,-0.36,-0.36,-0.37
182.13,5.04,5.43,5.04,5.44,-5.44,-5.45,-4.25,-0.40,-0.40,-0.39
183.95,4.93,5.37,4.94,5.36,-5.36,-5.35,-4.17,-0.43,-0.43,-0.43
185.79,4.83,5.29,4.83,5.29,-5.29,-5.25,-4.09,-0.45,-0.46,-0.46
187.65,4.72,5.21,4.72,5.21,-5.21,-5.15,-4.01,-0.48,-0.49,-0.49
189.52,4.60,5.12,4.61,5.12,-5.13,-5.04,-3.94,-0.52,-0.52,-0.51
191.42,4.50,5.05,4.50,5.04,-5.04,-4.94,-3.87,-0.54,-0.55,-0.55
193.33,4.39,4.96,4.39,4.96,-4.96,-4.84,-3.80,-0.57,-0.57,-0.57
195.27,4.28,4.88,4.28,4.88,-4.88,-4.73,-3.74,-0.60,-0.60,-0.60
197.22,4.16,4.78,4.17,4.80,-4.79,-4.63,-3.68,-0.63,-0.62,-0.62
199.19,4.06,4.72,4.06,4.71,-4.71,-4.53,-3.62,-0.65,-0.65,-0.66
201.18,3.95,4.62,3.95,4.62,-4.62,-4.42,-3.56,-0.67,-0.68,-0.67
203.19,3.83,4.52,3.84,4.53,-4.53,-4.32,-3.50,-0.70,-0.70,-0.69
205.23,3.72,4.44,3.72,4.44,-4.44,-4.21,-3.45,-0.72,-0.72,-0.72
207.28,3.62,4.34,3.62,4.35,-4.35,-4.11,-3.40,-0.73,-0.74,-0.72
209.35,3.51,4.26,3.51,4.27,-4.26,-4.00,-3.35,-0.75,-0.75,-0.75
211.44,3.40,4.18,3.40,4.17,-4.17,-3.90,-3.30,-0.77,-0.77,-0.78
213.56,3.29,4.08,3.29,4.08,-4.08,-3.79,-3.25,-0.79,-0.79,-0.79
215.69,3.18,3.97,3.18,3.98,-3.98,-3.69,-3.21,-0.80,-0.80,-0.79
217.85,3.08,3.89,3.08,3.88,-3.88,-3.58,-3.16,-0.80,-0.81,-0.81
220.03,2.97,3.78,2.97,3.79,-3.78,-3.48,-3.11,-0.81,-0.81,-0.81
222.23,2.87,3.69,2.87,3.69,-3.68,-3.38,-3.07,-0.81,-0.81,-0.82
224.45,2.77,3.58,2.77,3.58,-3.58,-3.28,-3.02,-0.81,-0.81,-0.81
226.70,2.66,3.47,2.66,3.47,-3.47,-3.17,-2.98,-0.81,-0.81,-0.81
228.96,2.56,3.36,2.56,3.36,-3.36,-3.07,-2.93,-0.80,-0.80,-0.80
231.25,2.46,3.25,2.46,3.25,-3.26,-2.97,-2.89,-0.79,-0.80,-0.79
233.57,2.36,3.15,2.36,3.14,-3.14,-2.87,-2.84,-0.78,-0.78,-0.78
235.90,2.26,3.03,2.26,3.03,-3.03,-2.77,-2.79,-0.77,-0.77,-0.77
238.26,2.16,2.93,2.16,2.92,-2.92,-2.67,-2.74,-0.76,-0.76,-0.77
240.64,2.06,2.80,2.06,2.80,-2.80,-2.57,-2.69,-0.74,-0.74,-0.74
243.05,1.96,2.69,1.96,2.68,-2.68,-2.47,-2.64,-0.72,-0.73,-0.73
245.48,1.85,2.55,1.86,2.56,-2.56,-2.37,-2.58,-0.71,-0.71,-0.70
247.93,1.76,2.44,1.76,2.44,-2.44,-2.28,-2.53,-0.68,-0.68,-0.68
250.41,1.66,2.33,1.66,2.32,-2.32,-2.18,-2.47,-0.66,-0.66,-0.67
252.92,1.56,2.20,1.56,2.19,-2.19,-2.08,-2.41,-0.63,-0.64,-0.64
255.45,1.44,2.05,1.45,2.07,-2.07,-1.99,-2.35,-0.63,-0.62,-0.61
258.00,1.35,1.95,1.35,1.94,-1.94,-1.89,-2.28,-0.59,-0.59,-0.59
260.58,1.25,1.82,1.25,1.82,-1.81,-1.80,-2.22,-0.56,-0.57,-0.57
263.19,1.14,1.68,1.14,1.69,-1.69,-1.70,-2.15,-0.55,-0.54,-0.54
265.82,1.04,1.57,1.04,1.56,-1.56,-1.61,-2.08,-0.52,-0.52,-0.53
268.48,0.93,1.42,0.94,1.43,-1.43,-1.52,-2.00,-0.50,-0.49,-0.49
271.16,0.84,1.30,0.83,1.30,-1.30,-1.43,-1.93,-0.46,-0.47,-0.46
273.87,0.73,1.18,0.73,1.18,-1.18,-1.33,-1.85,-0.45,-0.45,-0.45
276.61,0.63,1.05,0.63,1.05,-1.05,-1.24,-1.77,-0.42,-0.42,-0.42
279.38,0.53,0.93,0.53,0.93,-0.93,-1.15,-1.70,-0.40,-0.40,-0.40
282.17,0.43,0.81,0.43,0.81,-0.81,-1.06,-1.61,-0.38,-0.38,-0.38
284.99,0.34,0.69,0.34,0.69,-0.69,-0.97,-1.53,-0.35,-0.35,-0.35
287.84,0.25,0.57,0.25,0.58,-0.58,-0.89,-1.45,-0.33,-0.33,-0.32
290.72,0.17,0.47,0.17,0.46,-0.47,-0.80,-1.36,-0.30,-0.30,-0.30
293.63,0.09,0.36,0.09,0.36,-0.36,-0.71,-1.28,-0.27,-0.27,-0.27
296.57,0.01,0.25,0.01,0.26,-0.25,-0.62,-1.19,-0.24,-0.24,-0.24
299.53,-0.06,0.15,-0.06,0.15,-0.15,-0.54,-1.10,-0.21,-0.21,-0.21
302.53,-0.13,0.07,-0.13,0.06,-0.05,-0.45,-1.02,-0.18,-0.18,-0.19
305.55,-0.20,-0.05,-0.19,-0.04,0.04,-0.37,-0.93,-0.16,-0.15,-0.15
308.61,-0.25,-0.13,-0.25,-0.14,0.14,-0.28,-0.84,-0.11,-0.12,-0.12
311.69,-0.31,-0.23,-0.31,-0.23,0.22,-0.20,-0.75,-0.08,-0.08,-0.08
314.81,-0.36,-0.33,-0.36,-0.31,0.31,-0.11,-0.66,-0.05,-0.05,-0.03
317.96,-0.41,-0.39,-0.41,-0.40,0.40,-0.03,-0.57,-0.01,-0.01,-0.02
321.14,-0.46,-0.47,-0.46,-0.47,0.48,0.05,-0.48,0.02,0.02,0.01
324.35,-0.51,-0.55,-0.51,-0.55,0.56,0.13,-0.38,0.05,0.05,0.04
327.59,-0.56,-0.63,-0.56,-0.63,0.63,0.22,-0.29,0.07,0.07,0.07
330.87,-0.61,-0.71,-0.61,-0.71,0.71,0.30,-0.20,0.10,0.09,0.10
334.18,-0.67,-0.79,-0.66,-0.78,0.78,0.38,-0.11,0.11,0.12,0.12
337.52,-0.71,-0.84,-0.71,-0.85,0.85,0.46,-0.02,0.14,0.14,0.14
340.90,-0.76,-0.92,-0.76,-0.92,0.92,0.54,0.08,0.16,0.16,0.16
344.30,-0.81,-0.99,-0.81,-0.99,0.99,0.61,0.17,0.18,0.18,0.18
347.75,-0.86,-1.06,-0.86,-1.06,1.06,0.69,0.27,0.20,0.20,0.20
351.23,-0.90,-1.12,-0.90,-1.12,1.12,0.77,0.36,0.23,0.22,0.22
354.74,-0.95,-1.19,-0.95,-1.19,1.19,0.85,0.46,0.24,0.24,0.24
358.28,-1.00,-1.26,-1.00,-1.25,1.25,0.92,0.55,0.25,0.25,0.26
361.87,-1.04,-1.32,-1.04,-1.32,1.31,1.00,0.65,0.27,0.27,0.28
365.49,-1.08,-1.37,-1.08,-1.37,1.37,1.07,0.74,0.29,0.29,0.30
369.14,-1.12,-1.42,-1.12,-1.42,1.43,1.15,0.84,0.31,0.31,0.30
372.83,-1.16,-1.48,-1.16,-1.48,1.48,1.22,0.94,0.32,0.33,0.32
376.56,-1.19,-1.52,-1.19,-1.53,1.54,1.29,1.03,0.35,0.34,0.33
380.33,-1.24,-1.60,-1.23,-1.59,1.60,1.36,1.13,0.36,0.36,0.36
384.13,-1.27,-1.65,-1.27,-1.65,1.65,1.43,1.23,0.38,0.38,0.38
387.97,-1.32,-1.72,-1.32,-1.72,1.71,1.50,1.33,0.39,0.39,0.40
391.85,-1.36,-1.77,-1.36,-1.77,1.77,1.57,1.42,0.41,0.41,0.41
395.77,-1.40,-1.84,-1.40,-1.83,1.83,1.64,1.52,0.43,0.43,0.44
399.73,-1.43,-1.89,-1.43,-1.89,1.89,1.71,1.62,0.46,0.46,0.46
403.72,-1.47,-1.95,-1.47,-1.95,1.95,1.78,1.72,0.48,0.48,0.48
407.76,-1.51,-2.00,-1.51,-2.01,2.01,1.84,1.82,0.50,0.50,0.50
411.84,-1.55,-2.07,-1.55,-2.07,2.06,1.91,1.91,0.52,0.52,0.52
415.96,-1.58,-2.12,-1.58,-2.12,2.12,1.97,2.01,0.54,0.54,0.54
420.12,-1.61,-2.17,-1.61,-2.18,2.18,2.03,2.11,0.57,0.56,0.56
424.32,-1.65,-2.23,-1.65,-2.23,2.23,2.10,2.20,0.58,0.58,0.58
428.56,-1.68,-2.28,-1.68,-2.28,2.29,2.16,2.29,0.61,0.61,0.60
432.85,-1.72,-2.34,-1.71,-2.34,2.34,2.21,2.38,0.62,0.63,0.62
437.18,-1.74,-2.39,-1.74,-2.39,2.39,2.27,2.47,0.65,0.65,0.65
441.55,-1.77,-2.45,-1.77,-2.45,2.45,2.33,2.56,0.68,0.68,0.68
445.96,-1.80,-2.50,-1.80,-2.50,2.50,2.38,2.65,0.70,0.70,0.70
450.42,-1.82,-2.54,-1.82,-2.55,2.55,2.44,2.73,0.73,0.73,0.72
454.93,-1.85,-2.61,-1.84,-2.60,2.60,2.49,2.81,0.75,0.75,0.76
459.48,-1.86,-2.64,-1.86,-2.64,2.64,2.54,2.88,0.78,0.78,0.78
464.07,-1.88,-2.69,-1.88,-2.69,2.69,2.59,2.95,0.81,0.81,0.81
468.71,-1.89,-2.73,-1.89,-2.73,2.73,2.63,3.02,0.84,0.84,0.84
473.40,-1.90,-2.77,-1.90,-2.77,2.77,2.68,3.08,0.87,0.87,0.87
478.13,-1.91,-2.81,-1.91,-2.80,2.80,2.72,3.14,0.90,0.89,0.90
482.91,-1.92,-2.84,-1.92,-2.84,2.84,2.76,3.19,0.92,0.92,0.92
487.74,-1.92,-2.87,-1.92,-2.86,2.86,2.80,3.24,0.95,0.95,0.95
492.62,-1.91,-2.89,-1.91,-2.89,2.89,2.84,3.29,0.98,0.98,0.98
497.55,-1.90,-2.91,-1.90,-2.91,2.90,2.87,3.32,1.01,1.00,1.01
502.52,-1.89,-2.93,-1.89,-2.92,2.92,2.90,3.36,1.03,1.03,1.04
507.55,-1.87,-2.93,-1.87,-2.92,2.92,2.93,3.39,1.05,1.05,1.06
512.62,-1.85,-2.92,-1.85,-2.93,2.92,2.95,3.41,1.08,1.08,1.08
517.75,-1.81,-2.91,-1.82,-2.92,2.92,2.97,3.43,1.11,1.10,1.11
522.93,-1.79,-2.92,-1.78,-2.91,2.91,2.98,3.44,1.12,1.13,1.14
528.16,-1.75,-2.90,-1.75,-2.90,2.90,2.99,3.45,1.15,1.15,1.15
