frequency,raw,error,smoothed,error_smoothed,equalization,parametric_eq,fixed_band_eq,equalized_raw,equalized_smoothed,target
20.00,-2.21,-6.88,-2.21,-6.88,5.98,5.10,2.01,3.77,3.77,4.68
20.20,-2.10,-6.74,-2.10,-6.75,6.01,5.08,2.07,3.91,3.91,4.65
20.40,-1.99,-6.61,-1.99,-6.61,6.02,5.06,2.13,4.04,4.04,4.63
20.61,-1.88,-6.49,-1.88,-6.48,6.03,5.04,2.20,4.15,4.15,4.61
20.81,-1.78,-6.36,-1.77,-6.36,6.02,5.02,2.26,4.24,4.25,4.59
21.02,-1.67,-6.23,-1.67,-6.24,6.00,5.00,2.33,4.33,4.33,4.56
21.23,-1.58,-6.12,-1.57,-6.12,5.97,4.98,2.39,4.39,4.39,4.54
21.44,-1.48,-6.00,-1.48,-6.00,5.92,4.96,2.47,4.45,4.45,4.52
21.66,-1.39,-5.89,-1.39,-5.89,5.86,4.94,2.54,4.48,4.48,4.50
21.87,-1.30,-5.79,-1.29,-5.78,5.79,4.92,2.61,4.49,4.50,4.49
22.09,-1.21,-5.68,-1.21,-5.68,5.70,4.90,2.69,4.50,4.50,4.47
22.31,-1.13,-5.59,-1.13,-5.59,5.61,4.88,2.77,4.48,4.48,4.46
22.54,-1.05,-5.50,-1.04,-5.49,5.51,4.86,2.85,4.46,4.46,4.45
22.76,-0.97,-5.41,-0.97,-5.41,5.41,4.84,2.93,4.44,4.44,4.44
22.99,-0.89,-5.32,-0.89,-5.32,5.32,4.82,3.02,4.43,4.43,4.43
23.22,-0.82,-5.24,-0.81,-5.23,5.24,4.80,3.10,4.42,4.42,4.42
23.45,-0.75,-5.15,-0.75,-5.16,5.16,4.78,3.19,4.42,4.41,4.41
23.69,-0.69,-5.09,-0.69,-5.09,5.09,4.75,3.28,4.41,4.41,4.40
23.92,-0.64,-5.03,-0.63,-5.03,5.03,4.73,3.37,4.39,4.40,4.40
24.16,-0.59,-4.97,-0.59,-4.98,4.97,4.71,3.47,4.39,4.39,4.39
24.40,-0.55,-4.93,-0.55,-4.93,4.93,4.69,3.56,4.38,4.38,4.38
24.65,-0.52,-4.89,-0.51,-4.89,4.88,4.67,3.66,4.37,4.37,4.37
24.89,-0.48,-4.85,-0.48,-4.85,4.85,4.64,3.76,4.37,4.37,4.37
25.14,-0.45,-4.81,-0.45,-4.82,4.82,4.62,3.86,4.38,4.37,4.36
25.39,-0.44,-4.79,-0.44,-4.79,4.80,4.60,3.96,4.36,4.36,4.35
25.65,-0.44,-4.79,-0.43,-4.78,4.78,4.58,4.06,4.35,4.35,4.35
25.91,-0.43,-4.77,-0.43,-4.77,4.77,4.55,4.16,4.34,4.34,4.34
26.16,-0.43,-4.76,-0.42,-4.76,4.76,4.53,4.26,4.33,4.33,4.34
26.43,-0.42,-4.75,-0.42,-4.75,4.75,4.51,4.35,4.33,4.33,4.34
26.69,-0.41,-4.73,-0.41,-4.74,4.74,4.48,4.45,4.33,4.33,4.33
26.96,-0.41,-4.73,-0.40,-4.73,4.73,4.46,4.55,4.32,4.32,4.32
27.23,-0.40,-4.71,-0.40,-4.71,4.71,4.44,4.64,4.32,4.32,4.31
27.50,-0.39,-4.70,-0.39,-4.70,4.69,4.41,4.73,4.31,4.31,4.31
27.77,-0.37,-4.68,-0.37,-4.67,4.67,4.39,4.82,4.30,4.30,4.31
28.05,-0.35,-4.65,-0.35,-4.65,4.64,4.36,4.90,4.29,4.30,4.30
28.33,-0.32,-4.61,-0.32,-4.61,4.61,4.34,4.98,4.29,4.29,4.30
28.62,-0.28,-4.57,-0.28,-4.57,4.57,4.31,5.06,4.29,4.29,4.30
28.90,-0.24,-4.52,-0.23,-4.52,4.52,4.29,5.12,4.28,4.29,4.28
29.19,-0.19,-4.47,-0.19,-4.47,4.47,4.26,5.19,4.29,4.28,4.28
29.48,-0.14,-4.42,-0.14,-4.42,4.42,4.24,5.24,4.28,4.28,4.28
29.78,-0.09,-4.37,-0.09,-4.37,4.37,4.21,5.29,4.28,4.28,4.28
30.08,-0.04,-4.31,-0.04,-4.31,4.32,4.19,5.33,4.28,4.28,4.28
30.38,0.00,-4.26,0.00,-4.27,4.27,4.16,5.37,4.27,4.27,4.27
30.68,0.04,-4.22,0.04,-4.22,4.22,4.14,5.39,4.26,4.26,4.26
30.99,0.08,-4.18,0.09,-4.17,4.17,4.11,5.41,4.25,4.26,4.26
31.30,0.13,-4.13,0.13,-4.13,4.12,4.08,5.41,4.26,4.25,4.26
31.61,0.17,-4.07,0.17,-4.08,4.08,4.06,5.41,4.25,4.25,4.25
31.93,0.20,-4.04,0.21,-4.03,4.03,4.03,5.40,4.23,4.24,4.24
32.24,0.25,-3.99,0.25,-3.99,3.99,4.00,5.38,4.24,4.24,4.24
32.57,0.29,-3.94,0.29,-3.94,3.94,3.98,5.36,4.23,4.24,4.23
32.89,0.33,-3.89,0.33,-3.89,3.90,3.95,5.32,4.23,4.24,4.23
33.22,0.37,-3.85,0.37,-3.85,3.86,3.92,5.28,4.24,4.23,4.22
33.55,0.39,-3.82,0.40,-3.82,3.82,3.90,5.23,4.22,4.22,4.21
33.89,0.42,-3.79,0.42,-3.79,3.79,3.87,5.17,4.21,4.21,4.21
34.23,0.44,-3.76,0.44,-3.76,3.75,3.84,5.11,4.19,4.19,4.21
34.57,0.47,-3.72,0.48,-3.72,3.71,3.81,5.05,4.18,4.18,4.19
34.92,0.51,-3.68,0.51,-3.68,3.67,3.78,4.98,4.18,4.18,4.19
35.27,0.55,-3.63,0.55,-3.63,3.63,3.75,4.90,4.18,4.18,4.19
35.62,0.59,-3.58,0.59,-3.58,3.58,3.72,4.82,4.18,4.18,4.17
35.97,0.63,-3.53,0.63,-3.54,3.54,3.70,4.74,4.18,4.18,4.17
36.33,0.67,-3.49,0.67,-3.49,3.50,3.67,4.65,4.17,4.17,4.16
36.70,0.70,-3.46,0.70,-3.46,3.46,3.64,4.57,4.16,4.17,4.16
37.06,0.73,-3.42,0.73,-3.42,3.43,3.61,4.48,4.16,4.16,4.16
37.43,0.75,-3.39,0.75,-3.39,3.39,3.57,4.39,4.15,4.15,4.14
37.81,0.77,-3.37,0.77,-3.36,3.36,3.54,4.30,4.14,4.14,4.14
38.19,0.79,-3.34,0.79,-3.34,3.33,3.51,4.21,4.13,4.13,4.13
38.57,0.81,-3.31,0.81,-3.31,3.30,3.48,4.12,4.12,4.12,4.12
38.95,0.83,-3.28,0.83,-3.28,3.28,3.45,4.04,4.11,4.11,4.11
39.34,0.85,-3.25,0.85,-3.25,3.25,3.42,3.95,4.10,4.10,4.10
39.74,0.87,-3.22,0.87,-3.22,3.22,3.38,3.86,4.09,4.10,4.09
40.14,0.89,-3.19,0.89,-3.19,3.19,3.35,3.78,4.09,4.09,4.08
40.54,0.91,-3.16,0.91,-3.16,3.17,3.32,3.70,4.08,4.08,4.07
40.94,0.92,-3.14,0.93,-3.14,3.14,3.28,3.62,4.06,4.07,4.07
41.35,0.94,-3.12,0.94,-3.12,3.11,3.25,3.54,4.06,4.06,4.06
41.76,0.96,-3.09,0.97,-3.09,3.08,3.21,3.46,4.05,4.05,4.05
42.18,0.99,-3.05,0.99,-3.06,3.05,3.18,3.39,4.04,4.04,4.05
42.60,1.02,-3.02,1.02,-3.02,3.02,3.14,3.31,4.04,4.04,4.04
43.03,1.05,-2.99,1.05,-2.99,2.99,3.11,3.24,4.04,4.04,4.04
43.46,1.08,-2.95,1.08,-2.95,2.95,3.07,3.18,4.04,4.04,4.04
43.90,1.11,-2.92,1.11,-2.92,2.92,3.04,3.11,4.03,4.03,4.03
44.33,1.14,-2.88,1.14,-2.88,2.89,3.00,3.05,4.03,4.03,4.02
44.78,1.16,-2.85,1.16,-2.85,2.86,2.96,2.99,4.03,4.02,4.01
45.23,1.17,-2.83,1.17,-2.83,2.84,2.92,2.93,4.01,4.01,4.01
45.68,1.18,-2.81,1.18,-2.81,2.81,2.89,2.87,4.00,4.00,4.00
46.13,1.19,-2.79,1.19,-2.79,2.79,2.85,2.82,3.99,3.99,3.99
46.60,1.20,-2.78,1.21,-2.77,2.77,2.81,2.77,3.97,3.98,3.98
47.06,1.22,-2.75,1.22,-2.75,2.75,2.77,2.72,3.97,3.96,3.97
47.53,1.22,-2.73,1.23,-2.72,2.72,2.74,2.67,3.94,3.95,3.95
48.01,1.24,-2.70,1.24,-2.70,2.69,2.70,2.63,3.93,3.93,3.94
48.49,1.26,-2.67,1.26,-2.66,2.66,2.66,2.59,3.92,3.92,3.93
48.97,1.29,-2.62,1.29,-2.62,2.62,2.63,2.55,3.91,3.91,3.92
49.46,1.32,-2.58,1.32,-2.58,2.58,2.59,2.51,3.91,3.91,3.91
49.96,1.35,-2.54,1.35,-2.54,2.54,2.55,2.47,3.90,3.90,3.89
50.46,1.38,-2.50,1.38,-2.50,2.50,2.52,2.44,3.88,3.88,3.88
50.96,1.41,-2.46,1.41,-2.46,2.46,2.48,2.40,3.87,3.87,3.87
51.47,1.44,-2.42,1.44,-2.42,2.42,2.45,2.37,3.86,3.86,3.87
51.99,1.47,-2.38,1.47,-2.38,2.38,2.42,2.34,3.85,3.85,3.85
52.51,1.49,-2.35,1.49,-2.34,2.34,2.38,2.31,3.84,3.84,3.84
53.03,1.51,-2.31,1.51,-2.31,2.31,2.35,2.28,3.83,3.83,3.82
53.56,1.53,-2.28,1.53,-2.28,2.29,2.32,2.25,3.82,3.82,3.81
54.10,1.54,-2.26,1.54,-2.26,2.26,2.29,2.22,3.81,3.81,3.80
54.64,1.55,-2.23,1.55,-2.24,2.25,2.26,2.20,3.80,3.80,3.79
55.18,1.54,-2.23,1.54,-2.23,2.24,2.23,2.17,3.78,3.78,3.77
55.74,1.53,-2.22,1.54,-2.22,2.23,2.20,2.14,3.76,3.76,3.75
56.29,1.52,-2.22,1.52,-2.22,2.22,2.18,2.12,3.74,3.74,3.75
56.86,1.51,-2.22,1.51,-2.22,2.21,2.15,2.09,3.73,3.72,3.73
57.42,1.50,-2.21,1.50,-2.21,2.20,2.12,2.06,3.71,3.71,3.71
58.00,1.50,-2.20,1.50,-2.19,2.19,2.10,2.04,3.69,3.69,3.70
58.58,1.50,-2.18,1.51,-2.17,2.17,2.07,2.01,3.67,3.68,3.68
59.16,1.52,-2.14,1.52,-2.15,2.14,2.04,1.98,3.66,3.66,3.66
59.76,1.53,-2.12,1.53,-2.11,2.11,2.01,1.95,3.64,3.64,3.65
60.35,1.55,-2.07,1.56,-2.07,2.07,1.99,1.92,3.62,3.62,3.63
60.96,1.58,-2.02,1.58,-2.02,2.02,1.96,1.89,3.60,3.60,3.61
61.57,1.61,-1.97,1.61,-1.97,1.97,1.93,1.85,3.58,3.58,3.58
62.18,1.64,-1.91,1.64,-1.92,1.92,1.90,1.82,3.56,3.56,3.56
62.80,1.67,-1.86,1.67,-1.86,1.86,1.87,1.78,3.54,3.54,3.53
63.43,1.70,-1.81,1.70,-1.81,1.81,1.84,1.75,3.51,3.51,3.51
64.07,1.73,-1.75,1.73,-1.75,1.75,1.81,1.71,3.48,3.48,3.48
64.71,1.76,-1.69,1.76,-1.69,1.69,1.78,1.67,3.45,3.45,3.46
65.35,1.79,-1.64,1.79,-1.64,1.64,1.75,1.63,3.43,3.43,3.43
66.01,1.81,-1.59,1.82,-1.58,1.58,1.72,1.58,3.40,3.40,3.40
66.67,1.84,-1.53,1.84,-1.53,1.54,1.68,1.54,3.38,3.37,3.37
67.33,1.85,-1.49,1.85,-1.49,1.49,1.65,1.50,3.34,3.35,3.34
68.01,1.86,-1.45,1.87,-1.44,1.45,1.61,1.45,3.31,3.32,3.31
68.69,1.87,-1.41,1.87,-1.41,1.42,1.58,1.40,3.29,3.29,3.28
69.37,1.87,-1.38,1.87,-1.38,1.38,1.54,1.35,3.26,3.25,3.25
70.07,1.86,-1.35,1.86,-1.35,1.35,1.50,1.30,3.21,3.22,3.22
70.77,1.85,-1.33,1.86,-1.33,1.32,1.46,1.25,3.18,3.18,3.18
71.48,1.85,-1.30,1.85,-1.30,1.29,1.43,1.20,3.15,3.15,3.16
72.19,1.85,-1.27,1.85,-1.27,1.26,1.38,1.15,3.12,3.12,3.12
72.91,1.85,-1.23,1.85,-1.23,1.23,1.34,1.10,3.09,3.09,3.09
73.64,1.85,-1.20,1.85,-1.20,1.20,1.30,1.04,3.05,3.05,3.05
74.38,1.85,-1.17,1.85,-1.17,1.17,1.26,0.99,3.02,3.02,3.02
75.12,1.85,-1.13,1.85,-1.13,1.13,1.22,0.94,2.99,2.99,2.98
75.87,1.85,-1.10,1.85,-1.10,1.10,1.17,0.88,2.95,2.95,2.95
76.63,1.85,-1.06,1.85,-1.06,1.06,1.13,0.83,2.91,2.91,2.91
77.40,1.85,-1.02,1.85,-1.02,1.02,1.08,0.77,2.88,2.88,2.87
78.17,1.85,-0.99,1.85,-0.98,0.98,1.03,0.72,2.84,2.84,2.84
78.95,1.85,-0.94,1.85,-0.94,0.95,0.99,0.66,2.80,2.80,2.80
79.74,1.85,-0.90,1.85,-0.91,0.90,0.94,0.61,2.76,2.76,2.75
80.54,1.85,-0.87,1.85,-0.86,0.86,0.89,0.56,2.72,2.72,2.72
81.35,1.85,-0.82,1.85,-0.82,0.82,0.84,0.50,2.67,2.67,2.68
82.16,1.85,-0.78,1.85,-0.78,0.78,0.79,0.45,2.63,2.63,2.63
82.98,1.85,-0.73,1.85,-0.73,0.73,0.74,0.39,2.59,2.59,2.58
83.81,1.85,-0.68,1.85,-0.69,0.69,0.69,0.34,2.54,2.54,2.54
84.65,1.85,-0.65,1.85,-0.64,0.64,0.64,0.28,2.50,2.50,2.50
85.50,1.85,-0.60,1.85,-0.60,0.59,0.59,0.23,2.45,2.45,2.45
86.35,1.85,-0.55,1.85,-0.55,0.55,0.54,0.17,2.40,2.40,2.40
87.22,1.85,-0.50,1.85,-0.50,0.50,0.49,0.12,2.35,2.35,2.35
88.09,1.85,-0.45,1.85,-0.45,0.45,0.44,0.07,2.30,2.30,2.30
88.97,1.85,-0.40,1.85,-0.40,0.40,0.39,0.01,2.25,2.25,2.25
89.86,1.85,-0.35,1.85,-0.35,0.35,0.34,-0.04,2.20,2.20,2.20
90.76,1.85,-0.29,1.85,-0.29,0.29,0.29,-0.10,2.15,2.15,2.15
91.66,1.85,-0.24,1.85,-0.24,0.24,0.24,-0.15,2.09,2.09,2.09
92.58,1.85,-0.19,1.85,-0.19,0.19,0.19,-0.21,2.04,2.04,2.04
93.51,1.85,-0.13,1.85,-0.13,0.13,0.14,-0.26,1.99,1.99,1.99
94.44,1.85,-0.08,1.85,-0.08,0.08,0.09,-0.31,1.93,1.93,1.93
95.39,1.85,-0.03,1.85,-0.03,0.03,0.04,-0.37,1.88,1.88,1.88
96.34,1.85,0.03,1.85,0.03,-0.03,-0.01,-0.42,1.83,1.83,1.82
97.30,1.85,0.07,1.85,0.08,-0.08,-0.06,-0.48,1.77,1.77,1.78
98.28,1.85,0.13,1.85,0.13,-0.13,-0.11,-0.53,1.72,1.72,1.72
99.26,1.85,0.19,1.85,0.18,-0.19,-0.15,-0.59,1.67,1.67,1.67
100.25,1.85,0.24,1.85,0.24,-0.24,-0.20,-0.64,1.61,1.61,1.61
101.25,1.85,0.30,1.85,0.30,-0.30,-0.25,-0.69,1.56,1.56,1.56
102.27,1.85,0.35,1.85,0.35,-0.35,-0.29,-0.75,1.50,1.50,1.50
103.29,1.85,0.41,1.85,0.41,-0.40,-0.34,-0.80,1.45,1.45,1.44
104.32,1.85,0.46,1.85,0.46,-0.46,-0.39,-0.85,1.39,1.39,1.40
105.37,1.85,0.51,1.85,0.51,-0.51,-0.43,-0.90,1.34,1.34,1.34
106.42,1.85,0.57,1.85,0.56,-0.57,-0.48,-0.96,1.29,1.29,1.28
107.48,1.85,0.62,1.85,0.62,-0.62,-0.53,-1.01,1.23,1.23,1.24
108.56,1.85,0.67,1.85,0.67,-0.68,-0.58,-1.06,1.18,1.18,1.18
109.64,1.85,0.73,1.85,0.73,-0.73,-0.63,-1.11,1.12,1.12,1.13
110.74,1.85,0.78,1.85,0.78,-0.78,-0.69,-1.16,1.07,1.07,1.07
111.85,1.85,0.84,1.85,0.84,-0.83,-0.75,-1.21,1.02,1.02,1.01
112.97,1.85,0.88,1.85,0.89,-0.88,-0.81,-1.25,0.97,0.97,0.97
114.10,1.85,0.94,1.85,0.94,-0.93,-0.87,-1.30,0.92,0.92,0.91
115.24,1.84,0.98,1.84,0.98,-0.98,-0.93,-1.34,0.86,0.86,0.86
116.39,1.83,1.03,1.83,1.03,-1.03,-1.00,-1.39,0.81,0.81,0.80
117.55,1.82,1.06,1.83,1.07,-1.08,-1.07,-1.43,0.75,0.75,0.76
118.73,1.82,1.12,1.83,1.12,-1.13,-1.14,-1.47,0.69,0.70,0.71
119.92,1.83,1.18,1.83,1.18,-1.18,-1.21,-1.51,0.65,0.65,0.65
121.12,1.84,1.24,1.84,1.24,-1.24,-1.29,-1.55,0.60,0.60,0.60
122.33,1.85,1.30,1.86,1.30,-1.30,-1.36,-1.58,0.55,0.56,0.56
123.55,1.88,1.38,1.88,1.37,-1.37,-1.43,-1.62,0.52,0.51,0.51
124.79,1.90,1.44,1.90,1.44,-1.43,-1.51,-1.65,0.47,0.47,0.46
126.03,1.92,1.51,1.92,1.51,-1.50,-1.58,-1.68,0.42,0.42,0.41
127.29,1.94,1.57,1.95,1.57,-1.58,-1.65,-1.71,0.37,0.37,0.37
128.57,1.97,1.65,1.97,1.65,-1.65,-1.73,-1.74,0.32,0.32,0.32
129.85,2.00,1.73,2.01,1.73,-1.73,-1.80,-1.76,0.27,0.27,0.28
131.15,2.04,1.81,2.04,1.81,-1.81,-1.86,-1.79,0.23,0.23,0.23
132.46,2.08,1.89,2.08,1.89,-1.90,-1.93,-1.81,0.18,0.18,0.19
133.79,2.12,1.98,2.13,1.98,-1.99,-2.00,-1.84,0.13,0.14,0.14
135.12,2.17,2.07,2.17,2.07,-2.08,-2.06,-1.86,0.09,0.09,0.10
136.48,2.22,2.17,2.22,2.17,-2.17,-2.12,-1.88,0.05,0.05,0.05
137.84,2.27,2.26,2.27,2.26,-2.25,-2.18,-1.90,0.02,0.02,0.01
139.22,2.31,2.35,2.31,2.35,-2.34,-2.24,-1.92,-0.02,-0.02,-0.03
140.61,2.35,2.43,2.35,2.43,-2.42,-2.30,-1.94,-0.06,-0.06,-0.08
142.02,2.38,2.49,2.38,2.49,-2.49,-2.35,-1.96,-0.11,-0.11,-0.11
143.44,2.40,2.55,2.40,2.55,-2.56,-2.41,-1.98,-0.15,-0.15,-0.15
144.87,2.42,2.61,2.42,2.61,-2.62,-2.46,-2.00,-0.20,-0.20,-0.19
146.32,2.44,2.66,2.45,2.67,-2.68,-2.51,-2.02,-0.24,-0.23,-0.22
147.78,2.47,2.73,2.47,2.73,-2.73,-2.56,-2.04,-0.26,-0.26,-0.26
149.26,2.49,2.79,2.49,2.78,-2.78,-2.61,-2.06,-0.29,-0.29,-0.30
150.75,2.50,2.83,2.51,2.83,-2.83,-2.65,-2.08,-0.33,-0.32,-0.32
152.26,2.51,2.87,2.52,2.88,-2.87,-2.70,-2.10,-0.36,-0.35,-0.36
153.78,2.52,2.92,2.52,2.91,-2.91,-2.74,-2.12,-0.38,-0.38,-0.40
155.32,2.52,2.94,2.52,2.94,-2.94,-2.78,-2.15,-0.41,-0.42,-0.42
156.88,2.51,2.97,2.51,2.97,-2.96,-2.82,-2.17,-0.45,-0.45,-0.45
158.44,2.49,2.98,2.50,2.98,-2.98,-2.86,-2.20,-0.49,-0.49,-0.49
160.03,2.48,3.00,2.48,3.00,-3.01,-2.90,-2.23,-0.52,-0.53,-0.52
161.63,2.47,3.02,2.47,3.02,-3.03,-2.94,-2.26,-0.56,-0.56,-0.55
163.24,2.47,3.05,2.47,3.05,-3.06,-2.97,-2.29,-0.59,-0.58,-0.57
164.88,2.48,3.09,2.48,3.08,-3.09,-3.01,-2.32,-0.61,-0.61,-0.60
166.53,2.49,3.12,2.49,3.12,-3.13,-3.04,-2.36,-0.63,-0.63,-0.63
168.19,2.51,3.17,2.51,3.17,-3.17,-3.07,-2.40,-0.65,-0.65,-0.66
169.87,2.53,3.21,2.53,3.22,-3.21,-3.10,-2.43,-0.68,-0.68,-0.68
171.57,2.56,3.27,2.56,3.26,-3.27,-3.13,-2.48,-0.70,-0.71,-0.70
173.29,2.58,3.31,2.58,3.31,-3.32,-3.16,-2.52,-0.74,-0.74,-0.73
175.02,2.61,3.37,2.62,3.37,-3.38,-3.19,-2.56,-0.77,-0.76,-0.76
176.77,2.65,3.42,2.66,3.43,-3.44,-3.22,-2.61,-0.78,-0.78,-0.77
178.54,2.70,3.50,2.70,3.49,-3.49,-3.24,-2.66,-0.79,-0.80,-0.79
180.32,2.73,3.55,2.73,3.55,-3.55,-3.27,-2.71,-0.81,-0.81,-0.82
182.13,2.76,3.60,2.76,3.60,-3.60,-3.29,-2.77,-0.83,-0.83,-0.84
183.95,2.78,3.65,2.78,3.64,-3.64,-3.31,-2.82,-0.86,-0.86,-0.86
185.79,2.79,3.68,2.79,3.68,-3.67,-3.33,-2.88,-0.88,-0.88,-0.88
187.65,2.79,3.70,2.80,3.70,-3.70,-3.36,-2.94,-0.90,-0.90,-0.90
189.52,2.79,3.72,2.79,3.71,-3.71,-3.38,-3.00,-0.92,-0.92,-0.92
191.42,2.77,3.72,2.78,3.72,-3.71,-3.39,-3.06,-0.94,-0.94,-0.94
193.33,2.75,3.72,2.75,3.72,-3.71,-3.41,-3.13,-0.95,-0.95,-0.96
195.27,2.72,3.70,2.72,3.70,-3.69,-3.43,-3.19,-0.97,-0.98,-0.98
197.22,2.67,3.67,2.68,3.68,-3.68,-3.45,-3.26,-1.00,-1.00,-1.00
199.19,2.63,3.65,2.64,3.65,-3.66,-3.46,-3.33,-1.02,-1.02,-1.02
201.18,2.60,3.63,2.60,3.63,-3.63,-3.48,-3.40,-1.03,-1.03,-1.02
203.19,2.57,3.61,2.57,3.61,-3.61,-3.49,-3.47,-1.04,-1.04,-1.04
205.23,2.54,3.59,2.55,3.59,-3.59,-3.51,-3.54,-1.05,-1.05,-1.04
207.28,2.52,3.58,2.52,3.58,-3.58,-3.52,-3.61,-1.06,-1.06,-1.06
209.35,2.50,3.58,2.50,3.57,-3.57,-3.53,-3.68,-1.07,-1.07,-1.07
211.44,2.48,3.56,2.49,3.57,-3.57,-3.54,-3.75,-1.09,-1.09,-1.08
213.56,2.47,3.56,2.47,3.57,-3.57,-3.55,-3.82,-1.10,-1.10,-1.09
215.69,2.47,3.58,2.47,3.57,-3.58,-3.56,-3.89,-1.11,-1.11,-1.10
217.85,2.47,3.59,2.48,3.59,-3.59,-3.57,-3.96,-1.12,-1.12,-1.12
220.03,2.48,3.60,2.48,3.61,-3.60,-3.58,-4.03,-1.12,-1.12,-1.12
222.23,2.49,3.63,2.49,3.62,-3.62,-3.59,-4.09,-1.12,-1.13,-1.13
224.45,2.49,3.64,2.49,3.64,-3.63,-3.60,-4.15,-1.14,-1.14,-1.14
226.70,2.49,3.65,2.49,3.65,-3.64,-3.60,-4.21,-1.15,-1.15,-1.15
228.96,2.49,3.65,2.49,3.65,-3.65,-3.61,-4.27,-1.16,-1.16,-1.16
231.25,2.49,3.66,2.49,3.66,-3.66,-3.61,-4.32,-1.17,-1.17,-1.17
233.57,2.49,3.67,2.49,3.67,-3.67,-3.62,-4.36,-1.17,-1.17,-1.18
235.90,2.49,3.67,2.49,3.67,-3.67,-3.62,-4.40,-1.18,-1.18,-1.18
238.26,2.49,3.68,2.49,3.68,-3.67,-3.63,-4.44,-1.18,-1.18,-1.18
240.64,2.49,3.68,2.49,3.68,-3.68,-3.63,-4.47,-1.18,-1.18,-1.18
243.05,2.49,3.68,2.49,3.68,-3.68,-3.63,-4.50,-1.18,-1.18,-1.18
245.48,2.49,3.67,2.49,3.68,-3.68,-3.64,-4.52,-1.19,-1.19,-1.18
247.93,2.49,3.68,2.49,3.68,-3.68,-3.64,-4.53,-1.19,-1.19,-1.19
250.41,2.49,3.68,2.49,3.68,-3.68,-3.64,-4.54,-1.19,-1.19,-1.19
252.92,2.49,3.68,2.49,3.68,-3.68,-3.64,-4.54,-1.19,-1.19,-1.18
255.45,2.49,3.68,2.49,3.68,-3.68,-3.64,-4.53,-1.19,-1.19,-1.18
258.00,2.49,3.68,2.49,3.68,-3.68,-3.64,-4.53,-1.19,-1.19,-1.19
260.58,2.49,3.68,2.49,3.68,-3.68,-3.64,-4.51,-1.19,-1.19,-1.19
263.19,2.49,3.69,2.49,3.69,-3.68,-3.64,-4.49,-1.19,-1.19,-1.19
265.82,2.49,3.69,2.49,3.69,-3.69,-3.64,-4.46,-1.19,-1.19,-1.20
268.48,2.49,3.69,2.49,3.69,-3.69,-3.64,-4.43,-1.20,-1.20,-1.19
271.16,2.49,3.69,2.49,3.69,-3.69,-3.64,-4.39,-1.20,-1.20,-1.20
273.87,2.49,3.70,2.49,3.70,-3.70,-3.63,-4.35,-1.20,-1.20,-1.21
276.61,2.49,3.70,2.50,3.70,-3.70,-3.63,-4.31,-1.21,-1.21,-1.20
279.38,2.50,3.71,2.50,3.70,-3.71,-3.63,-4.26,-1.21,-1.21,-1.21
282.17,2.50,3.71,2.51,3.71,-3.72,-3.62,-4.21,-1.21,-1.21,-1.20
284.99,2.51,3.72,2.51,3.72,-3.72,-3.62,-4.15,-1.21,-1.21,-1.21
287.84,2.51,3.73,2.52,3.73,-3.73,-3.61,-4.10,-1.21,-1.21,-1.21
290.72,2.52,3.74,2.52,3.74,-3.73,-3.61,-4.04,-1.21,-1.21,-1.22
293.63,2.51,3.73,2.51,3.73,-3.73,-3.60,-3.98,-1.21,-1.21,-1.22
296.57,2.50,3.73,2.51,3.73,-3.72,-3.60,-3.93,-1.22,-1.21,-1.23
299.53,2.49,3.71,2.49,3.71,-3.71,-3.59,-3.87,-1.22,-1.22,-1.22
302.53,2.47,3.70,2.47,3.69,-3.69,-3.59,-3.81,-1.22,-1.22,-1.22
305.55,2.44,3.67,2.45,3.67,-3.67,-3.58,-3.75,-1.23,-1.22,-1.23
308.61,2.42,3.64,2.42,3.64,-3.64,-3.57,-3.69,-1.22,-1.22,-1.22
311.69,2.39,3.62,2.39,3.61,-3.62,-3.56,-3.64,-1.22,-1.22,-1.22
314.81,2.36,3.58,2.36,3.58,-3.58,-3.56,-3.58,-1.22,-1.22,-1.22
317.96,2.33,3.55,2.33,3.55,-3.55,-3.55,-3.53,-1.22,-1.22,-1.22
321.14,2.30,3.52,2.30,3.52,-3.52,-3.54,-3.47,-1.22,-1.22,-1.21
324.35,2.27,3.49,2.27,3.49,-3.49,-3.53,-3.42,-1.21,-1.21,-1.22
327.59,2.24,3.46,2.24,3.46,-3.45,-3.52,-3.37,-1.21,-1.21,-1.22
330.87,2.21,3.43,2.21,3.43,-3.43,-3.51,-3.33,-1.22,-1.21,-1.21
334.18,2.19,3.40,2.19,3.40,-3.41,-3.50,-3.28,-1.21,-1.22,-1.21
337.52,2.17,3.38,2.17,3.38,-3.39,-3.49,-3.24,-1.22,-1.22,-1.21
340.90,2.16,3.36,2.17,3.37,-3.38,-3.48,-3.20,-1.22,-1.22,-1.20
344.30,2.16,3.37,2.17,3.37,-3.38,-3.47,-3.16,-1.21,-1.21,-1.20
347.75,2.17,3.38,2.17,3.38,-3.38,-3.46,-3.12,-1.20,-1.20,-1.21
351.23,2.18,3.39,2.18,3.38,-3.38,-3.45,-3.09,-1.20,-1.20,-1.21
354.74,2.18,3.38,2.18,3.39,-3.38,-3.44,-3.06,-1.20,-1.19,-1.20
358.28,2.18,3.39,2.18,3.39,-3.38,-3.42,-3.03,-1.19,-1.19,-1.20
361.87,2.17,3.38,2.17,3.38,-3.37,-3.41,-3.00,-1.20,-1.20,-1.20
365.49,2.16,3.37,2.16,3.37,-3.36,-3.40,-2.98,-1.20,-1.20,-1.21
369.14,2.13,3.34,2.14,3.34,-3.34,-3.39,-2.96,-1.21,-1.20,-1.21
372.83,2.11,3.32,2.11,3.32,-3.32,-3.37,-2.94,-1.20,-1.21,-1.21
376.56,2.08,3.28,2.08,3.29,-3.29,-3.36,-2.92,-1.21,-1.21,-1.20
380.33,2.05,3.26,2.05,3.26,-3.26,-3.35,-2.91,-1.21,-1.21,-1.20
384.13,2.02,3.23,2.02,3.23,-3.23,-3.33,-2.89,-1.20,-1.20,-1.20
387.97,1.99,3.20,1.99,3.20,-3.19,-3.32,-2.88,-1.20,-1.20,-1.21
391.85,1.96,3.16,1.96,3.16,-3.16,-3.30,-2.87,-1.20,-1.20,-1.20
395.77,1.93,3.13,1.93,3.13,-3.13,-3.29,-2.87,-1.20,-1.20,-1.20
399.73,1.90,3.09,1.90,3.09,-3.10,-3.27,-2.86,-1.20,-1.20,-1.19
403.72,1.87,3.07,1.88,3.07,-3.08,-3.26,-2.86,-1.20,-1.20,-1.19
407.76,1.86,3.05,1.86,3.05,-3.06,-3.24,-2.85,-1.20,-1.20,-1.18
411.84,1.85,3.04,1.85,3.04,-3.04,-3.23,-2.85,-1.19,-1.19,-1.18
415.96,1.85,3.03,1.85,3.03,-3.03,-3.21,-2.85,-1.18,-1.18,-1.18
420.12,1.85,3.03,1.85,3.03,-3.03,-3.19,-2.85,-1.17,-1.18,-1.18
424.32,1.84,3.02,1.85,3.02,-3.02,-3.18,-2.86,-1.17,-1.17,-1.18
428.56,1.84,3.01,1.84,3.02,-3.01,-3.16,-2.86,-1.17,-1.17,-1.17
432.85,1.83,3.00,1.83,3.00,-3.00,-3.14,-2.86,-1.16,-1.16,-1.17
437.18,1.82,2.99,1.82,2.99,-2.98,-3.13,-2.86,-1.16,-1.16,-1.17
441.55,1.79,2.97,1.79,2.97,-2.96,-3.11,-2.87,-1.17,-1.17,-1.17
445.96,1.76,2.94,1.76,2.94,-2.94,-3.09,-2.87,-1.17,-1.17,-1.17
450.42,1.73,2.91,1.73,2.91,-2.91,-3.07,-2.87,-1.18,-1.18,-1.17
454.93,1.70,2.88,1.70,2.88,-2.88,-3.05,-2.87,-1.18,-1.18,-1.17
459.48,1.67,2.85,1.67,2.85,-2.86,-3.04,-2.87,-1.18,-1.18,-1.18
464.07,1.64,2.82,1.65,2.82,-2.83,-3.02,-2.87,-1.19,-1.18,-1.18
468.71,1.62,2.80,1.62,2.80,-2.80,-3.00,-2.87,-1.18,-1.18,-1.18
473.40,1.60,2.78,1.60,2.78,-2.78,-2.98,-2.86,-1.17,-1.17,-1.18
478.13,1.58,2.75,1.58,2.75,-2.75,-2.96,-2.86,-1.17,-1.17,-1.17
482.91,1.56,2.73,1.56,2.73,-2.73,-2.94,-2.85,-1.16,-1.17,-1.17
487.74,1.53,2.70,1.54,2.70,-2.70,-2.92,-2.84,-1.17,-1.17,-1.17
492.62,1.51,2.68,1.51,2.68,-2.68,-2.90,-2.83,-1.17,-1.17,-1.17
497.55,1.48,2.64,1.49,2.65,-2.66,-2.88,-2.81,-1.17,-1.17,-1.16
502.52,1.46,2.63,1.46,2.63,-2.63,-2.86,-2.80,-1.17,-1.17,-1.16
507.55,1.44,2.61,1.44,2.60,-2.61,-2.83,-2.78,-1.16,-1.16,-1.16
512.62,1.42,2.59,1.42,2.58,-2.58,-2.81,-2.76,-1.16,-1.16,-1.16
517.75,1.40,2.56,1.40,2.56,-2.55,-2.79,-2.73,-1.15,-1.15,-1.15
