frequency,raw,error,smoothed,error_smoothed,equalization,parametric_eq,fixed_band_eq,equalized_raw,equalized_smoothed,target
20.00,20.81,11.11,20.81,11.11,-11.11,-9.46,-5.00,9.70,9.70,9.70
20.20,20.79,11.12,20.79,11.12,-11.12,-9.46,-5.13,9.67,9.67,9.67
20.40,20.77,11.12,20.77,11.12,-11.12,-9.45,-5.26,9.65,9.65,9.65
20.61,20.75,11.12,20.75,11.12,-11.12,-9.45,-5.40,9.63,9.63,9.63
20.81,20.73,11.12,20.73,11.12,-11.12,-9.45,-5.54,9.60,9.60,9.61
21.02,20.71,11.12,20.71,11.12,-11.12,-9.45,-5.68,9.59,9.58,9.59
21.23,20.68,11.11,20.68,11.12,-11.12,-9.45,-5.83,9.56,9.56,9.57
21.44,20.66,11.11,20.66,11.11,-11.12,-9.45,-5.98,9.54,9.54,9.54
21.66,20.64,11.11,20.64,11.11,-11.11,-9.44,-6.13,9.53,9.53,9.52
21.87,20.62,11.10,20.61,11.11,-11.10,-9.44,-6.29,9.51,9.51,9.51
22.09,20.59,11.10,20.59,11.10,-11.10,-9.44,-6.45,9.49,9.50,9.49
22.31,20.57,11.09,20.57,11.09,-11.09,-9.44,-6.62,9.48,9.48,9.48
22.54,20.55,11.08,20.55,11.07,-11.07,-9.44,-6.79,9.48,9.48,9.47
22.76,20.52,11.06,20.52,11.06,-11.05,-9.43,-6.97,9.47,9.47,9.46
22.99,20.49,11.04,20.49,11.04,-11.03,-9.43,-7.15,9.46,9.46,9.45
23.22,20.45,11.01,20.45,11.01,-11.01,-9.43,-7.34,9.44,9.44,9.44
23.45,20.42,10.99,20.42,10.99,-10.99,-9.43,-7.52,9.43,9.43,9.43
23.69,20.38,10.96,20.38,10.96,-10.97,-9.43,-7.72,9.41,9.41,9.42
23.92,20.35,10.93,20.35,10.93,-10.95,-9.42,-7.92,9.40,9.40,9.42
24.16,20.32,10.91,20.32,10.92,-10.93,-9.42,-8.13,9.39,9.40,9.41
24.40,20.31,10.90,20.31,10.90,-10.91,-9.42,-8.33,9.40,9.40,9.41
24.65,20.29,10.89,20.29,10.89,-10.88,-9.42,-8.55,9.40,9.40,9.39
24.89,20.27,10.87,20.26,10.87,-10.86,-9.41,-8.76,9.41,9.40,9.39
25.14,20.23,10.85,20.23,10.85,-10.83,-9.41,-8.98,9.39,9.40,9.38
25.39,20.19,10.82,20.19,10.81,-10.80,-9.41,-9.21,9.38,9.38,9.37
25.65,20.14,10.77,20.14,10.77,-10.77,-9.40,-9.44,9.37,9.37,9.37
25.91,20.10,10.74,20.09,10.73,-10.74,-9.40,-9.67,9.36,9.36,9.36
26.16,20.05,10.69,20.05,10.69,-10.70,-9.40,-9.90,9.34,9.35,9.36
26.43,20.01,10.65,20.01,10.66,-10.67,-9.39,-10.14,9.34,9.34,9.36
26.69,19.98,10.63,19.98,10.63,-10.63,-9.39,-10.37,9.34,9.34,9.35
26.96,19.95,10.60,19.95,10.60,-10.60,-9.39,-10.61,9.35,9.34,9.35
27.23,19.91,10.58,19.91,10.58,-10.57,-9.38,-10.84,9.34,9.34,9.33
27.50,19.88,10.55,19.88,10.54,-10.54,-9.38,-11.07,9.34,9.34,9.33
27.77,19.84,10.51,19.84,10.51,-10.51,-9.37,-11.30,9.33,9.33,9.33
28.05,19.80,10.48,19.80,10.47,-10.48,-9.37,-11.52,9.32,9.32,9.32
28.33,19.76,10.44,19.76,10.44,-10.44,-9.36,-11.74,9.31,9.31,9.32
28.62,19.72,10.40,19.72,10.41,-10.41,-9.36,-11.95,9.31,9.31,9.32
28.90,19.69,10.38,19.69,10.38,-10.38,-9.35,-12.14,9.31,9.31,9.31
29.19,19.65,10.35,19.65,10.34,-10.34,-9.35,-12.32,9.31,9.31,9.30
29.48,19.61,10.31,19.61,10.31,-10.31,-9.34,-12.48,9.30,9.30,9.30
29.78,19.57,10.27,19.57,10.27,-10.27,-9.34,-12.63,9.30,9.30,9.30
30.08,19.53,10.23,19.53,10.23,-10.24,-9.33,-12.75,9.29,9.29,9.30
30.38,19.49,10.20,19.49,10.20,-10.20,-9.33,-12.86,9.29,9.29,9.29
30.68,19.45,10.16,19.45,10.16,-10.16,-9.32,-12.94,9.29,9.29,9.28
30.99,19.41,10.13,19.41,10.13,-10.13,-9.32,-13.00,9.28,9.28,9.28
31.30,19.37,10.09,19.37,10.09,-10.09,-9.31,-13.03,9.28,9.28,9.28
31.61,19.33,10.06,19.33,10.05,-10.05,-9.30,-13.04,9.27,9.27,9.27
31.93,19.28,10.01,19.28,10.02,-10.02,-9.30,-13.02,9.26,9.26,9.27
32.24,19.24,9.98,19.24,9.98,-9.98,-9.29,-12.98,9.25,9.25,9.26
32.57,19.20,9.95,19.20,9.94,-9.95,-9.28,-12.91,9.25,9.25,9.25
32.89,19.16,9.91,19.16,9.91,-9.91,-9.27,-12.83,9.24,9.25,9.25
33.22,19.13,9.88,19.12,9.88,-9.88,-9.26,-12.72,9.25,9.25,9.24
33.55,19.09,9.86,19.09,9.85,-9.84,-9.26,-12.60,9.24,9.24,9.23
33.89,19.04,9.81,19.04,9.81,-9.81,-9.25,-12.46,9.23,9.24,9.23
34.23,19.00,9.77,19.00,9.77,-9.77,-9.24,-12.31,9.23,9.22,9.23
34.57,18.95,9.74,18.95,9.73,-9.74,-9.23,-12.15,9.21,9.21,9.21
34.92,18.90,9.69,18.90,9.69,-9.70,-9.22,-11.98,9.20,9.20,9.21
35.27,18.86,9.65,18.86,9.66,-9.66,-9.21,-11.81,9.20,9.20,9.21
35.62,18.82,9.63,18.82,9.62,-9.62,-9.20,-11.63,9.20,9.20,9.19
35.97,18.79,9.60,18.78,9.59,-9.58,-9.19,-11.45,9.21,9.20,9.19
36.33,18.74,9.55,18.74,9.55,-9.54,-9.18,-11.26,9.19,9.19,9.19
36.70,18.69,9.51,18.69,9.51,-9.51,-9.16,-11.08,9.18,9.18,9.18
37.06,18.64,9.46,18.64,9.46,-9.47,-9.15,-10.90,9.17,9.17,9.18
37.43,18.59,9.42,18.59,9.42,-9.43,-9.14,-10.71,9.16,9.16,9.16
37.81,18.54,9.38,18.54,9.39,-9.39,-9.12,-10.54,9.14,9.15,9.16
38.19,18.51,9.35,18.51,9.35,-9.36,-9.11,-10.36,9.15,9.15,9.15
38.57,18.47,9.33,18.47,9.33,-9.32,-9.10,-10.19,9.15,9.15,9.14
38.95,18.43,9.29,18.43,9.29,-9.28,-9.08,-10.02,9.14,9.14,9.14
39.34,18.38,9.26,18.37,9.25,-9.25,-9.07,-9.86,9.13,9.12,9.12
39.74,18.32,9.20,18.32,9.21,-9.21,-9.05,-9.71,9.10,9.11,9.11
40.14,18.27,9.17,18.27,9.17,-9.18,-9.03,-9.55,9.09,9.10,9.10
40.54,18.23,9.13,18.23,9.13,-9.14,-9.01,-9.41,9.09,9.09,9.09
40.94,18.19,9.10,18.19,9.10,-9.09,-9.00,-9.27,9.09,9.09,9.09
41.35,18.14,9.06,18.14,9.06,-9.05,-8.98,-9.14,9.09,9.09,9.08
41.76,18.09,9.01,18.09,9.01,-9.00,-8.96,-9.01,9.08,9.08,9.08
42.18,18.03,8.96,18.03,8.96,-8.96,-8.94,-8.89,9.07,9.07,9.07
42.60,17.97,8.91,17.97,8.91,-8.91,-8.92,-8.77,9.06,9.06,9.06
43.03,17.92,8.85,17.92,8.86,-8.86,-8.89,-8.66,9.06,9.06,9.07
43.46,17.87,8.81,17.86,8.81,-8.81,-8.87,-8.56,9.05,9.05,9.06
43.90,17.81,8.76,17.81,8.76,-8.76,-8.85,-8.46,9.05,9.05,9.05
44.33,17.76,8.71,17.76,8.72,-8.71,-8.82,-8.37,9.04,9.05,9.04
44.78,17.71,8.67,17.70,8.67,-8.66,-8.79,-8.28,9.04,9.04,9.03
45.23,17.65,8.62,17.65,8.62,-8.62,-8.77,-8.20,9.03,9.03,9.03
45.68,17.59,8.57,17.59,8.57,-8.57,-8.74,-8.13,9.02,9.02,9.02
46.13,17.53,8.52,17.52,8.51,-8.52,-8.71,-8.06,9.01,9.00,9.01
46.60,17.46,8.46,17.46,8.46,-8.47,-8.68,-8.00,8.99,8.99,9.00
47.06,17.40,8.41,17.41,8.42,-8.42,-8.65,-7.94,8.98,8.98,8.99
47.53,17.36,8.39,17.35,8.38,-8.37,-8.61,-7.89,8.98,8.98,8.97
48.01,17.30,8.34,17.29,8.33,-8.33,-8.58,-7.84,8.97,8.97,8.96
48.49,17.23,8.28,17.23,8.28,-8.28,-8.54,-7.80,8.95,8.95,8.95
48.97,17.16,8.22,17.16,8.22,-8.23,-8.51,-7.76,8.93,8.93,8.94
49.46,17.10,8.17,17.10,8.17,-8.18,-8.47,-7.73,8.92,8.92,8.93
49.96,17.04,8.12,17.04,8.13,-8.12,-8.43,-7.70,8.91,8.92,8.92
50.46,16.99,8.09,16.98,8.08,-8.07,-8.39,-7.67,8.92,8.91,8.90
50.96,16.92,8.03,16.92,8.02,-8.02,-8.34,-7.65,8.90,8.90,8.89
51.47,16.85,7.96,16.85,7.96,-7.96,-8.30,-7.63,8.89,8.88,8.89
51.99,16.77,7.90,16.77,7.90,-7.91,-8.25,-7.61,8.86,8.86,8.87
52.51,16.71,7.85,16.71,7.85,-7.86,-8.20,-7.60,8.85,8.85,8.86
53.03,16.65,7.80,16.65,7.80,-7.81,-8.15,-7.59,8.84,8.85,8.85
53.56,16.60,7.77,16.59,7.76,-7.75,-8.10,-7.58,8.84,8.84,8.83
54.10,16.53,7.70,16.53,7.71,-7.70,-8.05,-7.57,8.82,8.82,8.82
54.64,16.46,7.65,16.46,7.66,-7.66,-8.00,-7.56,8.80,8.81,8.81
55.18,16.40,7.61,16.40,7.61,-7.61,-7.94,-7.56,8.79,8.79,8.79
55.74,16.35,7.57,16.35,7.57,-7.57,-7.88,-7.55,8.78,8.78,8.78
56.29,16.29,7.52,16.29,7.52,-7.52,-7.82,-7.54,8.77,8.76,8.77
56.86,16.23,7.48,16.23,7.48,-7.48,-7.76,-7.53,8.75,8.75,8.75
57.42,16.16,7.43,16.17,7.43,-7.43,-7.70,-7.52,8.72,8.73,8.73
58.00,16.11,7.39,16.11,7.39,-7.39,-7.64,-7.51,8.72,8.72,8.72
58.58,16.06,7.36,16.05,7.35,-7.35,-7.57,-7.50,8.71,8.71,8.70
59.16,16.00,7.32,16.00,7.31,-7.30,-7.51,-7.48,8.69,8.69,8.68
59.76,15.93,7.26,15.93,7.26,-7.26,-7.44,-7.46,8.67,8.67,8.67
60.35,15.86,7.21,15.86,7.21,-7.22,-7.37,-7.44,8.64,8.64,8.65
60.96,15.79,7.16,15.79,7.17,-7.17,-7.31,-7.41,8.62,8.62,8.63
61.57,15.73,7.13,15.73,7.13,-7.13,-7.24,-7.38,8.60,8.60,8.60
62.18,15.67,7.09,15.66,7.08,-7.08,-7.17,-7.35,8.59,8.58,8.58
62.80,15.60,7.04,15.60,7.04,-7.04,-7.11,-7.31,8.56,8.56,8.55
63.43,15.52,6.99,15.52,6.99,-6.99,-7.04,-7.27,8.53,8.53,8.53
64.07,15.45,6.95,15.45,6.95,-6.95,-6.98,-7.22,8.50,8.50,8.50
64.71,15.38,6.90,15.38,6.90,-6.90,-6.92,-7.17,8.48,8.47,8.48
65.35,15.31,6.86,15.31,6.86,-6.86,-6.86,-7.11,8.45,8.45,8.45
66.01,15.24,6.82,15.24,6.82,-6.82,-6.80,-7.05,8.42,8.42,8.42
66.67,15.17,6.78,15.17,6.77,-6.78,-6.74,-6.99,8.39,8.39,8.39
67.33,15.10,6.74,15.10,6.74,-6.74,-6.69,-6.92,8.36,8.36,8.36
68.01,15.03,6.70,15.03,6.70,-6.70,-6.64,-6.86,8.33,8.33,8.33
68.69,14.97,6.67,14.97,6.66,-6.66,-6.59,-6.79,8.31,8.30,8.30
69.37,14.90,6.63,14.90,6.63,-6.63,-6.55,-6.71,8.27,8.27,8.27
70.07,14.83,6.59,14.83,6.59,-6.59,-6.51,-6.64,8.24,8.24,8.24
70.77,14.76,6.56,14.76,6.55,-6.56,-6.47,-6.57,8.20,8.20,8.20
71.48,14.69,6.51,14.69,6.52,-6.52,-6.43,-6.49,8.17,8.17,8.18
72.19,14.63,6.49,14.63,6.48,-6.48,-6.40,-6.41,8.15,8.14,8.14
72.91,14.56,6.45,14.56,6.45,-6.45,-6.37,-6.34,8.11,8.11,8.11
73.64,14.49,6.42,14.49,6.41,-6.41,-6.35,-6.26,8.08,8.08,8.07
74.38,14.41,6.37,14.41,6.37,-6.37,-6.32,-6.19,8.03,8.04,8.04
75.12,14.34,6.33,14.34,6.33,-6.34,-6.30,-6.12,8.00,8.00,8.00
75.87,14.27,6.29,14.27,6.30,-6.30,-6.28,-6.05,7.97,7.97,7.97
76.63,14.21,6.27,14.20,6.27,-6.26,-6.26,-5.98,7.94,7.94,7.93
77.40,14.13,6.24,14.13,6.23,-6.23,-6.24,-5.91,7.90,7.90,7.89
78.17,14.05,6.19,14.05,6.20,-6.19,-6.22,-5.85,7.86,7.86,7.86
78.95,13.98,6.16,13.98,6.16,-6.16,-6.20,-5.79,7.82,7.82,7.82
79.74,13.90,6.12,13.90,6.12,-6.12,-6.19,-5.73,7.78,7.78,7.78
80.54,13.83,6.09,13.82,6.09,-6.09,-6.17,-5.67,7.74,7.74,7.74
81.35,13.75,6.05,13.75,6.05,-6.05,-6.15,-5.62,7.70,7.69,7.70
82.16,13.67,6.02,13.67,6.02,-6.02,-6.14,-5.57,7.65,7.65,7.65
82.98,13.60,5.99,13.60,5.99,-5.99,-6.12,-5.52,7.60,7.60,7.60
83.81,13.53,5.97,13.53,5.97,-5.97,-6.10,-5.48,7.56,7.56,7.56
84.65,13.46,5.94,13.46,5.94,-5.94,-6.08,-5.44,7.51,7.51,7.52
85.50,13.39,5.92,13.39,5.92,-5.92,-6.06,-5.41,7.47,7.47,7.47
86.35,13.33,5.91,13.33,5.90,-5.90,-6.04,-5.38,7.42,7.42,7.42
87.22,13.26,5.89,13.26,5.89,-5.89,-6.02,-5.35,7.37,7.37,7.37
88.09,13.20,5.88,13.20,5.87,-5.87,-6.00,-5.33,7.33,7.32,7.32
88.97,13.13,5.86,13.13,5.86,-5.86,-5.98,-5.31,7.27,7.27,7.27
89.86,13.06,5.84,13.06,5.84,-5.85,-5.95,-5.30,7.21,7.22,7.22
90.76,13.00,5.83,13.00,5.83,-5.83,-5.93,-5.29,7.17,7.17,7.17
91.66,12.94,5.82,12.93,5.82,-5.82,-5.91,-5.28,7.12,7.12,7.11
92.58,12.87,5.81,12.87,5.81,-5.81,-5.88,-5.27,7.06,7.06,7.06
93.51,12.80,5.79,12.80,5.79,-5.79,-5.85,-5.27,7.01,7.01,7.01
94.44,12.73,5.77,12.73,5.78,-5.77,-5.83,-5.28,6.95,6.95,6.95
95.39,12.66,5.76,12.66,5.76,-5.76,-5.80,-5.28,6.90,6.90,6.90
96.34,12.59,5.74,12.59,5.74,-5.74,-5.78,-5.29,6.85,6.85,6.84
97.30,12.52,5.72,12.51,5.72,-5.72,-5.75,-5.31,6.80,6.79,6.80
98.28,12.44,5.69,12.44,5.70,-5.70,-5.72,-5.32,6.74,6.74,6.74
99.26,12.36,5.67,12.37,5.68,-5.68,-5.70,-5.34,6.68,6.69,6.69
100.25,12.30,5.67,12.29,5.66,-5.66,-5.67,-5.36,6.64,6.63,6.63
101.25,12.22,5.64,12.22,5.64,-5.64,-5.65,-5.38,6.58,6.58,6.58
102.27,12.14,5.62,12.14,5.62,-5.62,-5.62,-5.41,6.52,6.52,6.52
103.29,12.06,5.59,12.06,5.59,-5.59,-5.60,-5.44,6.46,6.47,6.46
104.32,11.99,5.57,11.99,5.57,-5.57,-5.58,-5.46,6.41,6.41,6.42
105.37,11.92,5.56,11.91,5.55,-5.55,-5.55,-5.49,6.37,6.36,6.36
106.42,11.84,5.53,11.84,5.53,-5.53,-5.53,-5.52,6.31,6.31,6.31
107.48,11.76,5.50,11.76,5.50,-5.51,-5.51,-5.55,6.25,6.25,6.26
108.56,11.68,5.48,11.68,5.48,-5.49,-5.49,-5.58,6.19,6.20,6.20
109.64,11.62,5.47,11.61,5.47,-5.46,-5.47,-5.61,6.15,6.15,6.15
110.74,11.54,5.45,11.54,5.44,-5.44,-5.45,-5.64,6.10,6.09,6.09
111.85,11.46,5.42,11.46,5.42,-5.42,-5.43,-5.66,6.04,6.04,6.04
112.97,11.38,5.39,11.39,5.40,-5.40,-5.41,-5.69,5.98,5.98,5.99
114.10,11.32,5.38,11.32,5.38,-5.38,-5.39,-5.71,5.94,5.93,5.93
115.24,11.25,5.37,11.24,5.36,-5.36,-5.37,-5.72,5.89,5.88,5.88
116.39,11.17,5.34,11.17,5.34,-5.34,-5.35,-5.74,5.83,5.83,5.83
117.55,11.09,5.31,11.09,5.32,-5.31,-5.32,-5.75,5.77,5.78,5.78
118.73,11.02,5.29,11.02,5.29,-5.29,-5.30,-5.75,5.73,5.73,5.73
119.92,10.95,5.27,10.94,5.26,-5.26,-5.27,-5.75,5.69,5.68,5.67
121.12,10.86,5.24,10.86,5.24,-5.23,-5.25,-5.75,5.63,5.63,5.62
122.33,10.77,5.19,10.78,5.20,-5.20,-5.22,-5.74,5.57,5.57,5.58
123.55,10.70,5.17,10.70,5.17,-5.17,-5.18,-5.72,5.53,5.53,5.53
124.79,10.63,5.14,10.62,5.14,-5.14,-5.15,-5.70,5.49,5.48,5.49
126.03,10.55,5.11,10.55,5.11,-5.11,-5.11,-5.67,5.44,5.44,5.44
127.29,10.47,5.07,10.47,5.08,-5.08,-5.07,-5.63,5.39,5.39,5.40
128.57,10.39,5.04,10.40,5.05,-5.05,-5.03,-5.59,5.34,5.35,5.35
129.85,10.33,5.03,10.32,5.02,-5.02,-4.99,-5.55,5.31,5.31,5.30
131.15,10.25,5.00,10.24,4.99,-4.98,-4.94,-5.50,5.26,5.26,5.25
132.46,10.16,4.95,10.16,4.95,-4.95,-4.90,-5.44,5.20,5.21,5.21
133.79,10.07,4.90,10.08,4.91,-4.92,-4.85,-5.38,5.15,5.16,5.17
135.12,10.01,4.89,10.00,4.88,-4.89,-4.80,-5.31,5.12,5.11,5.12
136.48,9.94,4.86,9.93,4.86,-4.86,-4.76,-5.24,5.08,5.07,5.07
137.84,9.86,4.83,9.86,4.83,-4.83,-4.71,-5.16,5.03,5.03,5.03
139.22,9.78,4.79,9.78,4.80,-4.80,-4.66,-5.08,4.98,4.99,4.99
140.61,9.71,4.76,9.71,4.76,-4.76,-4.62,-5.00,4.94,4.95,4.94
142.02,9.65,4.74,9.64,4.73,-4.73,-4.58,-4.92,4.92,4.91,4.91
143.44,9.57,4.70,9.57,4.70,-4.70,-4.54,-4.83,4.87,4.87,4.87
144.87,9.49,4.66,9.50,4.66,-4.66,-4.50,-4.75,4.83,4.84,4.83
146.32,9.42,4.62,9.42,4.62,-4.62,-4.46,-4.66,4.80,4.80,4.80
147.78,9.35,4.59,9.34,4.58,-4.58,-4.42,-4.57,4.77,4.76,4.76
149.26,9.26,4.53,9.26,4.53,-4.54,-4.39,-4.48,4.72,4.72,4.72
150.75,9.18,4.48,9.18,4.49,-4.49,-4.36,-4.39,4.68,4.69,4.70
152.26,9.11,4.45,9.11,4.45,-4.45,-4.33,-4.30,4.66,4.66,4.66
153.78,9.04,4.41,9.03,4.41,-4.40,-4.30,-4.21,4.64,4.63,4.62
155.32,8.96,4.36,8.96,4.36,-4.35,-4.27,-4.13,4.60,4.60,4.60
156.88,8.87,4.30,8.87,4.31,-4.31,-4.24,-4.04,4.56,4.57,4.57
158.44,8.79,4.26,8.79,4.26,-4.26,-4.22,-3.96,4.53,4.53,4.53
160.03,8.71,4.21,8.71,4.21,-4.20,-4.20,-3.87,4.50,4.50,4.50
161.63,8.63,4.16,8.62,4.15,-4.15,-4.17,-3.79,4.48,4.47,4.47
163.24,8.54,4.09,8.54,4.10,-4.10,-4.15,-3.71,4.44,4.44,4.45
164.88,8.46,4.04,8.46,4.05,-4.05,-4.13,-3.63,4.41,4.41,4.42
166.53,8.39,4.00,8.39,4.00,-4.00,-4.10,-3.56,4.39,4.39,4.39
168.19,8.32,3.96,8.31,3.95,-3.95,-4.08,-3.48,4.37,4.37,4.36
169.87,8.24,3.89,8.24,3.90,-3.90,-4.06,-3.41,4.34,4.34,4.34
171.57,8.16,3.84,8.16,3.85,-3.85,-4.03,-3.35,4.31,4.32,4.32
173.29,8.09,3.80,8.08,3.79,-3.80,-4.00,-3.28,4.29,4.29,4.29
175.02,8.01,3.74,8.01,3.74,-3.74,-3.98,-3.21,4.26,4.27,4.27
176.77,7.94,3.69,7.94,3.69,-3.69,-3.95,-3.15,4.25,4.25,4.25
178.54,7.87,3.64,7.87,3.64,-3.64,-3.92,-3.09,4.23,4.23,4.23
180.32,7.79,3.59,7.79,3.58,-3.58,-3.88,-3.04,4.21,4.21,4.20
182.13,7.71,3.53,7.71,3.53,-3.52,-3.85,-2.98,4.18,4.18,4.18
183.95,7.62,3.46,7.62,3.46,-3.46,-3.81,-2.93,4.16,4.16,4.16
185.79,7.54,3.40,7.54,3.40,-3.40,-3.77,-2.88,4.14,4.14,4.14
187.65,7.46,3.34,7.45,3.34,-3.33,-3.73,-2.83,4.12,4.12,4.12
189.52,7.37,3.27,7.36,3.27,-3.27,-3.68,-2.79,4.10,4.10,4.10
191.42,7.27,3.19,7.27,3.20,-3.20,-3.64,-2.74,4.07,4.08,4.08
193.33,7.18,3.12,7.18,3.12,-3.13,-3.59,-2.70,4.05,4.06,4.06
195.27,7.10,3.06,7.09,3.05,-3.06,-3.54,-2.66,4.04,4.04,4.04
197.22,7.01,2.99,7.01,2.98,-2.99,-3.48,-2.62,4.02,4.02,4.02
199.19,6.92,2.91,6.92,2.91,-2.92,-3.42,-2.59,4.00,4.01,4.00
201.18,6.84,2.84,6.84,2.84,-2.84,-3.36,-2.55,3.99,4.00,4.00
203.19,6.76,2.78,6.76,2.78,-2.77,-3.30,-2.52,3.99,3.99,3.98
205.23,6.69,2.71,6.68,2.71,-2.70,-3.24,-2.49,3.99,3.98,3.98
207.28,6.60,2.64,6.60,2.64,-2.63,-3.17,-2.45,3.97,3.97,3.96
209.35,6.51,2.56,6.51,2.56,-2.56,-3.11,-2.42,3.94,3.95,3.95
211.44,6.43,2.49,6.43,2.49,-2.50,-3.04,-2.40,3.93,3.93,3.94
213.56,6.35,2.42,6.35,2.42,-2.43,-2.97,-2.37,3.91,3.92,3.93
215.69,6.29,2.37,6.29,2.37,-2.37,-2.90,-2.34,3.92,3.91,3.92
217.85,6.22,2.32,6.22,2.31,-2.31,-2.83,-2.31,3.91,3.91,3.90
220.03,6.16,2.26,6.16,2.26,-2.25,-2.75,-2.29,3.91,3.91,3.90
222.23,6.09,2.20,6.09,2.20,-2.19,-2.68,-2.26,3.90,3.89,3.89
224.45,6.02,2.14,6.02,2.14,-2.14,-2.61,-2.23,3.88,3.88,3.88
226.70,5.95,2.08,5.95,2.08,-2.08,-2.54,-2.20,3.87,3.87,3.87
228.96,5.89,2.02,5.89,2.03,-2.03,-2.46,-2.18,3.86,3.86,3.87
231.25,5.83,1.97,5.83,1.97,-1.97,-2.39,-2.15,3.85,3.85,3.86
233.57,5.77,1.92,5.77,1.92,-1.92,-2.32,-2.12,3.85,3.85,3.85
235.90,5.72,1.87,5.72,1.88,-1.88,-2.25,-2.09,3.84,3.84,3.85
238.26,5.67,1.83,5.67,1.83,-1.83,-2.18,-2.05,3.84,3.84,3.84
240.64,5.64,1.80,5.63,1.80,-1.80,-2.11,-2.02,3.84,3.84,3.84
243.05,5.60,1.76,5.60,1.76,-1.76,-2.05,-1.99,3.83,3.83,3.84
245.48,5.57,1.73,5.57,1.73,-1.74,-1.98,-1.95,3.83,3.83,3.84
247.93,5.54,1.71,5.54,1.71,-1.72,-1.92,-1.91,3.82,3.83,3.83
250.41,5.53,1.69,5.53,1.70,-1.70,-1.85,-1.87,3.83,3.83,3.83
252.92,5.53,1.69,5.52,1.69,-1.69,-1.79,-1.83,3.84,3.84,3.84
255.45,5.52,1.68,5.52,1.68,-1.68,-1.74,-1.79,3.84,3.84,3.84
258.00,5.51,1.68,5.51,1.67,-1.67,-1.68,-1.75,3.84,3.84,3.83
260.58,5.50,1.66,5.50,1.67,-1.67,-1.63,-1.70,3.83,3.83,3.84
263.19,5.49,1.66,5.49,1.66,-1.67,-1.58,-1.65,3.82,3.82,3.83
265.82,5.48,1.66,5.48,1.66,-1.66,-1.53,-1.60,3.82,3.82,3.82
268.48,5.48,1.65,5.48,1.65,-1.65,-1.48,-1.55,3.83,3.83,3.83
271.16,5.47,1.65,5.46,1.64,-1.63,-1.44,-1.50,3.84,3.83,3.82
273.87,5.44,1.62,5.44,1.62,-1.61,-1.40,-1.44,3.83,3.83,3.81
276.61,5.41,1.59,5.41,1.59,-1.59,-1.36,-1.39,3.82,3.82,3.82
279.38,5.37,1.55,5.37,1.55,-1.55,-1.33,-1.33,3.81,3.81,3.81
282.17,5.33,1.51,5.33,1.51,-1.52,-1.29,-1.27,3.81,3.81,3.82
284.99,5.28,1.46,5.28,1.47,-1.47,-1.26,-1.22,3.81,3.81,3.81
287.84,5.23,1.42,5.23,1.42,-1.42,-1.23,-1.16,3.81,3.81,3.81
290.72,5.18,1.37,5.18,1.37,-1.37,-1.19,-1.10,3.81,3.81,3.80
293.63,5.12,1.32,5.12,1.32,-1.31,-1.16,-1.03,3.81,3.81,3.80
296.57,5.05,1.25,5.05,1.25,-1.25,-1.13,-0.97,3.80,3.80,3.80
299.53,4.98,1.18,4.98,1.18,-1.18,-1.09,-0.91,3.79,3.80,3.80
302.53,4.91,1.11,4.91,1.11,-1.12,-1.05,-0.85,3.79,3.79,3.80
305.55,4.84,1.04,4.84,1.04,-1.04,-1.00,-0.78,3.79,3.80,3.79
308.61,4.77,0.97,4.77,0.97,-0.97,-0.95,-0.72,3.80,3.80,3.80
311.69,4.70,0.90,4.70,0.90,-0.89,-0.89,-0.65,3.80,3.80,3.80
314.81,4.62,0.81,4.62,0.82,-0.82,-0.83,-0.59,3.80,3.80,3.80
317.96,4.54,0.74,4.54,0.74,-0.74,-0.76,-0.52,3.80,3.80,3.80
321.14,4.46,0.65,4.46,0.66,-0.66,-0.69,-0.46,3.80,3.80,3.81
324.35,4.39,0.58,4.39,0.58,-0.58,-0.62,-0.39,3.81,3.81,3.80
327.59,4.31,0.51,4.31,0.50,-0.50,-0.54,-0.33,3.81,3.81,3.80
330.87,4.23,0.42,4.23,0.42,-0.42,-0.46,-0.26,3.81,3.81,3.81
334.18,4.15,0.33,4.15,0.34,-0.34,-0.38,-0.20,3.81,3.81,3.82
337.52,4.08,0.27,4.08,0.26,-0.26,-0.30,-0.13,3.81,3.81,3.81
340.90,4.01,0.19,4.00,0.19,-0.19,-0.22,-0.06,3.82,3.81,3.82
344.30,3.93,0.11,3.93,0.11,-0.12,-0.14,0.00,3.81,3.81,3.82
347.75,3.86,0.04,3.86,0.04,-0.05,-0.06,0.07,3.81,3.81,3.82
351.23,3.80,-0.01,3.80,-0.02,0.02,0.02,0.13,3.81,3.81,3.81
354.74,3.74,-0.08,3.74,-0.08,0.08,0.10,0.20,3.82,3.82,3.82
358.28,3.68,-0.14,3.68,-0.14,0.15,0.17,0.27,3.82,3.82,3.82
361.87,3.62,-0.20,3.62,-0.20,0.21,0.24,0.34,3.83,3.82,3.82
365.49,3.55,-0.27,3.55,-0.27,0.27,0.31,0.40,3.82,3.82,3.82
369.14,3.48,-0.33,3.48,-0.33,0.34,0.38,0.47,3.81,3.82,3.81
372.83,3.41,-0.40,3.41,-0.40,0.40,0.45,0.54,3.81,3.81,3.81
376.56,3.35,-0.47,3.35,-0.47,0.46,0.51,0.61,3.81,3.81,3.82
380.33,3.29,-0.53,3.29,-0.53,0.53,0.57,0.67,3.81,3.81,3.82
384.13,3.23,-0.59,3.23,-0.59,0.59,0.64,0.74,3.82,3.82,3.82
387.97,3.17,-0.65,3.17,-0.65,0.65,0.70,0.81,3.82,3.82,3.81
391.85,3.11,-0.71,3.11,-0.71,0.71,0.76,0.88,3.82,3.82,3.82
395.77,3.06,-0.76,3.06,-0.77,0.77,0.82,0.95,3.83,3.83,3.82
399.73,3.01,-0.82,3.00,-0.82,0.83,0.87,1.01,3.84,3.83,3.83
403.72,2.95,-0.88,2.95,-0.88,0.89,0.93,1.08,3.84,3.84,3.83
407.76,2.89,-0.95,2.89,-0.95,0.95,0.99,1.15,3.84,3.84,3.84
411.84,2.83,-1.01,2.83,-1.01,1.01,1.04,1.22,3.83,3.83,3.84
415.96,2.77,-1.08,2.77,-1.07,1.07,1.10,1.28,3.83,3.84,3.85
420.12,2.72,-1.13,2.72,-1.13,1.12,1.15,1.35,3.84,3.84,3.84
424.32,2.67,-1.17,2.67,-1.18,1.18,1.21,1.41,3.85,3.85,3.84
428.56,2.61,-1.24,2.61,-1.24,1.24,1.26,1.48,3.85,3.85,3.85
432.85,2.56,-1.29,2.56,-1.29,1.30,1.32,1.54,3.86,3.85,3.85
437.18,2.50,-1.35,2.50,-1.35,1.35,1.37,1.61,3.85,3.85,3.85
441.55,2.45,-1.40,2.44,-1.41,1.41,1.42,1.67,3.86,3.85,3.85
445.96,2.38,-1.47,2.38,-1.47,1.46,1.48,1.73,3.84,3.85,3.85
450.42,2.32,-1.53,2.32,-1.52,1.52,1.53,1.78,3.84,3.84,3.85
454.93,2.27,-1.58,2.27,-1.58,1.57,1.58,1.84,3.84,3.84,3.85
459.48,2.22,-1.63,2.22,-1.63,1.63,1.64,1.90,3.85,3.85,3.85
464.07,2.17,-1.68,2.17,-1.67,1.68,1.69,1.95,3.85,3.85,3.84
468.71,2.12,-1.73,2.12,-1.73,1.73,1.74,2.00,3.85,3.85,3.84
473.40,2.07,-1.77,2.06,-1.78,1.78,1.80,2.05,3.85,3.84,3.84
478.13,2.01,-1.84,2.02,-1.83,1.83,1.85,2.09,3.84,3.84,3.85
482.91,1.97,-1.88,1.97,-1.88,1.88,1.90,2.13,3.85,3.85,3.85
487.74,1.93,-1.92,1.93,-1.93,1.93,1.95,2.17,3.86,3.86,3.85
492.62,1.88,-1.97,1.88,-1.97,1.98,2.01,2.21,3.86,3.87,3.85
497.55,1.84,-2.02,1.83,-2.03,2.04,2.06,2.24,3.87,3.87,3.86
502.52,1.77,-2.09,1.77,-2.09,2.09,2.11,2.27,3.86,3.86,3.86
