frequency,raw,error,smoothed,error_smoothed,equalization,parametric_eq,fixed_band_eq,equalized_raw,equalized_smoothed,target
20.00,7.07,0.25,7.07,0.25,-0.25,-1.13,-0.65,6.83,6.83,6.82
20.20,7.09,0.30,7.09,0.30,-0.29,-1.13,-0.67,6.80,6.80,6.79
20.40,7.11,0.34,7.11,0.34,-0.34,-1.14,-0.69,6.77,6.77,6.77
20.61,7.13,0.38,7.13,0.38,-0.39,-1.14,-0.71,6.75,6.75,6.75
20.81,7.15,0.42,7.15,0.42,-0.43,-1.15,-0.73,6.72,6.72,6.73
21.02,7.17,0.46,7.18,0.47,-0.47,-1.15,-0.75,6.70,6.70,6.71
21.23,7.20,0.51,7.20,0.51,-0.51,-1.16,-0.77,6.69,6.69,6.69
21.44,7.22,0.55,7.22,0.55,-0.55,-1.17,-0.79,6.67,6.67,6.67
21.66,7.24,0.59,7.25,0.60,-0.59,-1.17,-0.82,6.65,6.65,6.65
21.87,7.27,0.64,7.27,0.64,-0.63,-1.18,-0.84,6.64,6.64,6.64
22.09,7.29,0.68,7.29,0.67,-0.67,-1.19,-0.86,6.62,6.62,6.62
22.31,7.31,0.71,7.31,0.71,-0.70,-1.19,-0.89,6.61,6.61,6.61
22.54,7.33,0.74,7.33,0.74,-0.74,-1.20,-0.91,6.59,6.59,6.60
22.76,7.35,0.77,7.35,0.77,-0.77,-1.21,-0.94,6.58,6.58,6.59
22.99,7.37,0.80,7.37,0.80,-0.80,-1.21,-0.97,6.57,6.57,6.57
23.22,7.39,0.83,7.40,0.83,-0.83,-1.22,-0.99,6.56,6.56,6.56
23.45,7.42,0.87,7.42,0.87,-0.86,-1.23,-1.02,6.56,6.56,6.55
23.69,7.44,0.90,7.44,0.90,-0.89,-1.24,-1.05,6.55,6.55,6.54
23.92,7.46,0.92,7.46,0.93,-0.92,-1.24,-1.08,6.54,6.54,6.54
24.16,7.48,0.95,7.49,0.95,-0.95,-1.25,-1.11,6.53,6.53,6.53
24.40,7.51,0.98,7.51,0.98,-0.98,-1.26,-1.14,6.53,6.53,6.53
24.65,7.53,1.01,7.53,1.01,-1.01,-1.27,-1.17,6.52,6.52,6.52
24.89,7.55,1.04,7.55,1.04,-1.04,-1.28,-1.20,6.51,6.51,6.52
25.14,7.57,1.07,7.58,1.07,-1.07,-1.29,-1.23,6.50,6.51,6.51
25.39,7.60,1.11,7.60,1.10,-1.10,-1.30,-1.26,6.51,6.50,6.50
25.65,7.62,1.13,7.62,1.13,-1.13,-1.31,-1.29,6.50,6.50,6.50
25.91,7.64,1.16,7.64,1.16,-1.15,-1.32,-1.32,6.49,6.49,6.48
26.16,7.66,1.18,7.66,1.18,-1.18,-1.33,-1.35,6.48,6.48,6.48
26.43,7.68,1.20,7.69,1.21,-1.21,-1.34,-1.38,6.47,6.48,6.48
26.69,7.71,1.24,7.71,1.24,-1.24,-1.35,-1.42,6.48,6.47,6.47
26.96,7.73,1.26,7.73,1.27,-1.26,-1.36,-1.45,6.47,6.47,6.47
27.23,7.75,1.29,7.75,1.29,-1.29,-1.37,-1.48,6.46,6.46,6.46
27.50,7.77,1.32,7.77,1.32,-1.32,-1.38,-1.51,6.46,6.46,6.46
27.77,7.79,1.34,7.79,1.34,-1.34,-1.39,-1.54,6.45,6.45,6.46
28.05,7.81,1.37,7.81,1.36,-1.37,-1.41,-1.57,6.45,6.45,6.44
28.33,7.83,1.39,7.83,1.39,-1.39,-1.42,-1.59,6.44,6.44,6.44
28.62,7.85,1.41,7.85,1.42,-1.41,-1.43,-1.62,6.44,6.44,6.44
28.90,7.87,1.44,7.87,1.44,-1.44,-1.45,-1.64,6.43,6.43,6.43
29.19,7.89,1.47,7.89,1.46,-1.46,-1.46,-1.67,6.43,6.43,6.43
29.48,7.91,1.49,7.91,1.49,-1.49,-1.48,-1.69,6.42,6.42,6.43
29.78,7.93,1.51,7.94,1.51,-1.52,-1.50,-1.71,6.42,6.42,6.42
30.08,7.96,1.54,7.96,1.54,-1.54,-1.51,-1.73,6.42,6.42,6.42
30.38,7.98,1.57,7.98,1.57,-1.57,-1.53,-1.75,6.41,6.41,6.41
30.68,8.00,1.59,8.01,1.60,-1.60,-1.55,-1.77,6.41,6.41,6.41
30.99,8.03,1.63,8.03,1.62,-1.62,-1.57,-1.78,6.41,6.41,6.41
31.30,8.05,1.65,8.05,1.65,-1.65,-1.59,-1.80,6.40,6.40,6.40
31.61,8.07,1.68,8.07,1.68,-1.67,-1.61,-1.81,6.40,6.40,6.39
31.93,8.09,1.70,8.09,1.70,-1.70,-1.63,-1.82,6.39,6.39,6.39
32.24,8.10,1.72,8.11,1.72,-1.72,-1.65,-1.83,6.38,6.38,6.39
32.57,8.12,1.75,8.12,1.74,-1.75,-1.67,-1.83,6.37,6.38,6.37
32.89,8.14,1.77,8.14,1.77,-1.77,-1.69,-1.84,6.37,6.37,6.37
33.22,8.16,1.79,8.16,1.80,-1.80,-1.72,-1.84,6.37,6.37,6.37
33.55,8.18,1.83,8.18,1.82,-1.82,-1.74,-1.84,6.36,6.36,6.36
33.89,8.20,1.85,8.20,1.85,-1.85,-1.77,-1.85,6.35,6.35,6.35
34.23,8.22,1.87,8.22,1.88,-1.88,-1.80,-1.85,6.35,6.35,6.35
34.57,8.24,1.91,8.24,1.90,-1.90,-1.82,-1.85,6.34,6.34,6.34
34.92,8.26,1.93,8.26,1.93,-1.93,-1.85,-1.84,6.33,6.33,6.33
35.27,8.28,1.95,8.28,1.96,-1.96,-1.87,-1.84,6.33,6.33,6.33
35.62,8.30,1.99,8.30,1.98,-1.98,-1.90,-1.84,6.32,6.32,6.32
35.97,8.32,2.01,8.32,2.01,-2.00,-1.93,-1.84,6.32,6.32,6.31
36.33,8.33,2.02,8.34,2.03,-2.03,-1.95,-1.84,6.31,6.31,6.31
36.70,8.35,2.05,8.35,2.05,-2.05,-1.97,-1.83,6.31,6.30,6.31
37.06,8.36,2.06,8.36,2.06,-2.07,-1.99,-1.83,6.30,6.30,6.30
37.43,8.37,2.09,8.37,2.08,-2.08,-2.01,-1.83,6.29,6.29,6.29
37.81,8.38,2.10,8.38,2.10,-2.10,-2.03,-1.83,6.28,6.28,6.28
38.19,8.39,2.11,8.39,2.12,-2.12,-2.04,-1.83,6.28,6.28,6.28
38.57,8.40,2.14,8.40,2.13,-2.13,-2.06,-1.83,6.27,6.27,6.26
38.95,8.40,2.14,8.40,2.15,-2.15,-2.07,-1.83,6.26,6.26,6.26
39.34,8.40,2.16,8.40,2.16,-2.16,-2.07,-1.83,6.25,6.25,6.24
39.74,8.40,2.16,8.40,2.17,-2.17,-2.08,-1.83,6.24,6.24,6.24
40.14,8.40,2.18,8.40,2.17,-2.17,-2.08,-1.83,6.23,6.23,6.22
40.54,8.39,2.17,8.40,2.18,-2.18,-2.08,-1.84,6.22,6.22,6.22
40.94,8.39,2.18,8.39,2.18,-2.18,-2.09,-1.84,6.21,6.21,6.21
41.35,8.38,2.18,8.38,2.18,-2.18,-2.09,-1.85,6.21,6.20,6.21
41.76,8.37,2.17,8.37,2.17,-2.17,-2.09,-1.86,6.20,6.20,6.20
42.18,8.36,2.17,8.36,2.17,-2.17,-2.08,-1.87,6.19,6.20,6.19
42.60,8.35,2.17,8.35,2.16,-2.16,-2.08,-1.88,6.19,6.19,6.19
43.03,8.34,2.15,8.34,2.15,-2.15,-2.08,-1.89,6.19,6.19,6.19
43.46,8.32,2.14,8.32,2.14,-2.14,-2.08,-1.90,6.18,6.18,6.18
43.90,8.30,2.13,8.30,2.13,-2.13,-2.09,-1.92,6.17,6.18,6.18
44.33,8.28,2.12,8.28,2.12,-2.12,-2.09,-1.94,6.17,6.17,6.17
44.78,8.26,2.10,8.26,2.10,-2.10,-2.09,-1.95,6.16,6.16,6.16
45.23,8.24,2.09,8.24,2.09,-2.09,-2.09,-1.97,6.15,6.15,6.15
45.68,8.22,2.08,8.22,2.08,-2.08,-2.10,-1.99,6.14,6.14,6.14
46.13,8.20,2.07,8.20,2.07,-2.07,-2.10,-2.02,6.13,6.13,6.13
46.60,8.18,2.06,8.19,2.06,-2.06,-2.11,-2.04,6.12,6.12,6.12
47.06,8.17,2.06,8.17,2.06,-2.06,-2.11,-2.07,6.11,6.11,6.11
47.53,8.15,2.06,8.16,2.06,-2.06,-2.12,-2.09,6.09,6.10,6.09
48.01,8.14,2.06,8.15,2.06,-2.06,-2.13,-2.12,6.08,6.09,6.08
48.49,8.14,2.07,8.14,2.07,-2.06,-2.14,-2.15,6.08,6.07,6.07
48.97,8.13,2.07,8.14,2.07,-2.07,-2.15,-2.18,6.06,6.06,6.06
49.46,8.13,2.08,8.13,2.08,-2.08,-2.16,-2.21,6.05,6.05,6.05
49.96,8.13,2.09,8.13,2.09,-2.09,-2.17,-2.24,6.04,6.04,6.04
50.46,8.13,2.11,8.13,2.10,-2.10,-2.18,-2.28,6.03,6.03,6.03
50.96,8.13,2.12,8.14,2.12,-2.12,-2.19,-2.31,6.01,6.02,6.01
51.47,8.14,2.13,8.14,2.13,-2.14,-2.21,-2.34,6.01,6.01,6.01
51.99,8.15,2.15,8.15,2.16,-2.16,-2.22,-2.38,5.99,6.00,6.00
52.51,8.17,2.19,8.17,2.19,-2.18,-2.23,-2.41,5.99,5.98,5.98
53.03,8.18,2.21,8.18,2.21,-2.21,-2.25,-2.45,5.97,5.97,5.97
53.56,8.20,2.25,8.20,2.24,-2.25,-2.26,-2.49,5.95,5.95,5.95
54.10,8.22,2.27,8.22,2.28,-2.29,-2.28,-2.52,5.94,5.94,5.95
54.64,8.25,2.32,8.25,2.32,-2.33,-2.29,-2.56,5.93,5.93,5.93
55.18,8.28,2.37,8.28,2.36,-2.37,-2.31,-2.59,5.92,5.92,5.92
55.74,8.31,2.41,8.31,2.41,-2.41,-2.32,-2.62,5.91,5.91,5.90
56.29,8.34,2.45,8.34,2.45,-2.45,-2.34,-2.66,5.90,5.89,5.89
56.86,8.36,2.49,8.36,2.49,-2.48,-2.36,-2.69,5.88,5.88,5.87
57.42,8.37,2.52,8.38,2.52,-2.52,-2.37,-2.72,5.86,5.86,5.86
58.00,8.39,2.55,8.39,2.55,-2.55,-2.39,-2.75,5.85,5.84,5.85
58.58,8.40,2.58,8.40,2.57,-2.57,-2.41,-2.77,5.83,5.83,5.83
59.16,8.40,2.60,8.41,2.60,-2.59,-2.43,-2.80,5.81,5.81,5.81
59.76,8.40,2.61,8.40,2.61,-2.61,-2.45,-2.82,5.79,5.79,5.79
60.35,8.40,2.63,8.40,2.63,-2.63,-2.46,-2.84,5.77,5.77,5.77
60.96,8.39,2.64,8.39,2.64,-2.64,-2.48,-2.86,5.75,5.75,5.75
61.57,8.38,2.66,8.38,2.65,-2.65,-2.50,-2.87,5.73,5.73,5.73
62.18,8.36,2.66,8.37,2.66,-2.66,-2.52,-2.88,5.70,5.70,5.70
62.80,8.35,2.67,8.35,2.67,-2.67,-2.54,-2.89,5.68,5.68,5.68
63.43,8.33,2.68,8.33,2.68,-2.68,-2.56,-2.90,5.66,5.65,5.65
64.07,8.31,2.69,8.31,2.68,-2.68,-2.58,-2.91,5.63,5.63,5.63
64.71,8.28,2.68,8.29,2.69,-2.69,-2.60,-2.91,5.60,5.60,5.60
65.35,8.26,2.69,8.26,2.69,-2.69,-2.62,-2.91,5.58,5.57,5.57
66.01,8.23,2.69,8.23,2.69,-2.69,-2.64,-2.91,5.55,5.54,5.55
66.67,8.20,2.69,8.20,2.69,-2.69,-2.66,-2.91,5.52,5.52,5.52
67.33,8.17,2.69,8.17,2.69,-2.69,-2.68,-2.90,5.49,5.49,5.49
68.01,8.14,2.69,8.14,2.69,-2.68,-2.70,-2.90,5.46,5.46,5.46
68.69,8.11,2.69,8.11,2.68,-2.68,-2.72,-2.89,5.43,5.43,5.43
69.37,8.07,2.68,8.08,2.68,-2.68,-2.74,-2.88,5.39,5.39,5.39
70.07,8.04,2.68,8.04,2.68,-2.68,-2.76,-2.87,5.36,5.36,5.36
70.77,8.01,2.69,8.01,2.68,-2.69,-2.78,-2.86,5.33,5.33,5.33
71.48,7.98,2.68,7.98,2.68,-2.69,-2.80,-2.84,5.29,5.29,5.30
72.19,7.95,2.69,7.96,2.69,-2.70,-2.82,-2.83,5.26,5.26,5.27
72.91,7.93,2.70,7.93,2.70,-2.70,-2.84,-2.82,5.23,5.23,5.23
73.64,7.91,2.72,7.91,2.71,-2.71,-2.86,-2.81,5.20,5.20,5.19
74.38,7.88,2.72,7.89,2.72,-2.72,-2.88,-2.80,5.17,5.17,5.17
75.12,7.86,2.73,7.86,2.73,-2.72,-2.90,-2.79,5.14,5.14,5.13
75.87,7.83,2.73,7.83,2.73,-2.73,-2.93,-2.78,5.10,5.10,5.10
76.63,7.79,2.73,7.79,2.74,-2.74,-2.95,-2.77,5.06,5.06,5.06
77.40,7.75,2.74,7.76,2.74,-2.74,-2.97,-2.76,5.01,5.02,5.02
78.17,7.72,2.74,7.72,2.74,-2.74,-2.99,-2.75,4.98,4.98,4.99
78.95,7.69,2.75,7.69,2.74,-2.75,-3.01,-2.74,4.95,4.94,4.94
79.74,7.65,2.75,7.65,2.75,-2.75,-3.03,-2.74,4.90,4.90,4.90
80.54,7.61,2.75,7.62,2.75,-2.76,-3.05,-2.74,4.86,4.86,4.87
81.35,7.58,2.76,7.58,2.76,-2.76,-3.07,-2.74,4.82,4.82,4.82
82.16,7.54,2.77,7.54,2.77,-2.77,-3.09,-2.74,4.78,4.78,4.78
82.98,7.50,2.77,7.51,2.78,-2.77,-3.11,-2.74,4.73,4.74,4.73
83.81,7.47,2.79,7.47,2.78,-2.77,-3.13,-2.74,4.70,4.69,4.68
84.65,7.42,2.78,7.43,2.79,-2.78,-3.15,-2.75,4.65,4.65,4.64
85.50,7.38,2.79,7.38,2.78,-2.78,-3.17,-2.76,4.60,4.60,4.60
86.35,7.33,2.79,7.33,2.78,-2.79,-3.19,-2.77,4.54,4.54,4.55
87.22,7.28,2.79,7.29,2.79,-2.80,-3.21,-2.78,4.48,4.49,4.50
88.09,7.25,2.81,7.25,2.81,-2.82,-3.23,-2.80,4.43,4.43,4.45
88.97,7.22,2.83,7.22,2.83,-2.84,-3.25,-2.81,4.39,4.39,4.40
89.86,7.20,2.86,7.20,2.86,-2.86,-3.27,-2.83,4.34,4.34,4.34
90.76,7.18,2.89,7.18,2.89,-2.89,-3.29,-2.85,4.30,4.30,4.29
91.66,7.16,2.92,7.16,2.92,-2.91,-3.30,-2.88,4.25,4.25,4.24
92.58,7.13,2.95,7.13,2.95,-2.94,-3.32,-2.90,4.19,4.19,4.19
93.51,7.10,2.97,7.10,2.97,-2.96,-3.34,-2.93,4.14,4.14,4.13
94.44,7.06,2.98,7.07,2.99,-2.99,-3.36,-2.96,4.07,4.08,4.08
95.39,7.03,3.01,7.03,3.01,-3.01,-3.38,-2.99,4.02,4.02,4.02
96.34,7.00,3.03,7.00,3.03,-3.03,-3.39,-3.02,3.97,3.97,3.97
97.30,6.97,3.05,6.98,3.06,-3.06,-3.41,-3.06,3.92,3.92,3.92
98.28,6.95,3.08,6.95,3.08,-3.08,-3.43,-3.10,3.87,3.87,3.87
99.26,6.92,3.11,6.92,3.11,-3.11,-3.45,-3.13,3.82,3.81,3.81
100.25,6.89,3.14,6.89,3.13,-3.14,-3.46,-3.17,3.76,3.75,3.76
101.25,6.85,3.15,6.86,3.16,-3.17,-3.48,-3.21,3.68,3.69,3.70
102.27,6.84,3.20,6.84,3.20,-3.20,-3.50,-3.26,3.64,3.64,3.64
103.29,6.83,3.24,6.83,3.24,-3.24,-3.51,-3.30,3.59,3.59,3.59
104.32,6.82,3.28,6.82,3.28,-3.28,-3.53,-3.34,3.54,3.54,3.54
105.37,6.80,3.32,6.81,3.32,-3.32,-3.54,-3.38,3.49,3.49,3.49
106.42,6.79,3.36,6.79,3.36,-3.36,-3.56,-3.43,3.44,3.43,3.43
107.48,6.77,3.39,6.77,3.39,-3.40,-3.57,-3.47,3.38,3.38,3.38
108.56,6.75,3.43,6.76,3.43,-3.43,-3.59,-3.51,3.32,3.33,3.33
109.64,6.74,3.47,6.74,3.47,-3.46,-3.60,-3.55,3.28,3.28,3.27
110.74,6.72,3.51,6.72,3.50,-3.49,-3.61,-3.60,3.23,3.22,3.22
111.85,6.68,3.52,6.69,3.53,-3.52,-3.63,-3.64,3.16,3.17,3.16
112.97,6.65,3.54,6.65,3.54,-3.55,-3.64,-3.67,3.11,3.11,3.11
114.10,6.62,3.56,6.62,3.56,-3.57,-3.65,-3.71,3.05,3.05,3.06
115.24,6.59,3.59,6.60,3.59,-3.60,-3.66,-3.74,3.00,3.00,3.00
116.39,6.57,3.62,6.57,3.62,-3.62,-3.67,-3.77,2.95,2.95,2.95
117.55,6.55,3.65,6.55,3.65,-3.64,-3.69,-3.80,2.91,2.91,2.91
118.73,6.52,3.67,6.52,3.67,-3.66,-3.70,-3.82,2.86,2.86,2.85
119.92,6.48,3.68,6.49,3.69,-3.69,-3.71,-3.84,2.80,2.80,2.80
121.12,6.45,3.71,6.46,3.71,-3.71,-3.72,-3.86,2.74,2.74,2.75
122.33,6.43,3.73,6.43,3.73,-3.74,-3.73,-3.88,2.70,2.69,2.70
123.55,6.40,3.75,6.40,3.75,-3.76,-3.74,-3.89,2.64,2.64,2.65
124.79,6.38,3.77,6.38,3.78,-3.78,-3.74,-3.89,2.60,2.60,2.61
126.03,6.36,3.80,6.37,3.81,-3.80,-3.75,-3.89,2.56,2.56,2.56
127.29,6.35,3.83,6.35,3.83,-3.82,-3.76,-3.89,2.53,2.53,2.52
128.57,6.33,3.86,6.32,3.85,-3.83,-3.77,-3.89,2.50,2.49,2.47
129.85,6.28,3.86,6.28,3.86,-3.84,-3.77,-3.87,2.44,2.44,2.42
131.15,6.22,3.85,6.23,3.86,-3.85,-3.78,-3.86,2.37,2.38,2.37
132.46,6.18,3.85,6.18,3.85,-3.86,-3.79,-3.84,2.33,2.32,2.34
133.79,6.13,3.84,6.13,3.84,-3.86,-3.79,-3.83,2.27,2.27,2.29
135.12,6.08,3.84,6.09,3.84,-3.86,-3.80,-3.80,2.22,2.23,2.24
136.48,6.05,3.85,6.05,3.85,-3.86,-3.80,-3.78,2.20,2.19,2.20
137.84,6.01,3.86,6.02,3.86,-3.86,-3.80,-3.75,2.16,2.16,2.15
139.22,5.98,3.87,5.98,3.87,-3.85,-3.81,-3.72,2.13,2.12,2.11
140.61,5.93,3.86,5.93,3.86,-3.85,-3.81,-3.69,2.08,2.08,2.07
142.02,5.87,3.84,5.88,3.85,-3.84,-3.81,-3.65,2.03,2.04,2.04
143.44,5.83,3.84,5.83,3.84,-3.83,-3.81,-3.62,2.00,2.00,1.99
144.87,5.78,3.83,5.78,3.82,-3.83,-3.81,-3.58,1.96,1.96,1.95
146.32,5.73,3.81,5.73,3.81,-3.82,-3.81,-3.55,1.92,1.92,1.92
147.78,5.68,3.80,5.68,3.80,-3.81,-3.81,-3.51,1.87,1.88,1.89
149.26,5.64,3.79,5.65,3.79,-3.80,-3.81,-3.48,1.84,1.84,1.85
150.75,5.61,3.79,5.61,3.80,-3.80,-3.81,-3.44,1.81,1.81,1.82
152.26,5.59,3.81,5.59,3.81,-3.80,-3.81,-3.41,1.79,1.79,1.78
153.78,5.56,3.81,5.56,3.81,-3.80,-3.80,-3.37,1.76,1.76,1.75
155.32,5.54,3.82,5.54,3.82,-3.80,-3.80,-3.34,1.74,1.73,1.72
156.88,5.49,3.80,5.50,3.81,-3.81,-3.80,-3.31,1.69,1.69,1.69
158.44,5.47,3.82,5.46,3.81,-3.81,-3.79,-3.28,1.66,1.65,1.66
160.03,5.42,3.80,5.43,3.81,-3.81,-3.79,-3.25,1.61,1.62,1.63
161.63,5.40,3.81,5.40,3.81,-3.82,-3.78,-3.22,1.59,1.59,1.59
163.24,5.38,3.81,5.38,3.81,-3.82,-3.77,-3.20,1.57,1.56,1.57
164.88,5.35,3.81,5.36,3.82,-3.82,-3.77,-3.18,1.54,1.54,1.54
166.53,5.33,3.82,5.33,3.82,-3.81,-3.76,-3.15,1.52,1.52,1.51
168.19,5.31,3.83,5.31,3.82,-3.81,-3.75,-3.14,1.51,1.50,1.49
169.87,5.27,3.80,5.28,3.81,-3.80,-3.74,-3.12,1.48,1.48,1.47
171.57,5.23,3.79,5.23,3.79,-3.78,-3.73,-3.11,1.45,1.45,1.44
173.29,5.19,3.78,5.19,3.77,-3.77,-3.72,-3.09,1.42,1.42,1.42
175.02,5.13,3.74,5.14,3.75,-3.75,-3.71,-3.09,1.38,1.39,1.39
176.77,5.09,3.72,5.10,3.72,-3.74,-3.70,-3.08,1.35,1.36,1.37
178.54,5.06,3.71,5.06,3.71,-3.73,-3.69,-3.08,1.34,1.34,1.35
180.32,5.03,3.71,5.03,3.71,-3.72,-3.67,-3.07,1.32,1.32,1.33
182.13,5.01,3.71,5.01,3.71,-3.71,-3.66,-3.07,1.31,1.30,1.31
183.95,4.98,3.70,4.99,3.70,-3.70,-3.65,-3.08,1.29,1.29,1.28
185.79,4.96,3.70,4.96,3.70,-3.69,-3.63,-3.08,1.28,1.27,1.26
187.65,4.93,3.69,4.93,3.69,-3.68,-3.62,-3.09,1.26,1.25,1.24
189.52,4.89,3.67,4.89,3.67,-3.67,-3.60,-3.10,1.23,1.23,1.22
191.42,4.85,3.65,4.85,3.65,-3.65,-3.58,-3.11,1.20,1.20,1.20
193.33,4.81,3.63,4.81,3.63,-3.64,-3.57,-3.12,1.17,1.17,1.18
195.27,4.77,3.61,4.78,3.61,-3.62,-3.55,-3.14,1.15,1.15,1.16
197.22,4.74,3.60,4.75,3.60,-3.61,-3.53,-3.15,1.13,1.14,1.15
199.19,4.72,3.59,4.72,3.59,-3.59,-3.51,-3.17,1.13,1.13,1.13
201.18,4.70,3.58,4.70,3.58,-3.57,-3.50,-3.19,1.13,1.13,1.12
203.19,4.67,3.57,4.68,3.57,-3.55,-3.48,-3.21,1.12,1.12,1.11
205.23,4.64,3.54,4.64,3.54,-3.53,-3.46,-3.24,1.11,1.11,1.10
207.28,4.60,3.52,4.60,3.51,-3.50,-3.44,-3.26,1.10,1.10,1.09
209.35,4.55,3.48,4.55,3.48,-3.47,-3.41,-3.28,1.08,1.08,1.07
211.44,4.50,3.44,4.50,3.44,-3.45,-3.39,-3.31,1.06,1.06,1.07
213.56,4.45,3.40,4.45,3.40,-3.42,-3.37,-3.33,1.04,1.04,1.05
215.69,4.41,3.37,4.41,3.37,-3.39,-3.35,-3.35,1.02,1.02,1.04
217.85,4.37,3.35,4.38,3.35,-3.36,-3.33,-3.38,1.01,1.02,1.03
220.03,4.36,3.34,4.36,3.33,-3.34,-3.30,-3.40,1.03,1.02,1.03
222.23,4.33,3.32,4.33,3.32,-3.31,-3.28,-3.42,1.03,1.03,1.01
224.45,4.30,3.30,4.30,3.30,-3.28,-3.25,-3.44,1.02,1.02,1.00
226.70,4.26,3.27,4.26,3.26,-3.25,-3.23,-3.46,1.01,1.01,0.99
228.96,4.20,3.21,4.21,3.23,-3.22,-3.21,-3.48,0.98,0.99,0.99
231.25,4.16,3.18,4.16,3.18,-3.19,-3.18,-3.49,0.98,0.97,0.98
233.57,4.11,3.14,4.11,3.14,-3.15,-3.15,-3.50,0.96,0.96,0.97
235.90,4.06,3.09,4.07,3.11,-3.12,-3.13,-3.51,0.95,0.95,0.97
238.26,4.04,3.08,4.04,3.08,-3.09,-3.10,-3.51,0.96,0.95,0.96
240.64,4.01,3.05,4.02,3.05,-3.06,-3.08,-3.51,0.96,0.96,0.96
243.05,3.99,3.03,3.99,3.03,-3.03,-3.05,-3.51,0.97,0.97,0.96
245.48,3.97,3.01,3.97,3.01,-3.00,-3.02,-3.50,0.98,0.97,0.96
247.93,3.93,2.98,3.94,2.98,-2.97,-2.99,-3.49,0.96,0.97,0.96
250.41,3.91,2.95,3.90,2.94,-2.94,-2.97,-3.48,0.97,0.97,0.96
252.92,3.86,2.90,3.87,2.91,-2.91,-2.94,-3.46,0.95,0.96,0.96
255.45,3.83,2.87,3.83,2.87,-2.88,-2.91,-3.44,0.95,0.95,0.96
258.00,3.80,2.85,3.80,2.84,-2.85,-2.88,-3.41,0.95,0.95,0.96
260.58,3.77,2.81,3.78,2.82,-2.83,-2.85,-3.38,0.95,0.95,0.96
263.19,3.75,2.80,3.75,2.80,-2.80,-2.83,-3.35,0.95,0.95,0.95
265.82,3.72,2.78,3.73,2.78,-2.78,-2.80,-3.31,0.95,0.95,0.95
268.48,3.70,2.75,3.70,2.76,-2.75,-2.77,-3.27,0.95,0.95,0.95
271.16,3.68,2.74,3.67,2.73,-2.72,-2.74,-3.23,0.96,0.95,0.94
273.87,3.63,2.69,3.64,2.70,-2.69,-2.71,-3.18,0.95,0.95,0.94
276.61,3.60,2.66,3.60,2.66,-2.65,-2.68,-3.13,0.95,0.95,0.94
279.38,3.56,2.62,3.56,2.62,-2.62,-2.65,-3.08,0.95,0.94,0.94
282.17,3.51,2.57,3.52,2.58,-2.58,-2.62,-3.02,0.93,0.94,0.94
284.99,3.47,2.53,3.47,2.53,-2.54,-2.59,-2.97,0.93,0.93,0.94
287.84,3.42,2.49,3.43,2.49,-2.51,-2.56,-2.91,0.91,0.92,0.93
290.72,3.39,2.46,3.40,2.47,-2.48,-2.53,-2.85,0.91,0.92,0.93
293.63,3.37,2.45,3.37,2.45,-2.45,-2.50,-2.79,0.92,0.92,0.92
296.57,3.35,2.43,3.35,2.43,-2.42,-2.47,-2.73,0.93,0.93,0.92
299.53,3.33,2.41,3.33,2.41,-2.39,-2.44,-2.67,0.94,0.94,0.93
302.53,3.30,2.38,3.30,2.38,-2.36,-2.41,-2.61,0.94,0.94,0.92
305.55,3.26,2.34,3.26,2.34,-2.33,-2.38,-2.55,0.93,0.93,0.92
308.61,3.22,2.30,3.22,2.30,-2.30,-2.35,-2.49,0.93,0.92,0.92
311.69,3.17,2.25,3.18,2.25,-2.26,-2.32,-2.43,0.91,0.92,0.92
314.81,3.14,2.22,3.14,2.21,-2.23,-2.28,-2.37,0.92,0.91,0.93
317.96,3.10,2.18,3.11,2.18,-2.19,-2.25,-2.32,0.91,0.92,0.92
321.14,3.08,2.15,3.08,2.15,-2.16,-2.22,-2.26,0.93,0.92,0.93
324.35,3.05,2.12,3.05,2.12,-2.13,-2.19,-2.20,0.93,0.93,0.93
327.59,3.02,2.10,3.03,2.10,-2.10,-2.16,-2.15,0.93,0.93,0.93
330.87,3.01,2.08,3.01,2.08,-2.07,-2.13,-2.09,0.94,0.94,0.93
334.18,2.99,2.05,2.99,2.05,-2.04,-2.10,-2.04,0.95,0.94,0.94
337.52,2.95,2.02,2.96,2.02,-2.01,-2.07,-1.99,0.94,0.94,0.94
340.90,2.92,1.98,2.92,1.98,-1.98,-2.04,-1.93,0.94,0.94,0.94
344.30,2.89,1.95,2.89,1.95,-1.95,-2.01,-1.89,0.94,0.94,0.94
347.75,2.86,1.92,2.86,1.92,-1.92,-1.98,-1.84,0.94,0.94,0.94
351.23,2.83,1.90,2.83,1.89,-1.89,-1.95,-1.79,0.94,0.94,0.94
354.74,2.80,1.86,2.80,1.86,-1.86,-1.92,-1.75,0.94,0.94,0.95
358.28,2.77,1.83,2.78,1.83,-1.83,-1.89,-1.70,0.94,0.94,0.94
361.87,2.75,1.81,2.75,1.81,-1.80,-1.86,-1.66,0.95,0.95,0.94
365.49,2.72,1.78,2.72,1.78,-1.77,-1.83,-1.62,0.95,0.95,0.94
369.14,2.69,1.76,2.69,1.75,-1.75,-1.80,-1.58,0.95,0.94,0.94
372.83,2.65,1.72,2.65,1.72,-1.72,-1.77,-1.54,0.93,0.93,0.94
376.56,2.62,1.68,2.63,1.69,-1.70,-1.74,-1.50,0.93,0.93,0.94
380.33,2.60,1.66,2.60,1.66,-1.68,-1.71,-1.46,0.93,0.93,0.94
384.13,2.59,1.65,2.59,1.65,-1.66,-1.68,-1.43,0.94,0.94,0.94
387.97,2.58,1.64,2.58,1.64,-1.64,-1.65,-1.40,0.94,0.94,0.94
391.85,2.57,1.63,2.57,1.62,-1.62,-1.63,-1.36,0.95,0.95,0.95
395.77,2.55,1.61,2.56,1.61,-1.61,-1.60,-1.33,0.95,0.95,0.95
399.73,2.54,1.59,2.54,1.59,-1.59,-1.57,-1.30,0.95,0.96,0.95
403.72,2.53,1.58,2.53,1.57,-1.57,-1.54,-1.27,0.96,0.96,0.95
407.76,2.51,1.55,2.51,1.55,-1.55,-1.51,-1.24,0.97,0.97,0.96
411.84,2.48,1.52,2.48,1.52,-1.52,-1.49,-1.22,0.96,0.96,0.96
415.96,2.45,1.48,2.45,1.49,-1.49,-1.46,-1.19,0.96,0.96,0.97
420.12,2.42,1.45,2.42,1.46,-1.46,-1.44,-1.16,0.96,0.96,0.97
424.32,2.39,1.43,2.40,1.43,-1.43,-1.41,-1.14,0.97,0.97,0.97
428.56,2.37,1.40,2.37,1.39,-1.39,-1.39,-1.11,0.98,0.98,0.98
432.85,2.33,1.36,2.33,1.36,-1.35,-1.36,-1.09,0.98,0.98,0.98
437.18,2.29,1.32,2.30,1.32,-1.32,-1.34,-1.07,0.98,0.98,0.97
441.55,2.25,1.28,2.25,1.28,-1.28,-1.31,-1.04,0.97,0.97,0.97
445.96,2.21,1.24,2.21,1.24,-1.24,-1.28,-1.02,0.97,0.97,0.97
450.42,2.17,1.20,2.17,1.20,-1.21,-1.26,-1.00,0.97,0.96,0.97
454.93,2.13,1.16,2.14,1.16,-1.17,-1.23,-0.98,0.96,0.96,0.97
459.48,2.10,1.13,2.11,1.14,-1.14,-1.20,-0.95,0.96,0.97,0.97
464.07,2.08,1.11,2.08,1.11,-1.11,-1.17,-0.93,0.97,0.97,0.97
468.71,2.06,1.09,2.06,1.09,-1.08,-1.13,-0.91,0.98,0.97,0.97
473.40,2.02,1.06,2.03,1.06,-1.06,-1.10,-0.89,0.97,0.97,0.97
478.13,2.00,1.03,2.00,1.03,-1.03,-1.07,-0.87,0.97,0.97,0.98
482.91,1.98,1.01,1.98,1.01,-1.01,-1.04,-0.85,0.98,0.98,0.98
487.74,1.96,0.99,1.96,0.98,-0.98,-1.00,-0.83,0.98,0.98,0.98
492.62,1.93,0.96,1.93,0.95,-0.95,-0.97,-0.80,0.98,0.98,0.97
497.55,1.90,0.92,1.90,0.92,-0.92,-0.94,-0.78,0.98,0.98,0.98
502.52,1.87,0.89,1.88,0.89,-0.90,-0.91,-0.76,0.97,0.98,0.98
507.55,1.85,0.87,1.85,0.87,-0.87,-0.88,-0.74,0.98,0.98,0.98
512.62,1.83,0.85,1.83,0.84,-0.85,-0.85,-0.72,0.98,0.98,0.98
517.75,1.80,0.81,1.81,0.82,-0.82,-0.82,-0.69,0.98,0.99,0.99
522.93,1.78,0.79,1.79,0.80,-0.79,-0.79,-0.67,0.99,0.99,0.99
528.16,1.76,0.77,1.76,0.77,-0.76,-0.76,-0.65,1.00,1.00,0.99
533.44,1.73,0.74,1.73,0.74,-0.73,-0.73,-0.62,1.01,1.00,0.99
538.77,1.69,0.69,1.69,0.70,-0.69,-0.70,-0.60,1.00,1.00,1.00
544.16,1.65,0.65,1.65,0.65,-0.65,-0.67,-0.58,1.00,1.00,1.00
