frequency,raw,error,smoothed,error_smoothed,equalization,parametric_eq,fixed_band_eq,equalized_raw,equalized_smoothed,target
20.00,-25.50,-27.59,-25.50,-27.59,6.00,5.72,2.73,-19.50,-19.50,2.09
20.20,-25.23,-27.32,-25.22,-27.31,6.00,5.75,2.81,-19.23,-19.22,2.09
20.40,-24.95,-27.03,-24.95,-27.04,6.00,5.78,2.89,-18.95,-18.95,2.09
20.61,-24.68,-26.78,-24.68,-26.77,6.00,5.80,2.97,-18.68,-18.68,2.10
20.81,-24.41,-26.50,-24.41,-26.50,6.00,5.83,3.06,-18.41,-18.41,2.10
21.02,-24.14,-26.23,-24.14,-26.24,6.00,5.86,3.14,-18.14,-18.14,2.10
21.23,-23.89,-25.98,-23.89,-25.99,6.00,5.88,3.23,-17.89,-17.89,2.10
21.44,-23.63,-25.74,-23.63,-25.74,6.00,5.91,3.32,-17.63,-17.63,2.11
21.66,-23.39,-25.50,-23.39,-25.49,6.00,5.93,3.42,-17.39,-17.39,2.11
21.87,-23.13,-25.24,-23.14,-25.25,6.00,5.95,3.52,-17.13,-17.14,2.11
22.09,-22.90,-25.00,-22.90,-25.01,6.00,5.97,3.62,-16.90,-16.90,2.11
22.31,-22.66,-24.78,-22.66,-24.77,6.00,5.99,3.72,-16.66,-16.66,2.12
22.54,-22.44,-24.55,-22.43,-24.54,6.00,6.01,3.82,-16.44,-16.43,2.11
22.76,-22.21,-24.32,-22.20,-24.32,6.00,6.03,3.93,-16.21,-16.20,2.11
22.99,-21.98,-24.09,-21.99,-24.11,6.00,6.05,4.04,-15.98,-15.99,2.11
23.22,-21.80,-23.91,-21.80,-23.91,6.00,6.06,4.16,-15.80,-15.80,2.11
23.45,-21.63,-23.74,-21.62,-23.73,6.00,6.08,4.27,-15.63,-15.62,2.11
23.69,-21.45,-23.56,-21.45,-23.57,6.00,6.09,4.39,-15.45,-15.45,2.11
23.92,-21.28,-23.40,-21.28,-23.39,6.00,6.10,4.51,-15.28,-15.28,2.12
24.16,-21.11,-23.22,-21.11,-23.22,6.00,6.11,4.63,-15.11,-15.11,2.11
24.40,-20.95,-23.06,-20.95,-23.06,6.00,6.12,4.76,-14.95,-14.95,2.11
24.65,-20.78,-22.89,-20.78,-22.89,6.00,6.13,4.89,-14.78,-14.78,2.11
24.89,-20.61,-22.72,-20.61,-22.71,6.00,6.14,5.02,-14.61,-14.61,2.10
25.14,-20.41,-22.51,-20.40,-22.50,6.00,6.15,5.15,-14.41,-14.40,2.10
25.39,-20.17,-22.26,-20.18,-22.27,6.00,6.15,5.28,-14.17,-14.18,2.09
25.65,-19.95,-22.04,-19.94,-22.03,6.00,6.16,5.41,-13.95,-13.94,2.09
25.91,-19.72,-21.80,-19.73,-21.81,6.00,6.16,5.54,-13.72,-13.73,2.08
26.16,-19.55,-21.62,-19.56,-21.63,6.00,6.16,5.68,-13.55,-13.56,2.08
26.43,-19.42,-21.49,-19.42,-21.49,6.00,6.17,5.81,-13.42,-13.42,2.07
26.69,-19.29,-21.35,-19.29,-21.36,6.00,6.17,5.94,-13.29,-13.29,2.07
26.96,-19.16,-21.23,-19.14,-21.21,6.00,6.17,6.07,-13.16,-13.14,2.07
27.23,-18.97,-21.04,-18.96,-21.03,6.00,6.16,6.20,-12.97,-12.96,2.07
27.50,-18.76,-20.81,-18.76,-20.82,6.00,6.16,6.32,-12.76,-12.76,2.06
27.77,-18.55,-20.60,-18.55,-20.61,6.00,6.16,6.45,-12.55,-12.55,2.05
28.05,-18.35,-20.41,-18.35,-20.41,6.00,6.15,6.56,-12.35,-12.35,2.06
28.33,-18.18,-20.24,-18.18,-20.25,6.00,6.15,6.67,-12.18,-12.18,2.06
28.62,-18.01,-20.07,-18.02,-20.08,6.00,6.14,6.78,-12.01,-12.02,2.06
28.90,-17.84,-19.90,-17.81,-19.87,6.00,6.13,6.88,-11.84,-11.81,2.06
29.19,-17.57,-19.63,-17.55,-19.61,6.00,6.13,6.97,-11.57,-11.55,2.06
29.48,-17.24,-19.29,-17.23,-19.29,6.00,6.12,7.06,-11.24,-11.23,2.06
29.78,-16.91,-18.97,-16.93,-18.98,6.00,6.11,7.13,-10.91,-10.93,2.06
30.08,-16.64,-18.69,-16.68,-18.73,6.00,6.10,7.20,-10.64,-10.68,2.05
30.38,-16.51,-18.56,-16.51,-18.56,6.00,6.09,7.25,-10.51,-10.51,2.05
30.68,-16.38,-18.42,-16.37,-18.42,6.00,6.08,7.29,-10.38,-10.37,2.04
30.99,-16.26,-18.29,-16.22,-18.26,6.00,6.07,7.33,-10.26,-10.22,2.03
31.30,-16.02,-18.05,-16.02,-18.05,6.00,6.05,7.35,-10.02,-10.02,2.03
31.61,-15.78,-17.80,-15.79,-17.81,6.00,6.04,7.36,-9.78,-9.79,2.02
31.93,-15.55,-17.57,-15.56,-17.58,6.00,6.03,7.36,-9.55,-9.56,2.02
32.24,-15.38,-17.38,-15.39,-17.40,6.00,6.01,7.35,-9.38,-9.39,2.01
32.57,-15.24,-17.24,-15.24,-17.24,6.00,6.00,7.33,-9.24,-9.24,2.00
32.89,-15.11,-17.10,-15.08,-17.07,6.00,5.99,7.30,-9.11,-9.08,2.00
33.22,-14.88,-16.87,-14.87,-16.86,6.00,5.97,7.26,-8.88,-8.87,1.99
33.55,-14.61,-16.60,-14.62,-16.61,6.00,5.96,7.21,-8.61,-8.62,1.98
33.89,-14.36,-16.33,-14.37,-16.34,6.00,5.95,7.16,-8.36,-8.37,1.97
34.23,-14.13,-16.10,-14.13,-16.10,6.00,5.93,7.09,-8.13,-8.13,1.97
34.57,-13.92,-15.88,-13.92,-15.88,6.00,5.92,7.02,-7.92,-7.92,1.96
34.92,-13.71,-15.67,-13.70,-15.66,6.00,5.91,6.95,-7.71,-7.70,1.96
35.27,-13.48,-15.43,-13.47,-15.43,6.00,5.89,6.87,-7.48,-7.47,1.95
35.62,-13.24,-15.19,-13.24,-15.19,6.00,5.88,6.78,-7.24,-7.24,1.95
35.97,-13.01,-14.95,-13.02,-14.96,6.00,5.87,6.70,-7.01,-7.02,1.94
36.33,-12.82,-14.75,-12.82,-14.76,6.00,5.86,6.61,-6.82,-6.82,1.94
36.70,-12.65,-14.58,-12.64,-14.57,6.00,5.85,6.52,-6.65,-6.64,1.94
37.06,-12.47,-14.40,-12.47,-14.40,6.00,5.84,6.43,-6.47,-6.47,1.93
37.43,-12.29,-14.22,-12.30,-14.23,6.00,5.83,6.33,-6.29,-6.30,1.93
37.81,-12.12,-14.06,-12.11,-14.04,6.00,5.83,6.24,-6.12,-6.11,1.94
38.19,-11.91,-13.84,-11.89,-13.82,6.00,5.82,6.15,-5.91,-5.89,1.94
38.57,-11.66,-13.59,-11.66,-13.59,6.00,5.82,6.06,-5.66,-5.66,1.93
38.95,-11.42,-13.35,-11.46,-13.39,6.00,5.82,5.97,-5.42,-5.46,1.93
39.34,-11.30,-13.22,-11.30,-13.23,6.00,5.82,5.89,-5.30,-5.30,1.93
39.74,-11.20,-13.12,-11.18,-13.11,6.00,5.82,5.81,-5.20,-5.18,1.92
40.14,-11.08,-13.00,-11.06,-12.98,6.00,5.82,5.73,-5.08,-5.06,1.92
40.54,-10.91,-12.83,-10.91,-12.83,6.00,5.82,5.65,-4.91,-4.91,1.92
40.94,-10.73,-12.64,-10.74,-12.65,6.00,5.83,5.57,-4.73,-4.74,1.91
41.35,-10.57,-12.47,-10.56,-12.46,6.00,5.84,5.50,-4.57,-4.56,1.90
41.76,-10.40,-12.28,-10.40,-12.29,6.00,5.85,5.44,-4.40,-4.40,1.89
42.18,-10.25,-12.12,-10.26,-12.13,6.00,5.86,5.37,-4.25,-4.26,1.87
42.60,-10.10,-11.95,-10.10,-11.96,6.00,5.88,5.31,-4.10,-4.10,1.86
43.03,-9.95,-11.79,-9.91,-11.75,6.00,5.90,5.25,-3.95,-3.91,1.84
43.46,-9.68,-11.50,-9.68,-11.50,6.00,5.92,5.20,-3.68,-3.68,1.82
43.90,-9.41,-11.22,-9.43,-11.24,6.00,5.94,5.15,-3.41,-3.43,1.81
44.33,-9.21,-11.00,-9.21,-10.99,6.00,5.97,5.11,-3.21,-3.21,1.79
44.78,-9.04,-10.81,-9.05,-10.82,6.00,6.00,5.07,-3.04,-3.05,1.78
45.23,-8.92,-10.68,-8.95,-10.71,6.00,6.03,5.03,-2.92,-2.95,1.76
45.68,-8.86,-10.60,-8.84,-10.59,6.00,6.06,5.00,-2.86,-2.84,1.75
46.13,-8.74,-10.47,-8.69,-10.43,6.00,6.09,4.97,-2.74,-2.69,1.74
46.60,-8.48,-10.21,-8.49,-10.22,6.00,6.13,4.94,-2.48,-2.49,1.73
47.06,-8.24,-9.97,-8.28,-10.01,6.00,6.16,4.92,-2.24,-2.28,1.73
47.53,-8.08,-9.80,-8.08,-9.81,6.00,6.20,4.90,-2.08,-2.08,1.72
48.01,-7.93,-9.65,-7.88,-9.60,6.00,6.23,4.88,-1.93,-1.88,1.73
48.49,-7.67,-9.40,-7.66,-9.39,6.00,6.26,4.87,-1.67,-1.66,1.73
48.97,-7.40,-9.13,-7.44,-9.17,6.00,6.29,4.86,-1.40,-1.44,1.73
49.46,-7.24,-8.97,-7.23,-8.97,6.00,6.31,4.86,-1.24,-1.23,1.74
49.96,-7.07,-8.81,-7.07,-8.81,6.00,6.32,4.85,-1.07,-1.07,1.74
50.46,-6.94,-8.69,-6.94,-8.68,6.00,6.33,4.85,-0.94,-0.94,1.75
50.96,-6.80,-8.55,-6.80,-8.56,6.00,6.34,4.85,-0.80,-0.80,1.75
51.47,-6.66,-8.41,-6.66,-8.41,6.00,6.33,4.85,-0.66,-0.66,1.75
51.99,-6.51,-8.25,-6.47,-8.22,6.00,6.31,4.86,-0.51,-0.47,1.75
52.51,-6.26,-8.00,-6.26,-7.99,6.00,6.29,4.86,-0.26,-0.26,1.74
53.03,-6.00,-7.73,-6.03,-7.76,6.00,6.25,4.87,0.00,-0.03,1.73
53.56,-5.84,-7.56,-5.83,-7.55,6.00,6.20,4.88,0.16,0.17,1.72
54.10,-5.68,-7.39,-5.68,-7.38,6.00,6.14,4.89,0.32,0.32,1.71
54.64,-5.55,-7.24,-5.56,-7.25,6.01,6.07,4.89,0.47,0.46,1.69
55.18,-5.43,-7.09,-5.43,-7.10,6.03,5.99,4.90,0.60,0.60,1.67
55.74,-5.30,-6.95,-5.27,-6.92,6.03,5.90,4.91,0.73,0.76,1.65
56.29,-5.10,-6.71,-5.08,-6.70,6.02,5.80,4.91,0.92,0.94,1.62
56.86,-4.85,-6.44,-4.89,-6.48,5.99,5.70,4.92,1.14,1.10,1.59
57.42,-4.68,-6.24,-4.69,-6.25,5.94,5.59,4.92,1.27,1.26,1.56
58.00,-4.54,-6.07,-4.47,-6.00,5.88,5.47,4.92,1.34,1.40,1.53
58.58,-4.28,-5.78,-4.30,-5.80,5.79,5.35,4.91,1.51,1.49,1.50
59.16,-4.10,-5.56,-4.17,-5.63,5.68,5.23,4.90,1.59,1.52,1.46
59.76,-4.10,-5.53,-4.06,-5.49,5.55,5.11,4.89,1.46,1.49,1.43
60.35,-4.02,-5.41,-3.99,-5.38,5.40,4.98,4.88,1.39,1.41,1.40
60.96,-3.88,-5.24,-3.89,-5.25,5.23,4.85,4.86,1.35,1.34,1.36
61.57,-3.74,-5.08,-3.75,-5.08,5.05,4.73,4.84,1.31,1.30,1.34
62.18,-3.60,-4.90,-3.60,-4.90,4.87,4.60,4.81,1.27,1.27,1.30
62.80,-3.46,-4.72,-3.44,-4.71,4.69,4.48,4.78,1.24,1.25,1.27
63.43,-3.28,-4.51,-3.27,-4.50,4.51,4.35,4.74,1.23,1.24,1.23
64.07,-3.08,-4.27,-3.11,-4.30,4.32,4.23,4.70,1.24,1.22,1.19
64.71,-2.96,-4.11,-2.96,-4.12,4.14,4.10,4.65,1.18,1.18,1.15
65.35,-2.85,-3.96,-2.83,-3.95,3.97,3.98,4.61,1.13,1.14,1.12
66.01,-2.73,-3.82,-2.71,-3.80,3.81,3.86,4.55,1.09,1.10,1.09
66.67,-2.58,-3.64,-2.60,-3.66,3.66,3.74,4.49,1.08,1.07,1.06
67.33,-2.48,-3.52,-2.49,-3.53,3.52,3.61,4.43,1.04,1.03,1.04
68.01,-2.41,-3.42,-2.39,-3.40,3.38,3.49,4.37,0.97,0.99,1.01
68.69,-2.30,-3.29,-2.29,-3.29,3.25,3.37,4.30,0.95,0.95,0.99
69.37,-2.17,-3.14,-2.16,-3.14,3.12,3.24,4.23,0.95,0.96,0.98
70.07,-2.03,-2.99,-2.02,-2.98,2.99,3.12,4.16,0.96,0.97,0.97
70.77,-1.87,-2.82,-1.91,-2.86,2.88,2.99,4.08,1.01,0.96,0.95
71.48,-1.82,-2.76,-1.81,-2.75,2.77,2.87,4.00,0.95,0.97,0.94
72.19,-1.77,-2.69,-1.72,-2.65,2.68,2.74,3.93,0.91,0.96,0.93
72.91,-1.61,-2.53,-1.65,-2.57,2.59,2.62,3.85,0.99,0.94,0.92
73.64,-1.59,-2.50,-1.60,-2.51,2.52,2.50,3.77,0.93,0.92,0.91
74.38,-1.59,-2.48,-1.58,-2.47,2.46,2.39,3.69,0.87,0.88,0.89
75.12,-1.58,-2.45,-1.57,-2.44,2.40,2.28,3.60,0.83,0.84,0.88
75.87,-1.54,-2.39,-1.51,-2.36,2.34,2.19,3.52,0.81,0.83,0.85
76.63,-1.43,-2.26,-1.45,-2.28,2.27,2.12,3.44,0.85,0.83,0.83
77.40,-1.37,-2.18,-1.41,-2.22,2.20,2.07,3.36,0.83,0.79,0.81
78.17,-1.37,-2.16,-1.36,-2.15,2.12,2.03,3.29,0.75,0.76,0.80
78.95,-1.37,-2.13,-1.30,-2.07,2.05,2.02,3.21,0.68,0.74,0.77
79.74,-1.20,-1.94,-1.23,-1.98,1.98,2.03,3.13,0.78,0.75,0.75
80.54,-1.14,-1.87,-1.16,-1.89,1.93,2.06,3.06,0.79,0.77,0.73
81.35,-1.14,-1.84,-1.12,-1.83,1.90,2.11,2.98,0.76,0.77,0.71
82.16,-1.16,-1.84,-1.18,-1.86,1.88,2.17,2.91,0.72,0.71,0.69
82.98,-1.24,-1.90,-1.24,-1.91,1.89,2.24,2.84,0.65,0.65,0.66
83.81,-1.35,-2.00,-1.31,-1.96,1.92,2.31,2.77,0.58,0.61,0.65
84.65,-1.37,-2.00,-1.38,-2.01,1.99,2.38,2.70,0.62,0.61,0.63
85.50,-1.43,-2.04,-1.43,-2.05,2.08,2.45,2.63,0.65,0.65,0.61
86.35,-1.53,-2.13,-1.53,-2.13,2.19,2.52,2.57,0.66,0.66,0.60
87.22,-1.65,-2.23,-1.68,-2.27,2.31,2.58,2.50,0.67,0.63,0.59
88.09,-1.89,-2.46,-1.86,-2.43,2.44,2.64,2.44,0.56,0.58,0.57
88.97,-2.04,-2.59,-2.03,-2.58,2.58,2.69,2.38,0.54,0.55,0.56
89.86,-2.20,-2.73,-2.19,-2.72,2.70,2.73,2.33,0.50,0.51,0.53
90.76,-2.28,-2.79,-2.31,-2.83,2.80,2.76,2.27,0.52,0.49,0.51
91.66,-2.44,-2.94,-2.42,-2.92,2.88,2.78,2.22,0.44,0.45,0.50
92.58,-2.51,-2.99,-2.49,-2.97,2.91,2.79,2.16,0.40,0.42,0.48
93.51,-2.51,-2.97,-2.52,-2.99,2.91,2.79,2.11,0.40,0.39,0.46
94.44,-2.50,-2.94,-2.47,-2.92,2.89,2.78,2.06,0.39,0.42,0.45
95.39,-2.41,-2.84,-2.39,-2.82,2.85,2.76,2.02,0.44,0.45,0.43
96.34,-2.28,-2.69,-2.32,-2.73,2.79,2.73,1.97,0.51,0.47,0.41
97.30,-2.28,-2.67,-2.28,-2.67,2.74,2.69,1.93,0.46,0.46,0.39
98.28,-2.28,-2.65,-2.27,-2.64,2.69,2.65,1.88,0.41,0.42,0.37
99.26,-2.28,-2.63,-2.28,-2.63,2.64,2.60,1.84,0.37,0.37,0.35
100.25,-2.28,-2.60,-2.28,-2.61,2.61,2.54,1.80,0.33,0.33,0.33
101.25,-2.28,-2.58,-2.28,-2.58,2.58,2.47,1.76,0.30,0.30,0.31
102.27,-2.28,-2.55,-2.28,-2.56,2.54,2.40,1.73,0.26,0.26,0.28
103.29,-2.28,-2.53,-2.29,-2.53,2.49,2.33,1.69,0.22,0.21,0.25
104.32,-2.28,-2.49,-2.26,-2.46,2.43,2.25,1.66,0.15,0.17,0.21
105.37,-2.22,-2.39,-2.19,-2.36,2.34,2.17,1.63,0.13,0.15,0.17
106.42,-2.09,-2.22,-2.13,-2.26,2.25,2.09,1.59,0.16,0.11,0.13
107.48,-2.05,-2.13,-2.06,-2.14,2.15,2.00,1.56,0.10,0.08,0.08
108.56,-2.05,-2.07,-1.98,-2.01,2.03,1.92,1.53,-0.01,0.05,0.02
109.64,-1.90,-1.87,-1.92,-1.89,1.92,1.83,1.51,0.02,-0.00,-0.03
110.74,-1.82,-1.74,-1.86,-1.78,1.79,1.73,1.48,-0.02,-0.06,-0.08
111.85,-1.82,-1.69,-1.82,-1.69,1.68,1.64,1.45,-0.14,-0.15,-0.13
112.97,-1.82,-1.63,-1.79,-1.61,1.57,1.55,1.43,-0.25,-0.22,-0.19
114.10,-1.78,-1.54,-1.73,-1.49,1.47,1.46,1.41,-0.31,-0.26,-0.23
115.24,-1.59,-1.31,-1.65,-1.37,1.38,1.36,1.38,-0.21,-0.27,-0.28
116.39,-1.59,-1.26,-1.59,-1.26,1.30,1.28,1.36,-0.28,-0.29,-0.33
117.55,-1.59,-1.21,-1.57,-1.19,1.24,1.19,1.34,-0.35,-0.33,-0.38
118.73,-1.59,-1.17,-1.59,-1.17,1.18,1.11,1.32,-0.41,-0.41,-0.42
119.92,-1.59,-1.14,-1.59,-1.13,1.12,1.04,1.30,-0.46,-0.46,-0.45
121.12,-1.59,-1.10,-1.59,-1.10,1.08,0.97,1.28,-0.50,-0.50,-0.49
122.33,-1.59,-1.06,-1.59,-1.06,1.05,0.92,1.27,-0.53,-0.53,-0.53
123.55,-1.59,-1.04,-1.59,-1.03,1.02,0.88,1.25,-0.56,-0.56,-0.55
124.79,-1.59,-1.00,-1.59,-1.00,0.99,0.85,1.24,-0.59,-0.59,-0.59
126.03,-1.59,-0.98,-1.59,-0.98,0.96,0.84,1.22,-0.63,-0.63,-0.61
127.29,-1.59,-0.95,-1.59,-0.95,0.94,0.84,1.21,-0.65,-0.65,-0.64
128.57,-1.59,-0.92,-1.59,-0.92,0.92,0.84,1.19,-0.67,-0.67,-0.67
129.85,-1.59,-0.89,-1.57,-0.88,0.92,0.86,1.18,-0.67,-0.66,-0.69
131.15,-1.59,-0.87,-1.59,-0.86,0.92,0.88,1.17,-0.67,-0.67,-0.72
132.46,-1.59,-0.84,-1.64,-0.89,0.92,0.90,1.16,-0.67,-0.72,-0.75
133.79,-1.73,-0.95,-1.71,-0.93,0.92,0.93,1.15,-0.80,-0.79,-0.78
135.12,-1.82,-1.01,-1.78,-0.97,0.92,0.95,1.14,-0.89,-0.86,-0.80
136.48,-1.82,-0.98,-1.83,-0.99,0.93,0.98,1.13,-0.89,-0.90,-0.83
137.84,-1.82,-0.95,-1.83,-0.97,0.93,1.00,1.12,-0.89,-0.90,-0.86
139.22,-1.82,-0.93,-1.82,-0.93,0.94,1.03,1.12,-0.88,-0.87,-0.88
140.61,-1.82,-0.90,-1.80,-0.89,0.95,1.05,1.11,-0.87,-0.85,-0.91
142.02,-1.82,-0.88,-1.83,-0.89,0.95,1.07,1.11,-0.87,-0.88,-0.94
143.44,-1.83,-0.86,-1.88,-0.92,0.94,1.09,1.10,-0.89,-0.94,-0.97
144.87,-2.01,-1.01,-1.96,-0.96,0.93,1.10,1.10,-1.08,-1.03,-1.00
146.32,-2.04,-1.00,-2.02,-0.99,0.93,1.12,1.09,-1.11,-1.10,-1.03
147.78,-2.05,-0.98,-2.06,-0.99,0.93,1.13,1.09,-1.12,-1.13,-1.07
149.26,-2.05,-0.94,-2.04,-0.93,0.93,1.14,1.09,-1.11,-1.10,-1.11
150.75,-2.05,-0.90,-2.05,-0.90,0.94,1.15,1.09,-1.11,-1.11,-1.15
152.26,-2.06,-0.86,-2.10,-0.91,0.94,1.16,1.09,-1.12,-1.16,-1.19
153.78,-2.20,-0.95,-2.16,-0.91,0.94,1.17,1.09,-1.26,-1.22,-1.25
155.32,-2.27,-0.97,-2.25,-0.95,0.95,1.18,1.09,-1.32,-1.30,-1.30
156.88,-2.30,-0.94,-2.35,-1.00,0.96,1.19,1.09,-1.33,-1.39,-1.35
158.44,-2.45,-1.05,-2.41,-1.01,1.00,1.19,1.10,-1.45,-1.41,-1.40
160.03,-2.51,-1.07,-2.48,-1.04,1.05,1.20,1.10,-1.46,-1.44,-1.44
161.63,-2.51,-1.03,-2.55,-1.08,1.10,1.21,1.10,-1.41,-1.45,-1.48
163.24,-2.65,-1.14,-2.64,-1.13,1.16,1.21,1.11,-1.48,-1.47,-1.51
164.88,-2.73,-1.19,-2.75,-1.21,1.23,1.22,1.12,-1.50,-1.52,-1.54
166.53,-2.91,-1.35,-2.86,-1.30,1.29,1.22,1.12,-1.61,-1.57,-1.56
168.19,-2.96,-1.38,-2.96,-1.38,1.36,1.23,1.13,-1.60,-1.60,-1.58
169.87,-3.01,-1.42,-3.05,-1.47,1.44,1.23,1.14,-1.57,-1.62,-1.58
171.57,-3.15,-1.57,-3.12,-1.53,1.52,1.24,1.15,-1.62,-1.59,-1.58
173.29,-3.19,-1.61,-3.16,-1.57,1.61,1.24,1.16,-1.58,-1.55,-1.58
175.02,-3.19,-1.61,-3.20,-1.63,1.68,1.25,1.17,-1.51,-1.53,-1.58
176.77,-3.19,-1.63,-3.25,-1.69,1.73,1.25,1.19,-1.46,-1.53,-1.56
178.54,-3.37,-1.82,-3.33,-1.79,1.76,1.26,1.20,-1.60,-1.57,-1.55
180.32,-3.42,-1.88,-3.40,-1.87,1.78,1.26,1.21,-1.64,-1.62,-1.53
182.13,-3.42,-1.90,-3.40,-1.88,1.79,1.27,1.23,-1.63,-1.61,-1.52
183.95,-3.33,-1.82,-3.32,-1.81,1.79,1.28,1.24,-1.54,-1.53,-1.51
185.79,-3.20,-1.69,-3.24,-1.74,1.77,1.28,1.26,-1.43,-1.47,-1.51
187.65,-3.19,-1.69,-3.19,-1.69,1.75,1.29,1.28,-1.44,-1.44,-1.50
189.52,-3.19,-1.69,-3.18,-1.67,1.72,1.30,1.29,-1.47,-1.45,-1.50
191.42,-3.19,-1.68,-3.19,-1.68,1.69,1.30,1.31,-1.50,-1.49,-1.50
193.33,-3.19,-1.67,-3.19,-1.68,1.67,1.31,1.33,-1.52,-1.52,-1.52
195.27,-3.19,-1.67,-3.19,-1.67,1.66,1.32,1.35,-1.53,-1.53,-1.52
197.22,-3.19,-1.67,-3.19,-1.66,1.65,1.32,1.37,-1.53,-1.53,-1.52
199.19,-3.19,-1.66,-3.19,-1.66,1.65,1.33,1.39,-1.54,-1.54,-1.53
201.18,-3.19,-1.65,-3.19,-1.65,1.65,1.34,1.42,-1.54,-1.54,-1.54
203.19,-3.19,-1.64,-3.19,-1.64,1.64,1.35,1.44,-1.55,-1.55,-1.55
205.23,-3.19,-1.63,-3.19,-1.62,1.62,1.36,1.46,-1.57,-1.57,-1.56
207.28,-3.19,-1.61,-3.19,-1.61,1.61,1.37,1.48,-1.58,-1.58,-1.58
209.35,-3.19,-1.59,-3.19,-1.59,1.59,1.38,1.50,-1.59,-1.59,-1.60
211.44,-3.19,-1.58,-3.19,-1.58,1.58,1.39,1.53,-1.61,-1.61,-1.61
213.56,-3.19,-1.56,-3.19,-1.56,1.56,1.40,1.55,-1.62,-1.62,-1.63
215.69,-3.19,-1.55,-3.19,-1.55,1.55,1.41,1.57,-1.64,-1.64,-1.64
217.85,-3.19,-1.53,-3.19,-1.54,1.54,1.42,1.59,-1.65,-1.65,-1.65
220.03,-3.19,-1.53,-3.19,-1.52,1.52,1.43,1.62,-1.66,-1.66,-1.66
222.23,-3.19,-1.51,-3.19,-1.51,1.51,1.44,1.64,-1.68,-1.68,-1.68
224.45,-3.19,-1.50,-3.19,-1.50,1.50,1.45,1.66,-1.69,-1.69,-1.69
226.70,-3.19,-1.49,-3.19,-1.49,1.49,1.46,1.68,-1.70,-1.70,-1.70
228.96,-3.19,-1.48,-3.19,-1.48,1.48,1.47,1.70,-1.71,-1.71,-1.71
231.25,-3.19,-1.46,-3.19,-1.47,1.46,1.48,1.71,-1.73,-1.73,-1.73
233.57,-3.19,-1.46,-3.19,-1.46,1.44,1.50,1.73,-1.74,-1.74,-1.73
235.90,-3.19,-1.45,-3.19,-1.45,1.43,1.51,1.75,-1.76,-1.76,-1.74
238.26,-3.19,-1.43,-3.19,-1.44,1.43,1.52,1.76,-1.76,-1.76,-1.75
240.64,-3.19,-1.43,-3.19,-1.43,1.44,1.53,1.77,-1.75,-1.75,-1.76
243.05,-3.19,-1.42,-3.17,-1.40,1.45,1.55,1.78,-1.74,-1.72,-1.76
245.48,-3.19,-1.42,-3.19,-1.42,1.47,1.56,1.79,-1.72,-1.72,-1.77
247.93,-3.19,-1.41,-3.25,-1.48,1.49,1.57,1.80,-1.69,-1.76,-1.77
250.41,-3.38,-1.60,-3.33,-1.55,1.52,1.59,1.81,-1.86,-1.81,-1.78
252.92,-3.42,-1.63,-3.40,-1.61,1.55,1.60,1.81,-1.86,-1.84,-1.78
255.45,-3.42,-1.63,-3.43,-1.65,1.60,1.61,1.82,-1.82,-1.84,-1.79
258.00,-3.42,-1.63,-3.40,-1.61,1.64,1.63,1.82,-1.78,-1.76,-1.79
260.58,-3.42,-1.62,-3.43,-1.63,1.68,1.64,1.82,-1.73,-1.74,-1.80
263.19,-3.43,-1.62,-3.49,-1.68,1.72,1.66,1.82,-1.71,-1.77,-1.81
265.82,-3.62,-1.80,-3.56,-1.75,1.74,1.67,1.81,-1.88,-1.82,-1.81
268.48,-3.64,-1.82,-3.62,-1.80,1.76,1.69,1.81,-1.88,-1.86,-1.82
271.16,-3.64,-1.81,-3.65,-1.83,1.78,1.70,1.80,-1.86,-1.88,-1.83
273.87,-3.64,-1.80,-3.64,-1.80,1.79,1.71,1.80,-1.85,-1.85,-1.83
276.61,-3.64,-1.80,-3.64,-1.80,1.80,1.73,1.79,-1.83,-1.83,-1.84
279.38,-3.64,-1.79,-3.64,-1.79,1.81,1.74,1.79,-1.83,-1.83,-1.85
282.17,-3.64,-1.78,-3.64,-1.78,1.80,1.76,1.78,-1.84,-1.84,-1.85
284.99,-3.64,-1.78,-3.64,-1.78,1.79,1.77,1.77,-1.85,-1.85,-1.86
287.84,-3.64,-1.78,-3.64,-1.78,1.78,1.79,1.76,-1.86,-1.86,-1.86
290.72,-3.64,-1.78,-3.64,-1.78,1.77,1.80,1.75,-1.87,-1.87,-1.86
293.63,-3.64,-1.77,-3.64,-1.77,1.76,1.81,1.74,-1.88,-1.88,-1.87
296.57,-3.64,-1.77,-3.64,-1.77,1.75,1.83,1.74,-1.88,-1.88,-1.87
299.53,-3.64,-1.77,-3.64,-1.76,1.75,1.84,1.73,-1.88,-1.88,-1.87
302.53,-3.64,-1.76,-3.64,-1.76,1.76,1.86,1.72,-1.88,-1.88,-1.88
305.55,-3.64,-1.75,-3.62,-1.74,1.78,1.87,1.71,-1.86,-1.85,-1.88
308.61,-3.64,-1.75,-3.64,-1.75,1.80,1.88,1.71,-1.84,-1.84,-1.89
311.69,-3.64,-1.74,-3.69,-1.79,1.82,1.90,1.70,-1.82,-1.87,-1.90
314.81,-3.79,-1.88,-3.76,-1.85,1.84,1.91,1.70,-1.95,-1.92,-1.91
317.96,-3.86,-1.94,-3.83,-1.90,1.86,1.92,1.69,-1.99,-1.97,-1.92
321.14,-3.87,-1.92,-3.88,-1.93,1.88,1.93,1.69,-1.99,-1.99,-1.94
324.35,-3.87,-1.91,-3.87,-1.92,1.90,1.95,1.69,-1.97,-1.98,-1.96
327.59,-3.87,-1.90,-3.87,-1.90,1.90,1.96,1.69,-1.96,-1.96,-1.97
330.87,-3.87,-1.89,-3.87,-1.89,1.90,1.97,1.69,-1.97,-1.97,-1.98
334.18,-3.87,-1.88,-3.87,-1.88,1.89,1.98,1.69,-1.98,-1.98,-1.99
337.52,-3.87,-1.87,-3.87,-1.87,1.88,1.99,1.70,-1.99,-1.99,-2.00
340.90,-3.87,-1.86,-3.87,-1.86,1.86,2.00,1.70,-2.00,-2.00,-2.00
344.30,-3.87,-1.85,-3.87,-1.85,1.86,2.01,1.71,-2.01,-2.01,-2.02
347.75,-3.87,-1.85,-3.87,-1.85,1.85,2.02,1.71,-2.02,-2.02,-2.02
351.23,-3.87,-1.85,-3.87,-1.85,1.85,2.02,1.72,-2.02,-2.02,-2.02
354.74,-3.87,-1.85,-3.87,-1.85,1.85,2.03,1.73,-2.02,-2.02,-2.02
358.28,-3.87,-1.85,-3.87,-1.85,1.85,2.04,1.75,-2.02,-2.02,-2.02
361.87,-3.87,-1.86,-3.87,-1.85,1.85,2.04,1.76,-2.02,-2.02,-2.01
365.49,-3.87,-1.86,-3.87,-1.85,1.85,2.05,1.77,-2.01,-2.01,-2.01
369.14,-3.87,-1.85,-3.87,-1.86,1.86,2.05,1.79,-2.01,-2.01,-2.01
372.83,-3.87,-1.85,-3.87,-1.86,1.86,2.06,1.81,-2.01,-2.01,-2.01
376.56,-3.87,-1.86,-3.87,-1.86,1.86,2.06,1.82,-2.01,-2.01,-2.01
380.33,-3.87,-1.86,-3.87,-1.86,1.86,2.06,1.84,-2.01,-2.01,-2.01
384.13,-3.87,-1.86,-3.87,-1.86,1.86,2.07,1.86,-2.01,-2.01,-2.01
387.97,-3.87,-1.86,-3.87,-1.86,1.86,2.07,1.89,-2.01,-2.01,-2.01
391.85,-3.87,-1.86,-3.87,-1.86,1.86,2.07,1.91,-2.01,-2.01,-2.01
395.77,-3.87,-1.86,-3.87,-1.86,1.86,2.06,1.93,-2.00,-2.00,-2.01
399.73,-3.87,-1.87,-3.87,-1.86,1.86,2.06,1.95,-2.00,-2.00,-2.00
403.72,-3.87,-1.87,-3.87,-1.87,1.86,2.06,1.98,-2.00,-2.00,-2.00
407.76,-3.87,-1.87,-3.87,-1.87,1.86,2.06,2.00,-2.00,-2.00,-2.00
411.84,-3.87,-1.87,-3.87,-1.87,1.87,2.05,2.03,-2.00,-2.00,-2.00
415.96,-3.87,-1.86,-3.87,-1.86,1.87,2.04,2.05,-2.00,-2.00,-2.00
420.12,-3.87,-1.86,-3.87,-1.86,1.87,2.04,2.08,-2.00,-2.00,-2.00
424.32,-3.87,-1.86,-3.87,-1.86,1.86,2.03,2.10,-2.00,-2.00,-2.00
428.56,-3.87,-1.86,-3.87,-1.86,1.86,2.02,2.13,-2.01,-2.01,-2.00
432.85,-3.87,-1.86,-3.87,-1.86,1.86,2.01,2.15,-2.01,-2.01,-2.01
437.18,-3.87,-1.86,-3.87,-1.86,1.86,2.00,2.17,-2.01,-2.01,-2.01
