frequency,raw,error,smoothed,error_smoothed,equalization,parametric_eq,fixed_band_eq,equalized_raw,equalized_smoothed,target
20.00,15.07,11.30,15.07,11.30,-11.30,-11.28,-5.81,3.78,3.78,3.78
20.20,15.08,11.34,15.08,11.33,-11.33,-11.30,-5.96,3.75,3.75,3.75
20.40,15.09,11.37,15.09,11.37,-11.37,-11.33,-6.11,3.73,3.73,3.73
20.61,15.10,11.40,15.10,11.40,-11.40,-11.36,-6.26,3.70,3.70,3.71
20.81,15.11,11.43,15.11,11.43,-11.43,-11.39,-6.42,3.68,3.68,3.69
21.02,15.12,11.46,15.12,11.46,-11.46,-11.42,-6.58,3.66,3.66,3.67
21.23,15.13,11.49,15.13,11.49,-11.49,-11.44,-6.75,3.64,3.64,3.65
21.44,15.14,11.52,15.14,11.52,-11.52,-11.47,-6.92,3.63,3.63,3.63
21.66,15.15,11.55,15.15,11.55,-11.54,-11.50,-7.10,3.61,3.61,3.61
21.87,15.16,11.57,15.16,11.57,-11.57,-11.52,-7.28,3.59,3.59,3.60
22.09,15.17,11.60,15.17,11.60,-11.59,-11.55,-7.46,3.58,3.58,3.58
22.31,15.18,11.62,15.18,11.62,-11.62,-11.57,-7.66,3.57,3.57,3.57
22.54,15.19,11.64,15.19,11.64,-11.64,-11.59,-7.85,3.56,3.56,3.56
22.76,15.20,11.66,15.20,11.66,-11.66,-11.62,-8.05,3.54,3.54,3.55
22.99,15.21,11.68,15.21,11.68,-11.68,-11.64,-8.26,3.53,3.53,3.54
23.22,15.22,11.70,15.22,11.70,-11.70,-11.66,-8.48,3.52,3.52,3.53
23.45,15.23,11.72,15.23,11.72,-11.72,-11.68,-8.70,3.51,3.52,3.52
23.69,15.24,11.74,15.25,11.74,-11.74,-11.71,-8.92,3.51,3.51,3.51
23.92,15.26,11.76,15.26,11.76,-11.76,-11.73,-9.15,3.51,3.51,3.51
24.16,15.27,11.78,15.27,11.77,-11.77,-11.75,-9.39,3.50,3.50,3.50
24.40,15.28,11.79,15.29,11.79,-11.79,-11.77,-9.63,3.50,3.50,3.50
24.65,15.29,11.81,15.29,11.80,-11.80,-11.79,-9.88,3.49,3.49,3.49
24.89,15.30,11.82,15.30,11.82,-11.82,-11.80,-10.14,3.49,3.48,3.49
25.14,15.30,11.83,15.31,11.83,-11.83,-11.82,-10.40,3.47,3.48,3.48
25.39,15.31,11.84,15.31,11.84,-11.84,-11.84,-10.66,3.47,3.47,3.48
25.65,15.32,11.86,15.32,11.86,-11.86,-11.86,-10.93,3.47,3.47,3.47
25.91,15.33,11.87,15.33,11.87,-11.87,-11.88,-11.21,3.47,3.47,3.47
26.16,15.34,11.89,15.34,11.88,-11.88,-11.89,-11.49,3.46,3.46,3.46
26.43,15.34,11.89,15.35,11.89,-11.89,-11.91,-11.78,3.45,3.45,3.46
26.69,15.35,11.91,15.35,11.90,-11.91,-11.92,-12.06,3.45,3.45,3.45
26.96,15.36,11.92,15.36,11.92,-11.92,-11.94,-12.35,3.45,3.45,3.45
27.23,15.37,11.93,15.37,11.93,-11.93,-11.95,-12.64,3.44,3.44,3.45
27.50,15.38,11.95,15.38,11.94,-11.94,-11.97,-12.93,3.44,3.44,3.44
27.77,15.38,11.95,15.39,11.95,-11.95,-11.98,-13.22,3.43,3.43,3.44
28.05,15.39,11.97,15.39,11.96,-11.97,-11.99,-13.50,3.43,3.43,3.43
28.33,15.40,11.98,15.40,11.98,-11.98,-12.01,-13.78,3.43,3.43,3.43
28.62,15.41,11.99,15.41,11.99,-11.99,-12.02,-14.05,3.43,3.43,3.43
28.90,15.42,12.01,15.42,12.00,-12.00,-12.03,-14.31,3.43,3.42,3.42
29.19,15.42,12.01,15.43,12.01,-12.01,-12.04,-14.55,3.42,3.42,3.42
29.48,15.43,12.02,15.43,12.02,-12.02,-12.05,-14.77,3.42,3.42,3.42
29.78,15.44,12.03,15.44,12.02,-12.03,-12.06,-14.97,3.42,3.41,3.42
30.08,15.44,12.03,15.45,12.03,-12.04,-12.07,-15.15,3.41,3.41,3.42
30.38,15.45,12.04,15.45,12.04,-12.04,-12.08,-15.30,3.41,3.41,3.42
30.68,15.46,12.06,15.46,12.05,-12.05,-12.09,-15.42,3.41,3.41,3.41
30.99,15.47,12.07,15.47,12.07,-12.06,-12.09,-15.51,3.41,3.41,3.41
31.30,15.48,12.08,15.48,12.08,-12.07,-12.10,-15.56,3.41,3.41,3.41
31.61,15.48,12.08,15.49,12.08,-12.08,-12.11,-15.59,3.40,3.40,3.41
31.93,15.49,12.10,15.49,12.09,-12.09,-12.12,-15.58,3.40,3.40,3.40
32.24,15.49,12.10,15.50,12.10,-12.10,-12.12,-15.54,3.39,3.39,3.40
32.57,15.50,12.12,15.50,12.11,-12.11,-12.13,-15.47,3.39,3.39,3.39
32.89,15.50,12.12,15.51,12.12,-12.12,-12.13,-15.38,3.38,3.38,3.39
33.22,15.51,12.13,15.52,12.13,-12.13,-12.14,-15.26,3.38,3.38,3.39
33.55,15.52,12.14,15.52,12.14,-12.14,-12.14,-15.13,3.38,3.38,3.39
33.89,15.53,12.16,15.53,12.15,-12.15,-12.14,-14.98,3.38,3.38,3.38
34.23,15.53,12.16,15.53,12.16,-12.16,-12.15,-14.81,3.38,3.38,3.38
34.57,15.53,12.17,15.54,12.17,-12.16,-12.15,-14.64,3.37,3.37,3.37
34.92,15.53,12.17,15.53,12.17,-12.16,-12.15,-14.46,3.37,3.37,3.37
35.27,15.53,12.17,15.53,12.17,-12.17,-12.15,-14.27,3.37,3.37,3.37
35.62,15.52,12.16,15.53,12.16,-12.16,-12.15,-14.08,3.36,3.36,3.37
35.97,15.52,12.17,15.52,12.16,-12.16,-12.15,-13.90,3.36,3.36,3.36
36.33,15.51,12.16,15.52,12.16,-12.16,-12.15,-13.71,3.36,3.36,3.36
36.70,15.51,12.16,15.51,12.15,-12.15,-12.15,-13.52,3.36,3.36,3.36
37.06,15.50,12.15,15.50,12.15,-12.15,-12.15,-13.34,3.35,3.35,3.36
37.43,15.49,12.14,15.50,12.14,-12.15,-12.15,-13.17,3.35,3.35,3.36
37.81,15.48,12.14,15.49,12.14,-12.14,-12.15,-13.00,3.34,3.35,3.35
38.19,15.48,12.14,15.48,12.14,-12.14,-12.15,-12.84,3.35,3.34,3.35
38.57,15.47,12.14,15.47,12.13,-12.13,-12.14,-12.68,3.34,3.34,3.34
38.95,15.46,12.13,15.46,12.13,-12.13,-12.14,-12.53,3.34,3.34,3.34
39.34,15.45,12.13,15.45,12.12,-12.12,-12.14,-12.39,3.33,3.33,3.33
39.74,15.44,12.12,15.44,12.12,-12.12,-12.13,-12.26,3.33,3.33,3.33
40.14,15.43,12.11,15.43,12.11,-12.11,-12.13,-12.13,3.33,3.32,3.33
40.54,15.41,12.10,15.42,12.10,-12.10,-12.12,-12.01,3.32,3.32,3.32
40.94,15.40,12.09,15.41,12.09,-12.09,-12.11,-11.90,3.32,3.32,3.32
41.35,15.39,12.08,15.39,12.08,-12.07,-12.11,-11.80,3.32,3.32,3.32
41.76,15.38,12.07,15.38,12.06,-12.06,-12.10,-11.71,3.32,3.32,3.32
42.18,15.36,12.04,15.37,12.04,-12.04,-12.09,-11.63,3.32,3.32,3.33
42.60,15.35,12.03,15.35,12.03,-12.03,-12.09,-11.55,3.33,3.33,3.33
43.03,15.34,12.02,15.34,12.01,-12.01,-12.08,-11.48,3.33,3.33,3.33
43.46,15.32,12.00,15.32,12.00,-12.00,-12.07,-11.43,3.33,3.33,3.33
43.90,15.30,11.98,15.31,11.98,-11.98,-12.06,-11.37,3.32,3.33,3.33
44.33,15.29,11.96,15.29,11.96,-11.97,-12.05,-11.33,3.33,3.33,3.34
44.78,15.28,11.95,15.29,11.95,-11.96,-12.04,-11.30,3.33,3.33,3.34
45.23,15.28,11.95,15.28,11.94,-11.94,-12.03,-11.27,3.34,3.34,3.34
45.68,15.27,11.94,15.27,11.94,-11.93,-12.02,-11.25,3.34,3.34,3.34
46.13,15.26,11.93,15.26,11.93,-11.92,-12.00,-11.24,3.34,3.34,3.34
46.60,15.24,11.92,15.25,11.92,-11.91,-11.99,-11.24,3.33,3.33,3.33
47.06,15.23,11.91,15.23,11.90,-11.90,-11.98,-11.24,3.33,3.33,3.33
47.53,15.21,11.89,15.22,11.89,-11.89,-11.96,-11.25,3.32,3.32,3.33
48.01,15.20,11.88,15.20,11.88,-11.88,-11.95,-11.27,3.32,3.32,3.33
48.49,15.18,11.87,15.18,11.86,-11.86,-11.94,-11.30,3.32,3.32,3.32
48.97,15.16,11.85,15.17,11.85,-11.85,-11.92,-11.33,3.32,3.32,3.32
49.46,15.15,11.84,15.15,11.83,-11.83,-11.91,-11.37,3.32,3.32,3.32
49.96,15.13,11.82,15.13,11.81,-11.81,-11.89,-11.41,3.32,3.32,3.32
50.46,15.11,11.79,15.12,11.79,-11.79,-11.87,-11.46,3.32,3.32,3.33
50.96,15.09,11.77,15.10,11.77,-11.77,-11.86,-11.52,3.32,3.32,3.33
51.47,15.08,11.76,15.08,11.75,-11.76,-11.84,-11.58,3.33,3.32,3.33
51.99,15.06,11.74,15.07,11.74,-11.74,-11.82,-11.64,3.32,3.33,3.33
52.51,15.05,11.72,15.05,11.72,-11.73,-11.80,-11.71,3.33,3.33,3.34
53.03,15.04,11.71,15.04,11.71,-11.71,-11.78,-11.78,3.33,3.33,3.34
53.56,15.03,11.70,15.04,11.70,-11.70,-11.76,-11.85,3.33,3.34,3.34
54.10,15.03,11.70,15.03,11.69,-11.69,-11.74,-11.92,3.34,3.34,3.34
54.64,15.02,11.69,15.02,11.68,-11.68,-11.72,-12.00,3.35,3.34,3.34
55.18,15.00,11.66,15.01,11.67,-11.66,-11.70,-12.07,3.34,3.35,3.35
55.74,14.99,11.65,14.99,11.65,-11.64,-11.68,-12.14,3.35,3.35,3.35
56.29,14.97,11.63,14.97,11.62,-11.62,-11.66,-12.21,3.35,3.35,3.35
56.86,14.95,11.60,14.95,11.60,-11.60,-11.64,-12.27,3.36,3.35,3.36
57.42,14.92,11.57,14.93,11.57,-11.57,-11.61,-12.33,3.35,3.36,3.36
58.00,14.90,11.55,14.90,11.54,-11.54,-11.59,-12.38,3.36,3.36,3.36
58.58,14.87,11.52,14.87,11.51,-11.51,-11.56,-12.43,3.36,3.36,3.36
59.16,14.84,11.48,14.85,11.48,-11.48,-11.54,-12.47,3.36,3.36,3.37
59.76,14.81,11.45,14.82,11.45,-11.45,-11.52,-12.49,3.36,3.36,3.37
60.35,14.79,11.43,14.79,11.42,-11.42,-11.49,-12.51,3.37,3.36,3.37
60.96,14.76,11.39,14.77,11.39,-11.40,-11.46,-12.52,3.36,3.37,3.38
61.57,14.74,11.37,14.75,11.37,-11.38,-11.44,-12.51,3.37,3.37,3.38
62.18,14.73,11.36,14.73,11.35,-11.36,-11.41,-12.49,3.38,3.37,3.38
62.80,14.71,11.34,14.72,11.34,-11.34,-11.38,-12.46,3.37,3.38,3.38
63.43,14.70,11.33,14.70,11.32,-11.32,-11.35,-12.42,3.38,3.38,3.38
64.07,14.68,11.31,14.68,11.31,-11.30,-11.33,-12.36,3.38,3.38,3.38
64.71,14.66,11.29,14.67,11.29,-11.28,-11.30,-12.30,3.38,3.38,3.38
65.35,14.64,11.27,14.64,11.27,-11.26,-11.27,-12.22,3.39,3.38,3.38
66.01,14.61,11.24,14.61,11.24,-11.23,-11.24,-12.13,3.38,3.38,3.38
66.67,14.58,11.21,14.58,11.20,-11.20,-11.21,-12.03,3.38,3.38,3.38
67.33,14.54,11.17,14.54,11.17,-11.17,-11.18,-11.92,3.37,3.37,3.38
68.01,14.50,11.13,14.51,11.13,-11.14,-11.15,-11.81,3.37,3.37,3.38
68.69,14.47,11.10,14.47,11.10,-11.11,-11.11,-11.68,3.37,3.37,3.38
69.37,14.44,11.07,14.45,11.07,-11.07,-11.08,-11.56,3.37,3.37,3.38
70.07,14.42,11.05,14.42,11.04,-11.04,-11.05,-11.43,3.38,3.38,3.38
70.77,14.39,11.02,14.39,11.02,-11.01,-11.02,-11.29,3.38,3.38,3.38
71.48,14.36,10.99,14.36,10.98,-10.98,-10.98,-11.16,3.38,3.38,3.38
72.19,14.33,10.95,14.33,10.95,-10.95,-10.95,-11.02,3.38,3.38,3.39
72.91,14.30,10.92,14.30,10.92,-10.92,-10.91,-10.88,3.38,3.38,3.39
73.64,14.27,10.89,14.27,10.88,-10.89,-10.88,-10.74,3.39,3.39,3.39
74.38,14.24,10.85,14.24,10.85,-10.85,-10.84,-10.61,3.39,3.39,3.40
75.12,14.21,10.82,14.21,10.82,-10.81,-10.81,-10.47,3.40,3.40,3.40
75.87,14.18,10.79,14.18,10.78,-10.78,-10.77,-10.34,3.41,3.40,3.40
76.63,14.14,10.74,14.15,10.74,-10.74,-10.73,-10.22,3.40,3.41,3.41
77.40,14.11,10.71,14.11,10.70,-10.70,-10.69,-10.09,3.41,3.41,3.41
78.17,14.07,10.66,14.08,10.66,-10.67,-10.66,-9.98,3.41,3.41,3.42
78.95,14.04,10.63,14.04,10.62,-10.63,-10.62,-9.86,3.42,3.41,3.42
79.74,14.00,10.59,14.01,10.59,-10.59,-10.58,-9.75,3.41,3.42,3.42
80.54,13.97,10.55,13.97,10.55,-10.55,-10.54,-9.65,3.42,3.42,3.43
81.35,13.94,10.52,13.94,10.51,-10.51,-10.50,-9.55,3.43,3.43,3.43
82.16,13.90,10.48,13.90,10.48,-10.47,-10.46,-9.46,3.43,3.43,3.43
82.98,13.86,10.44,13.86,10.44,-10.44,-10.42,-9.37,3.43,3.43,3.43
83.81,13.82,10.40,13.82,10.40,-10.40,-10.38,-9.29,3.43,3.43,3.43
84.65,13.78,10.36,13.79,10.36,-10.36,-10.34,-9.22,3.43,3.43,3.43
85.50,13.75,10.32,13.75,10.32,-10.32,-10.30,-9.15,3.43,3.43,3.44
86.35,13.71,10.28,13.71,10.28,-10.28,-10.25,-9.09,3.43,3.43,3.44
87.22,13.67,10.24,13.68,10.24,-10.24,-10.21,-9.04,3.43,3.43,3.44
88.09,13.64,10.21,13.64,10.20,-10.21,-10.17,-8.99,3.44,3.43,3.44
88.97,13.60,10.17,13.61,10.17,-10.17,-10.12,-8.95,3.43,3.44,3.44
89.86,13.57,10.14,13.57,10.13,-10.13,-10.08,-8.91,3.44,3.44,3.44
90.76,13.53,10.10,13.53,10.10,-10.09,-10.04,-8.88,3.44,3.44,3.44
91.66,13.49,10.06,13.49,10.06,-10.06,-9.99,-8.86,3.44,3.44,3.44
92.58,13.45,10.02,13.45,10.02,-10.02,-9.95,-8.84,3.44,3.44,3.44
93.51,13.41,9.98,13.41,9.98,-9.98,-9.90,-8.83,3.44,3.43,3.44
94.44,13.37,9.94,13.37,9.94,-9.94,-9.85,-8.82,3.44,3.43,3.44
95.39,13.32,9.89,13.33,9.89,-9.90,-9.81,-8.83,3.43,3.44,3.44
96.34,13.29,9.86,13.29,9.85,-9.85,-9.76,-8.83,3.44,3.44,3.44
97.30,13.25,9.81,13.25,9.81,-9.80,-9.71,-8.84,3.45,3.45,3.45
98.28,13.21,9.77,13.21,9.77,-9.76,-9.67,-8.86,3.46,3.45,3.45
99.26,13.16,9.72,13.16,9.72,-9.71,-9.62,-8.88,3.45,3.45,3.45
100.25,13.11,9.67,13.11,9.66,-9.67,-9.57,-8.91,3.45,3.44,3.45
101.25,13.05,9.61,13.06,9.61,-9.62,-9.52,-8.94,3.43,3.43,3.45
102.27,13.00,9.56,13.01,9.57,-9.58,-9.47,-8.97,3.42,3.43,3.45
103.29,12.98,9.54,12.98,9.53,-9.54,-9.42,-9.01,3.45,3.44,3.45
104.32,12.95,9.50,12.95,9.50,-9.49,-9.37,-9.05,3.46,3.46,3.46
105.37,12.91,9.46,12.91,9.46,-9.44,-9.32,-9.09,3.47,3.47,3.46
106.42,12.86,9.41,12.87,9.41,-9.39,-9.27,-9.13,3.47,3.47,3.46
107.48,12.81,9.35,12.81,9.35,-9.34,-9.22,-9.18,3.47,3.47,3.47
108.56,12.75,9.29,12.75,9.28,-9.29,-9.17,-9.22,3.47,3.46,3.47
109.64,12.68,9.22,12.69,9.22,-9.23,-9.12,-9.27,3.46,3.46,3.47
110.74,12.62,9.16,12.63,9.16,-9.17,-9.07,-9.31,3.46,3.46,3.47
111.85,12.58,9.11,12.58,9.10,-9.11,-9.02,-9.35,3.48,3.47,3.48
112.97,12.52,9.05,12.52,9.04,-9.05,-8.97,-9.39,3.48,3.47,3.48
114.10,12.46,8.99,12.46,8.99,-8.99,-8.91,-9.42,3.48,3.48,3.48
115.24,12.39,8.92,12.41,8.93,-8.93,-8.86,-9.45,3.46,3.48,3.48
116.39,12.36,8.89,12.36,8.88,-8.88,-8.81,-9.48,3.49,3.48,3.48
117.55,12.31,8.83,12.30,8.82,-8.82,-8.75,-9.49,3.49,3.48,3.49
118.73,12.24,8.76,12.25,8.77,-8.77,-8.70,-9.51,3.48,3.49,3.49
119.92,12.19,8.71,12.20,8.71,-8.71,-8.65,-9.51,3.48,3.49,3.49
121.12,12.15,8.66,12.15,8.66,-8.66,-8.59,-9.50,3.50,3.50,3.50
122.33,12.11,8.62,12.11,8.61,-8.61,-8.54,-9.49,3.51,3.50,3.50
123.55,12.06,8.56,12.06,8.55,-8.55,-8.48,-9.47,3.51,3.50,3.51
124.79,11.99,8.49,12.00,8.49,-8.50,-8.43,-9.44,3.49,3.50,3.51
126.03,11.94,8.44,11.95,8.44,-8.45,-8.37,-9.39,3.50,3.51,3.51
127.29,11.91,8.40,11.91,8.40,-8.39,-8.32,-9.34,3.52,3.52,3.52
128.57,11.87,8.36,11.86,8.34,-8.34,-8.26,-9.28,3.54,3.53,3.52
129.85,11.80,8.28,11.81,8.28,-8.28,-8.20,-9.21,3.52,3.53,3.53
131.15,11.73,8.21,11.75,8.22,-8.22,-8.15,-9.13,3.51,3.52,3.53
132.46,11.69,8.17,11.69,8.16,-8.17,-8.09,-9.05,3.53,3.52,3.53
133.79,11.63,8.11,11.63,8.11,-8.11,-8.04,-8.95,3.52,3.52,3.53
135.12,11.57,8.05,11.58,8.05,-8.05,-7.98,-8.85,3.53,3.53,3.53
136.48,11.52,8.00,11.52,7.99,-7.98,-7.92,-8.74,3.54,3.53,3.53
137.84,11.45,7.92,11.46,7.93,-7.92,-7.86,-8.63,3.53,3.54,3.54
139.22,11.40,7.87,11.40,7.86,-7.85,-7.81,-8.51,3.55,3.54,3.54
140.61,11.33,7.80,11.32,7.79,-7.79,-7.75,-8.39,3.55,3.54,3.54
142.02,11.23,7.70,11.25,7.71,-7.72,-7.69,-8.27,3.52,3.53,3.54
143.44,11.18,7.65,11.18,7.64,-7.65,-7.63,-8.14,3.54,3.53,3.54
144.87,11.10,7.56,11.11,7.57,-7.58,-7.57,-8.02,3.53,3.53,3.55
146.32,11.06,7.52,11.06,7.51,-7.51,-7.52,-7.89,3.56,3.55,3.55
147.78,10.99,7.45,10.99,7.44,-7.44,-7.46,-7.76,3.55,3.55,3.55
149.26,10.93,7.38,10.93,7.38,-7.37,-7.40,-7.63,3.56,3.56,3.56
150.75,10.85,7.30,10.86,7.30,-7.30,-7.34,-7.50,3.55,3.55,3.56
152.26,10.79,7.24,10.80,7.24,-7.24,-7.28,-7.38,3.56,3.56,3.56
153.78,10.73,7.17,10.73,7.17,-7.17,-7.22,-7.25,3.57,3.56,3.57
155.32,10.67,7.11,10.67,7.10,-7.09,-7.16,-7.13,3.58,3.58,3.57
156.88,10.59,7.03,10.60,7.03,-7.02,-7.10,-7.01,3.57,3.57,3.57
158.44,10.53,6.96,10.52,6.95,-6.95,-7.04,-6.90,3.58,3.57,3.58
160.03,10.44,6.87,10.46,6.88,-6.89,-6.98,-6.78,3.56,3.57,3.58
161.63,10.39,6.82,10.39,6.82,-6.82,-6.92,-6.67,3.57,3.57,3.58
163.24,10.34,6.77,10.33,6.75,-6.76,-6.86,-6.57,3.58,3.57,3.58
164.88,10.26,6.69,10.28,6.70,-6.70,-6.80,-6.47,3.57,3.58,3.58
166.53,10.21,6.63,10.22,6.64,-6.64,-6.74,-6.37,3.58,3.59,3.59
168.19,10.18,6.60,10.17,6.58,-6.58,-6.68,-6.28,3.60,3.59,3.59
169.87,10.12,6.54,10.12,6.53,-6.52,-6.62,-6.19,3.60,3.60,3.59
171.57,10.06,6.47,10.07,6.47,-6.47,-6.56,-6.10,3.60,3.60,3.60
173.29,10.01,6.42,10.01,6.41,-6.42,-6.50,-6.02,3.60,3.59,3.60
175.02,9.95,6.36,9.96,6.36,-6.37,-6.44,-5.95,3.59,3.59,3.60
176.77,9.91,6.32,9.91,6.31,-6.32,-6.38,-5.87,3.59,3.59,3.60
178.54,9.87,6.27,9.87,6.27,-6.28,-6.32,-5.81,3.59,3.59,3.61
180.32,9.84,6.24,9.84,6.24,-6.25,-6.26,-5.74,3.60,3.60,3.61
182.13,9.81,6.21,9.81,6.20,-6.21,-6.20,-5.68,3.60,3.60,3.61
183.95,9.78,6.18,9.79,6.18,-6.18,-6.14,-5.63,3.61,3.61,3.61
185.79,9.75,6.16,9.76,6.16,-6.15,-6.08,-5.58,3.61,3.61,3.60
187.65,9.73,6.14,9.72,6.13,-6.11,-6.02,-5.53,3.62,3.61,3.60
189.52,9.68,6.09,9.69,6.09,-6.08,-5.96,-5.49,3.60,3.61,3.60
191.42,9.64,6.05,9.65,6.05,-6.04,-5.89,-5.45,3.60,3.60,3.60
193.33,9.60,6.00,9.60,6.00,-6.01,-5.83,-5.41,3.59,3.59,3.61
195.27,9.56,5.96,9.57,5.96,-5.97,-5.77,-5.38,3.59,3.59,3.61
197.22,9.53,5.93,9.53,5.93,-5.94,-5.71,-5.35,3.60,3.60,3.61
199.19,9.50,5.90,9.51,5.90,-5.90,-5.65,-5.32,3.60,3.61,3.61
201.18,9.48,5.87,9.48,5.87,-5.86,-5.59,-5.30,3.62,3.62,3.62
203.19,9.45,5.84,9.45,5.83,-5.82,-5.53,-5.28,3.63,3.63,3.62
205.23,9.41,5.80,9.41,5.79,-5.78,-5.47,-5.26,3.63,3.63,3.62
207.28,9.36,5.74,9.37,5.75,-5.74,-5.41,-5.24,3.62,3.63,3.63
209.35,9.32,5.70,9.32,5.69,-5.70,-5.34,-5.23,3.63,3.62,3.63
211.44,9.27,5.65,9.27,5.64,-5.65,-5.28,-5.21,3.62,3.62,3.63
213.56,9.22,5.59,9.22,5.59,-5.60,-5.22,-5.20,3.62,3.62,3.64
215.69,9.17,5.54,9.17,5.54,-5.55,-5.16,-5.19,3.62,3.63,3.64
217.85,9.12,5.49,9.13,5.50,-5.49,-5.10,-5.17,3.63,3.64,3.64
220.03,9.09,5.46,9.09,5.45,-5.44,-5.04,-5.16,3.66,3.65,3.64
222.23,9.04,5.40,9.03,5.39,-5.38,-4.98,-5.15,3.67,3.66,3.65
224.45,8.96,5.32,8.96,5.32,-5.31,-4.92,-5.14,3.65,3.65,3.65
226.70,8.88,5.24,8.89,5.24,-5.24,-4.85,-5.12,3.64,3.65,3.65
228.96,8.80,5.16,8.81,5.17,-5.17,-4.79,-5.10,3.63,3.65,3.65
231.25,8.75,5.10,8.74,5.09,-5.09,-4.73,-5.08,3.66,3.65,3.66
233.57,8.67,5.02,8.67,5.01,-5.02,-4.67,-5.06,3.66,3.65,3.66
235.90,8.58,4.92,8.60,4.93,-4.94,-4.61,-5.04,3.64,3.66,3.67
238.26,8.53,4.87,8.53,4.86,-4.86,-4.55,-5.01,3.67,3.67,3.67
240.64,8.46,4.79,8.47,4.79,-4.78,-4.49,-4.98,3.68,3.68,3.68
243.05,8.40,4.72,8.40,4.71,-4.71,-4.43,-4.94,3.70,3.69,3.69
245.48,8.32,4.64,8.32,4.63,-4.63,-4.37,-4.90,3.70,3.69,3.69
247.93,8.23,4.54,8.24,4.55,-4.55,-4.31,-4.86,3.68,3.70,3.70
250.41,8.17,4.47,8.17,4.46,-4.47,-4.25,-4.81,3.70,3.70,3.71
252.92,8.09,4.38,8.10,4.38,-4.39,-4.19,-4.76,3.70,3.71,3.72
255.45,8.02,4.31,8.03,4.31,-4.31,-4.12,-4.70,3.72,3.72,3.72
258.00,7.96,4.24,7.96,4.23,-4.23,-4.06,-4.64,3.74,3.73,3.73
260.58,7.87,4.15,7.88,4.15,-4.14,-4.00,-4.57,3.73,3.74,3.73
263.19,7.81,4.08,7.80,4.07,-4.06,-3.94,-4.50,3.75,3.74,3.74
265.82,7.71,3.98,7.72,3.98,-3.98,-3.88,-4.43,3.73,3.74,3.74
268.48,7.63,3.89,7.64,3.89,-3.90,-3.82,-4.35,3.74,3.74,3.75
271.16,7.56,3.82,7.56,3.81,-3.82,-3.76,-4.27,3.75,3.74,3.75
273.87,7.47,3.73,7.48,3.73,-3.74,-3.70,-4.19,3.74,3.75,3.75
276.61,7.41,3.66,7.41,3.66,-3.66,-3.64,-4.10,3.76,3.75,3.76
279.38,7.34,3.59,7.34,3.58,-3.58,-3.58,-4.01,3.76,3.76,3.76
282.17,7.26,3.51,7.27,3.51,-3.51,-3.52,-3.92,3.76,3.76,3.76
284.99,7.20,3.44,7.20,3.43,-3.44,-3.46,-3.82,3.77,3.76,3.77
287.84,7.12,3.36,7.13,3.36,-3.37,-3.40,-3.73,3.76,3.76,3.77
290.72,7.06,3.30,7.06,3.29,-3.30,-3.34,-3.63,3.77,3.76,3.77
293.63,6.99,3.23,6.99,3.23,-3.23,-3.28,-3.53,3.77,3.76,3.77
296.57,6.92,3.16,6.93,3.17,-3.16,-3.22,-3.43,3.76,3.77,3.77
299.53,6.87,3.11,6.87,3.10,-3.09,-3.16,-3.33,3.78,3.78,3.77
302.53,6.80,3.03,6.80,3.02,-3.02,-3.10,-3.23,3.78,3.78,3.78
305.55,6.72,2.95,6.73,2.95,-2.95,-3.04,-3.13,3.77,3.78,3.78
308.61,6.65,2.87,6.66,2.87,-2.88,-2.98,-3.03,3.77,3.78,3.79
311.69,6.59,2.81,6.59,2.81,-2.81,-2.92,-2.94,3.79,3.79,3.79
314.81,6.53,2.74,6.53,2.73,-2.73,-2.86,-2.84,3.80,3.80,3.80
317.96,6.46,2.67,6.46,2.66,-2.65,-2.80,-2.74,3.81,3.80,3.80
321.14,6.37,2.57,6.38,2.58,-2.58,-2.74,-2.64,3.80,3.80,3.81
324.35,6.30,2.50,6.30,2.50,-2.50,-2.68,-2.55,3.81,3.81,3.81
327.59,6.22,2.42,6.23,2.42,-2.42,-2.62,-2.45,3.80,3.81,3.81
330.87,6.16,2.35,6.16,2.34,-2.34,-2.56,-2.36,3.82,3.82,3.82
334.18,6.08,2.27,6.08,2.26,-2.26,-2.50,-2.27,3.82,3.82,3.82
337.52,5.99,2.17,6.00,2.18,-2.18,-2.44,-2.17,3.81,3.82,3.83
340.90,5.93,2.10,5.93,2.10,-2.11,-2.38,-2.08,3.83,3.83,3.84
344.30,5.86,2.03,5.86,2.03,-2.03,-2.32,-2.00,3.83,3.83,3.84
347.75,5.80,1.97,5.80,1.96,-1.96,-2.26,-1.91,3.85,3.84,3.84
351.23,5.72,1.89,5.72,1.88,-1.88,-2.20,-1.82,3.84,3.84,3.84
354.74,5.65,1.81,5.65,1.81,-1.81,-2.14,-1.74,3.84,3.84,3.85
358.28,5.57,1.73,5.58,1.74,-1.74,-2.08,-1.65,3.83,3.84,3.85
361.87,5.52,1.68,5.51,1.67,-1.67,-2.02,-1.57,3.85,3.84,3.85
365.49,5.44,1.60,5.45,1.60,-1.60,-1.96,-1.49,3.84,3.85,3.85
369.14,5.37,1.53,5.38,1.53,-1.53,-1.90,-1.41,3.85,3.85,3.85
372.83,5.31,1.47,5.31,1.46,-1.46,-1.84,-1.33,3.86,3.85,3.85
376.56,5.24,1.39,5.24,1.39,-1.39,-1.78,-1.25,3.85,3.86,3.86
380.33,5.17,1.32,5.18,1.32,-1.32,-1.72,-1.18,3.85,3.86,3.86
384.13,5.11,1.26,5.11,1.25,-1.25,-1.65,-1.10,3.86,3.85,3.86
387.97,5.03,1.18,5.04,1.18,-1.18,-1.59,-1.03,3.85,3.86,3.86
391.85,4.97,1.11,4.98,1.11,-1.11,-1.53,-0.95,3.86,3.86,3.87
395.77,4.91,1.05,4.91,1.04,-1.04,-1.47,-0.88,3.87,3.87,3.87
399.73,4.85,0.98,4.85,0.98,-0.97,-1.41,-0.81,3.88,3.88,3.88
403.72,4.78,0.91,4.78,0.91,-0.90,-1.35,-0.74,3.88,3.88,3.88
407.76,4.71,0.83,4.72,0.83,-0.83,-1.28,-0.67,3.88,3.88,3.89
411.84,4.65,0.77,4.65,0.76,-0.76,-1.22,-0.60,3.89,3.89,3.89
415.96,4.59,0.70,4.59,0.70,-0.70,-1.16,-0.54,3.90,3.89,3.90
420.12,4.52,0.63,4.52,0.63,-0.63,-1.10,-0.47,3.90,3.90,3.90
424.32,4.45,0.56,4.46,0.56,-0.56,-1.03,-0.40,3.89,3.90,3.90
428.56,4.39,0.49,4.39,0.49,-0.49,-0.97,-0.34,3.90,3.90,3.91
432.85,4.33,0.43,4.33,0.42,-0.43,-0.91,-0.27,3.91,3.90,3.91
437.18,4.26,0.36,4.27,0.36,-0.36,-0.84,-0.21,3.90,3.91,3.91
441.55,4.21,0.31,4.21,0.30,-0.30,-0.78,-0.15,3.92,3.91,3.91
445.96,4.15,0.25,4.15,0.24,-0.24,-0.72,-0.09,3.92,3.91,3.91
450.42,4.07,0.17,4.08,0.17,-0.17,-0.65,-0.03,3.90,3.91,3.91
