frequency,raw,error,smoothed,error_smoothed,equalization,parametric_eq,fixed_band_eq,equalized_raw,equalized_smoothed,target
20.00,4.79,1.85,4.79,1.85,-1.86,-2.04,-1.01,2.94,2.93,2.94
20.20,4.81,1.86,4.81,1.86,-1.87,-2.04,-1.04,2.94,2.95,2.95
20.40,4.83,1.87,4.83,1.88,-1.88,-2.05,-1.07,2.95,2.96,2.96
20.61,4.85,1.89,4.85,1.89,-1.89,-2.05,-1.10,2.97,2.97,2.96
20.81,4.87,1.90,4.87,1.90,-1.89,-2.06,-1.13,2.98,2.98,2.97
21.02,4.89,1.92,4.88,1.91,-1.90,-2.07,-1.16,2.99,2.99,2.97
21.23,4.89,1.91,4.89,1.91,-1.91,-2.07,-1.19,2.99,2.99,2.98
21.44,4.89,1.91,4.89,1.91,-1.91,-2.08,-1.22,2.98,2.98,2.98
21.66,4.89,1.91,4.89,1.91,-1.91,-2.09,-1.26,2.98,2.98,2.98
21.87,4.89,1.91,4.89,1.91,-1.91,-2.10,-1.29,2.98,2.98,2.98
22.09,4.89,1.90,4.89,1.90,-1.90,-2.11,-1.33,2.99,2.99,2.99
22.31,4.89,1.90,4.89,1.91,-1.91,-2.11,-1.36,2.98,2.98,2.99
22.54,4.89,1.91,4.89,1.91,-1.91,-2.12,-1.40,2.98,2.97,2.98
22.76,4.89,1.92,4.89,1.92,-1.93,-2.13,-1.44,2.96,2.96,2.97
22.99,4.89,1.92,4.90,1.93,-1.95,-2.14,-1.48,2.94,2.95,2.97
23.22,4.92,1.95,4.92,1.96,-1.97,-2.15,-1.52,2.95,2.95,2.97
23.45,4.96,2.00,4.96,2.00,-2.00,-2.16,-1.56,2.96,2.96,2.96
23.69,4.99,2.03,4.99,2.04,-2.03,-2.17,-1.60,2.96,2.97,2.96
23.92,5.03,2.08,5.03,2.07,-2.05,-2.18,-1.64,2.98,2.97,2.96
24.16,5.05,2.10,5.05,2.09,-2.08,-2.19,-1.68,2.97,2.97,2.96
24.40,5.06,2.11,5.06,2.11,-2.10,-2.20,-1.73,2.96,2.96,2.96
24.65,5.07,2.12,5.07,2.12,-2.12,-2.21,-1.77,2.95,2.95,2.95
24.89,5.08,2.13,5.08,2.13,-2.13,-2.22,-1.81,2.95,2.95,2.95
25.14,5.09,2.14,5.09,2.14,-2.14,-2.23,-1.86,2.95,2.95,2.95
25.39,5.09,2.15,5.09,2.14,-2.14,-2.24,-1.90,2.95,2.95,2.94
25.65,5.09,2.15,5.09,2.15,-2.15,-2.25,-1.95,2.94,2.94,2.94
25.91,5.09,2.15,5.09,2.15,-2.15,-2.26,-1.99,2.94,2.94,2.94
26.16,5.09,2.15,5.09,2.15,-2.15,-2.27,-2.04,2.94,2.94,2.94
26.43,5.09,2.15,5.09,2.15,-2.15,-2.28,-2.08,2.94,2.94,2.94
26.69,5.09,2.15,5.09,2.15,-2.15,-2.29,-2.12,2.94,2.94,2.94
26.96,5.09,2.15,5.09,2.15,-2.15,-2.30,-2.17,2.94,2.94,2.94
27.23,5.09,2.15,5.09,2.15,-2.15,-2.30,-2.21,2.94,2.94,2.94
27.50,5.09,2.15,5.09,2.15,-2.15,-2.31,-2.25,2.94,2.94,2.94
27.77,5.09,2.15,5.09,2.15,-2.15,-2.32,-2.29,2.94,2.94,2.94
28.05,5.09,2.15,5.09,2.15,-2.15,-2.32,-2.32,2.94,2.94,2.94
28.33,5.09,2.15,5.09,2.15,-2.15,-2.33,-2.36,2.94,2.94,2.94
28.62,5.09,2.16,5.09,2.15,-2.15,-2.33,-2.39,2.94,2.94,2.94
28.90,5.09,2.15,5.09,2.15,-2.15,-2.34,-2.42,2.94,2.94,2.94
29.19,5.09,2.15,5.09,2.15,-2.14,-2.34,-2.45,2.95,2.95,2.94
29.48,5.09,2.15,5.09,2.15,-2.14,-2.34,-2.48,2.95,2.96,2.94
29.78,5.09,2.14,5.09,2.14,-2.13,-2.34,-2.50,2.96,2.96,2.95
30.08,5.09,2.14,5.08,2.13,-2.13,-2.35,-2.53,2.97,2.96,2.95
30.38,5.07,2.12,5.07,2.12,-2.13,-2.35,-2.54,2.94,2.94,2.95
30.68,5.06,2.11,5.06,2.11,-2.14,-2.35,-2.56,2.92,2.92,2.95
30.99,5.05,2.10,5.06,2.12,-2.15,-2.35,-2.57,2.90,2.91,2.95
31.30,5.09,2.14,5.09,2.15,-2.17,-2.35,-2.58,2.92,2.93,2.95
31.61,5.14,2.20,5.13,2.19,-2.19,-2.34,-2.59,2.95,2.95,2.94
31.93,5.18,2.24,5.17,2.23,-2.21,-2.34,-2.59,2.97,2.96,2.94
32.24,5.19,2.26,5.19,2.25,-2.23,-2.34,-2.59,2.96,2.96,2.93
32.57,5.19,2.26,5.19,2.26,-2.25,-2.34,-2.59,2.94,2.94,2.93
32.89,5.19,2.26,5.19,2.27,-2.27,-2.33,-2.58,2.92,2.92,2.93
33.22,5.19,2.27,5.19,2.27,-2.28,-2.33,-2.57,2.91,2.91,2.92
33.55,5.19,2.27,5.19,2.28,-2.28,-2.33,-2.56,2.91,2.91,2.92
33.89,5.19,2.29,5.19,2.28,-2.28,-2.32,-2.55,2.91,2.91,2.90
34.23,5.19,2.29,5.19,2.29,-2.28,-2.32,-2.54,2.91,2.91,2.90
34.57,5.19,2.29,5.19,2.29,-2.28,-2.31,-2.52,2.91,2.91,2.90
34.92,5.19,2.29,5.19,2.29,-2.29,-2.30,-2.50,2.90,2.90,2.90
35.27,5.19,2.29,5.19,2.29,-2.30,-2.30,-2.48,2.89,2.88,2.90
35.62,5.19,2.30,5.19,2.29,-2.32,-2.29,-2.46,2.87,2.87,2.89
35.97,5.19,2.30,5.21,2.31,-2.34,-2.29,-2.44,2.85,2.86,2.89
36.33,5.24,2.35,5.24,2.35,-2.36,-2.28,-2.42,2.88,2.88,2.89
36.70,5.29,2.40,5.29,2.40,-2.38,-2.27,-2.40,2.91,2.91,2.89
37.06,5.33,2.44,5.31,2.43,-2.39,-2.27,-2.38,2.94,2.93,2.89
37.43,5.31,2.43,5.32,2.43,-2.40,-2.26,-2.36,2.91,2.92,2.88
37.81,5.30,2.41,5.30,2.42,-2.41,-2.25,-2.33,2.89,2.89,2.89
38.19,5.28,2.39,5.28,2.39,-2.41,-2.25,-2.31,2.87,2.87,2.89
38.57,5.27,2.39,5.27,2.38,-2.41,-2.24,-2.29,2.86,2.86,2.89
38.95,5.26,2.37,5.27,2.38,-2.40,-2.24,-2.27,2.86,2.87,2.89
39.34,5.27,2.38,5.28,2.39,-2.38,-2.23,-2.25,2.89,2.89,2.89
39.74,5.29,2.40,5.28,2.39,-2.37,-2.23,-2.24,2.92,2.91,2.89
40.14,5.28,2.40,5.27,2.39,-2.36,-2.22,-2.22,2.92,2.91,2.88
40.54,5.24,2.36,5.24,2.36,-2.36,-2.21,-2.20,2.89,2.89,2.88
40.94,5.20,2.32,5.21,2.34,-2.35,-2.21,-2.19,2.85,2.86,2.88
41.35,5.19,2.32,5.19,2.32,-2.34,-2.21,-2.17,2.85,2.85,2.87
41.76,5.19,2.33,5.19,2.32,-2.34,-2.20,-2.16,2.85,2.85,2.86
42.18,5.19,2.34,5.19,2.33,-2.33,-2.20,-2.15,2.86,2.86,2.86
42.60,5.19,2.34,5.19,2.34,-2.34,-2.19,-2.14,2.86,2.86,2.85
43.03,5.19,2.34,5.19,2.34,-2.34,-2.19,-2.14,2.85,2.85,2.85
43.46,5.19,2.35,5.19,2.35,-2.35,-2.19,-2.13,2.84,2.84,2.84
43.90,5.19,2.36,5.19,2.36,-2.36,-2.19,-2.13,2.83,2.83,2.83
44.33,5.19,2.37,5.19,2.37,-2.37,-2.19,-2.12,2.82,2.82,2.82
44.78,5.19,2.37,5.19,2.37,-2.37,-2.19,-2.12,2.82,2.82,2.82
45.23,5.19,2.38,5.19,2.38,-2.38,-2.19,-2.12,2.81,2.81,2.81
45.68,5.19,2.38,5.19,2.38,-2.38,-2.19,-2.13,2.81,2.81,2.81
46.13,5.19,2.38,5.19,2.38,-2.39,-2.19,-2.13,2.80,2.80,2.81
46.60,5.19,2.38,5.19,2.38,-2.39,-2.19,-2.14,2.80,2.80,2.81
47.06,5.19,2.38,5.19,2.38,-2.38,-2.19,-2.14,2.81,2.81,2.81
47.53,5.19,2.38,5.19,2.38,-2.38,-2.19,-2.15,2.81,2.82,2.82
48.01,5.19,2.37,5.20,2.38,-2.36,-2.20,-2.16,2.83,2.83,2.82
48.49,5.19,2.37,5.19,2.37,-2.35,-2.20,-2.17,2.85,2.84,2.82
48.97,5.18,2.36,5.16,2.34,-2.32,-2.21,-2.19,2.86,2.84,2.83
49.46,5.12,2.29,5.12,2.29,-2.30,-2.21,-2.20,2.82,2.82,2.83
49.96,5.07,2.23,5.09,2.26,-2.27,-2.22,-2.22,2.80,2.82,2.84
50.46,5.07,2.23,5.07,2.23,-2.24,-2.22,-2.23,2.83,2.83,2.84
50.96,5.08,2.23,5.06,2.20,-2.21,-2.23,-2.25,2.87,2.85,2.86
51.47,5.04,2.18,5.04,2.18,-2.18,-2.24,-2.27,2.87,2.86,2.86
51.99,4.99,2.13,5.02,2.16,-2.14,-2.25,-2.29,2.85,2.88,2.86
52.51,4.99,2.13,4.99,2.13,-2.11,-2.26,-2.31,2.88,2.88,2.86
53.03,4.99,2.13,4.95,2.09,-2.08,-2.26,-2.33,2.91,2.87,2.86
53.56,4.91,2.05,4.92,2.05,-2.06,-2.28,-2.35,2.85,2.86,2.86
54.10,4.85,1.98,4.89,2.02,-2.04,-2.29,-2.37,2.81,2.84,2.87
54.64,4.88,2.01,4.87,2.00,-2.03,-2.30,-2.40,2.85,2.84,2.87
55.18,4.89,2.02,4.88,2.01,-2.02,-2.31,-2.42,2.87,2.86,2.87
55.74,4.89,2.03,4.89,2.03,-2.02,-2.32,-2.44,2.87,2.88,2.86
56.29,4.89,2.03,4.89,2.03,-2.02,-2.34,-2.46,2.87,2.87,2.86
56.86,4.89,2.03,4.89,2.04,-2.02,-2.35,-2.48,2.87,2.87,2.86
57.42,4.89,2.05,4.89,2.05,-2.03,-2.37,-2.51,2.86,2.86,2.85
58.00,4.89,2.06,4.89,2.06,-2.05,-2.38,-2.53,2.84,2.84,2.83
58.58,4.89,2.07,4.88,2.06,-2.07,-2.40,-2.55,2.82,2.81,2.82
59.16,4.88,2.07,4.87,2.06,-2.09,-2.42,-2.56,2.79,2.78,2.81
59.76,4.86,2.07,4.88,2.09,-2.12,-2.43,-2.58,2.74,2.76,2.79
60.35,4.90,2.13,4.91,2.14,-2.16,-2.45,-2.60,2.74,2.76,2.77
60.96,4.98,2.24,4.95,2.21,-2.20,-2.47,-2.61,2.78,2.75,2.74
61.57,4.99,2.27,4.99,2.27,-2.25,-2.49,-2.63,2.75,2.74,2.72
62.18,4.99,2.31,5.00,2.31,-2.29,-2.51,-2.64,2.70,2.70,2.68
62.80,4.99,2.34,4.99,2.34,-2.34,-2.53,-2.65,2.65,2.65,2.65
63.43,4.99,2.39,4.99,2.39,-2.39,-2.55,-2.67,2.60,2.60,2.60
64.07,4.99,2.43,4.99,2.43,-2.43,-2.57,-2.67,2.56,2.56,2.57
64.71,4.99,2.47,4.99,2.47,-2.47,-2.60,-2.68,2.52,2.52,2.52
65.35,4.99,2.51,4.99,2.51,-2.51,-2.62,-2.69,2.48,2.48,2.48
66.01,4.99,2.55,4.99,2.55,-2.55,-2.64,-2.70,2.44,2.44,2.44
66.67,4.99,2.59,4.99,2.59,-2.58,-2.67,-2.70,2.41,2.41,2.40
67.33,4.99,2.62,4.99,2.62,-2.62,-2.69,-2.71,2.37,2.37,2.37
68.01,4.99,2.66,4.99,2.66,-2.66,-2.72,-2.71,2.33,2.33,2.33
68.69,4.99,2.69,4.99,2.69,-2.69,-2.74,-2.71,2.30,2.30,2.30
69.37,4.99,2.72,4.99,2.72,-2.72,-2.77,-2.72,2.27,2.27,2.27
70.07,4.99,2.75,4.99,2.75,-2.74,-2.80,-2.72,2.25,2.25,2.24
70.77,4.99,2.78,4.99,2.78,-2.77,-2.82,-2.72,2.22,2.22,2.21
71.48,4.99,2.81,4.99,2.81,-2.81,-2.85,-2.73,2.18,2.18,2.18
72.19,4.99,2.84,4.99,2.84,-2.85,-2.88,-2.73,2.14,2.14,2.15
72.91,4.99,2.88,4.99,2.87,-2.90,-2.91,-2.74,2.09,2.09,2.12
73.64,4.99,2.91,5.00,2.92,-2.94,-2.94,-2.74,2.05,2.06,2.08
74.38,5.02,2.98,5.03,2.99,-2.99,-2.97,-2.75,2.03,2.04,2.05
75.12,5.07,3.06,5.07,3.06,-3.04,-3.00,-2.75,2.03,2.03,2.01
75.87,5.12,3.16,5.10,3.13,-3.10,-3.03,-2.76,2.02,2.00,1.96
76.63,5.10,3.18,5.09,3.17,-3.16,-3.06,-2.77,1.94,1.94,1.93
77.40,5.07,3.19,5.08,3.20,-3.22,-3.09,-2.78,1.85,1.86,1.88
78.17,5.06,3.22,5.08,3.25,-3.28,-3.12,-2.80,1.78,1.80,1.84
78.95,5.12,3.33,5.12,3.32,-3.35,-3.15,-2.81,1.78,1.77,1.79
79.74,5.17,3.42,5.16,3.41,-3.40,-3.18,-2.83,1.77,1.76,1.75
80.54,5.19,3.49,5.19,3.48,-3.46,-3.22,-2.84,1.73,1.73,1.70
81.35,5.19,3.53,5.19,3.53,-3.51,-3.25,-2.86,1.68,1.68,1.66
82.16,5.19,3.57,5.19,3.58,-3.57,-3.28,-2.89,1.63,1.63,1.62
82.98,5.19,3.61,5.19,3.61,-3.62,-3.31,-2.91,1.57,1.57,1.58
83.81,5.19,3.66,5.19,3.65,-3.66,-3.35,-2.94,1.53,1.53,1.53
84.65,5.19,3.69,5.19,3.69,-3.70,-3.38,-2.97,1.49,1.49,1.50
85.50,5.19,3.73,5.19,3.73,-3.74,-3.41,-3.00,1.45,1.45,1.46
86.35,5.19,3.78,5.19,3.78,-3.78,-3.44,-3.03,1.41,1.41,1.41
87.22,5.19,3.82,5.19,3.82,-3.83,-3.48,-3.06,1.37,1.37,1.37
88.09,5.19,3.87,5.19,3.86,-3.87,-3.51,-3.10,1.32,1.32,1.33
88.97,5.19,3.90,5.19,3.90,-3.92,-3.54,-3.14,1.27,1.27,1.29
89.86,5.19,3.95,5.19,3.95,-3.96,-3.58,-3.18,1.23,1.23,1.24
90.76,5.19,3.99,5.20,4.00,-3.98,-3.61,-3.23,1.21,1.22,1.20
91.66,5.20,4.04,5.21,4.05,-4.00,-3.64,-3.28,1.20,1.21,1.16
92.58,5.22,4.10,5.19,4.07,-4.02,-3.67,-3.33,1.20,1.17,1.12
93.51,5.14,4.06,5.12,4.04,-4.03,-3.70,-3.38,1.11,1.10,1.08
94.44,5.02,3.98,5.05,4.01,-4.04,-3.74,-3.43,0.98,1.02,1.04
95.39,4.98,3.98,5.00,3.99,-4.05,-3.77,-3.49,0.93,0.95,1.00
96.34,4.99,4.03,4.98,4.01,-4.06,-3.80,-3.55,0.93,0.92,0.96
97.30,4.98,4.06,4.98,4.06,-4.07,-3.83,-3.60,0.91,0.91,0.92
98.28,4.98,4.10,4.98,4.10,-4.09,-3.86,-3.67,0.89,0.89,0.88
99.26,4.96,4.12,4.97,4.13,-4.11,-3.89,-3.73,0.85,0.86,0.84
100.25,4.95,4.15,4.96,4.16,-4.13,-3.92,-3.79,0.82,0.82,0.80
101.25,4.94,4.18,4.93,4.18,-4.16,-3.95,-3.86,0.79,0.78,0.76
102.27,4.91,4.20,4.90,4.19,-4.17,-3.98,-3.93,0.74,0.72,0.71
103.29,4.84,4.18,4.85,4.18,-4.19,-4.01,-3.99,0.65,0.66,0.66
104.32,4.78,4.17,4.80,4.18,-4.20,-4.03,-4.06,0.59,0.60,0.61
105.37,4.76,4.19,4.76,4.19,-4.21,-4.06,-4.13,0.55,0.55,0.57
106.42,4.73,4.21,4.73,4.21,-4.22,-4.09,-4.20,0.51,0.51,0.52
107.48,4.71,4.24,4.71,4.24,-4.24,-4.11,-4.26,0.47,0.47,0.47
108.56,4.68,4.26,4.68,4.26,-4.26,-4.14,-4.33,0.42,0.42,0.42
109.64,4.66,4.29,4.66,4.28,-4.29,-4.16,-4.39,0.37,0.37,0.37
110.74,4.64,4.31,4.65,4.31,-4.31,-4.19,-4.46,0.33,0.34,0.34
111.85,4.63,4.33,4.63,4.34,-4.32,-4.21,-4.52,0.31,0.31,0.30
112.97,4.62,4.36,4.61,4.35,-4.32,-4.23,-4.58,0.30,0.28,0.26
114.10,4.57,4.35,4.56,4.34,-4.32,-4.25,-4.63,0.25,0.24,0.22
115.24,4.50,4.31,4.51,4.32,-4.32,-4.27,-4.68,0.18,0.19,0.19
116.39,4.44,4.29,4.45,4.30,-4.31,-4.29,-4.73,0.13,0.15,0.15
117.55,4.41,4.28,4.40,4.27,-4.30,-4.31,-4.77,0.11,0.11,0.14
118.73,4.38,4.27,4.37,4.26,-4.28,-4.32,-4.81,0.10,0.09,0.11
119.92,4.32,4.23,4.35,4.26,-4.27,-4.34,-4.85,0.05,0.08,0.09
121.12,4.33,4.26,4.33,4.26,-4.25,-4.36,-4.88,0.08,0.08,0.07
122.33,4.33,4.27,4.32,4.26,-4.24,-4.37,-4.90,0.09,0.08,0.06
123.55,4.29,4.25,4.29,4.24,-4.23,-4.38,-4.92,0.07,0.06,0.04
124.79,4.24,4.21,4.24,4.21,-4.21,-4.39,-4.93,0.03,0.03,0.03
126.03,4.17,4.16,4.20,4.19,-4.19,-4.41,-4.94,-0.02,0.01,0.01
127.29,4.17,4.17,4.16,4.17,-4.17,-4.42,-4.94,0.00,-0.00,-0.00
128.57,4.14,4.16,4.12,4.14,-4.14,-4.43,-4.93,-0.00,-0.02,-0.02
129.85,4.08,4.11,4.08,4.11,-4.12,-4.43,-4.92,-0.04,-0.03,-0.03
131.15,4.02,4.06,4.03,4.08,-4.09,-4.44,-4.91,-0.07,-0.06,-0.04
132.46,4.00,4.07,4.01,4.07,-4.07,-4.45,-4.88,-0.07,-0.07,-0.07
133.79,3.99,4.07,3.99,4.07,-4.06,-4.45,-4.86,-0.07,-0.07,-0.08
135.12,3.98,4.08,3.96,4.05,-4.05,-4.46,-4.83,-0.07,-0.09,-0.10
136.48,3.92,4.03,3.92,4.03,-4.04,-4.46,-4.80,-0.12,-0.12,-0.11
137.84,3.86,3.99,3.90,4.03,-4.03,-4.46,-4.76,-0.16,-0.13,-0.13
139.22,3.88,4.03,3.88,4.03,-4.01,-4.46,-4.72,-0.13,-0.13,-0.15
140.61,3.91,4.08,3.86,4.03,-4.01,-4.47,-4.68,-0.10,-0.15,-0.17
142.02,3.82,4.01,3.84,4.03,-4.01,-4.47,-4.63,-0.19,-0.17,-0.19
143.44,3.79,4.01,3.81,4.03,-4.03,-4.47,-4.59,-0.24,-0.22,-0.22
144.87,3.80,4.04,3.77,4.01,-4.06,-4.46,-4.54,-0.26,-0.29,-0.24
146.32,3.79,4.06,3.79,4.06,-4.10,-4.46,-4.49,-0.31,-0.32,-0.27
147.78,3.78,4.09,3.84,4.15,-4.17,-4.46,-4.44,-0.39,-0.33,-0.31
149.26,3.93,4.27,3.90,4.25,-4.26,-4.46,-4.39,-0.32,-0.35,-0.34
150.75,4.02,4.41,3.97,4.36,-4.36,-4.45,-4.34,-0.34,-0.40,-0.39
152.26,4.00,4.44,4.03,4.47,-4.49,-4.45,-4.29,-0.49,-0.46,-0.44
153.78,4.05,4.55,4.08,4.58,-4.61,-4.45,-4.25,-0.56,-0.53,-0.50
155.32,4.16,4.72,4.15,4.71,-4.73,-4.44,-4.20,-0.57,-0.58,-0.56
156.88,4.24,4.85,4.24,4.85,-4.82,-4.44,-4.16,-0.58,-0.58,-0.61
158.44,4.29,4.96,4.28,4.95,-4.88,-4.43,-4.12,-0.59,-0.60,-0.67
160.03,4.28,5.01,4.27,4.99,-4.91,-4.43,-4.07,-0.63,-0.64,-0.72
161.63,4.18,4.95,4.19,4.96,-4.90,-4.43,-4.04,-0.72,-0.71,-0.77
163.24,4.08,4.90,4.07,4.88,-4.85,-4.43,-4.00,-0.77,-0.78,-0.82
164.88,3.92,4.77,3.94,4.79,-4.78,-4.42,-3.97,-0.85,-0.84,-0.85
166.53,3.80,4.68,3.81,4.68,-4.68,-4.42,-3.94,-0.87,-0.87,-0.87
168.19,3.69,4.58,3.67,4.56,-4.57,-4.43,-3.91,-0.88,-0.91,-0.89
169.87,3.54,4.44,3.54,4.45,-4.49,-4.43,-3.88,-0.95,-0.94,-0.90
171.57,3.43,4.34,3.45,4.36,-4.42,-4.44,-3.86,-0.99,-0.97,-0.91
173.29,3.40,4.31,3.41,4.32,-4.39,-4.45,-3.84,-0.99,-0.98,-0.91
175.02,3.45,4.34,3.43,4.33,-4.38,-4.46,-3.82,-0.93,-0.95,-0.89
176.77,3.50,4.38,3.51,4.39,-4.40,-4.48,-3.81,-0.90,-0.89,-0.88
178.54,3.59,4.46,3.61,4.47,-4.44,-4.50,-3.80,-0.85,-0.83,-0.86
180.32,3.72,4.56,3.68,4.53,-4.49,-4.53,-3.79,-0.77,-0.81,-0.84
182.13,3.77,4.60,3.76,4.58,-4.55,-4.56,-3.78,-0.78,-0.79,-0.82
183.95,3.77,4.57,3.82,4.62,-4.60,-4.60,-3.78,-0.83,-0.79,-0.80
185.79,3.88,4.67,3.86,4.65,-4.65,-4.64,-3.78,-0.77,-0.79,-0.79
187.65,3.91,4.70,3.90,4.68,-4.69,-4.68,-3.78,-0.78,-0.79,-0.79
189.52,3.92,4.70,3.93,4.71,-4.71,-4.72,-3.79,-0.79,-0.78,-0.78
191.42,3.93,4.71,3.94,4.71,-4.73,-4.74,-3.80,-0.80,-0.79,-0.78
193.33,3.95,4.72,3.96,4.73,-4.73,-4.75,-3.81,-0.78,-0.77,-0.77
195.27,3.96,4.74,3.96,4.74,-4.71,-4.73,-3.82,-0.75,-0.75,-0.77
197.22,3.96,4.75,3.94,4.72,-4.69,-4.69,-3.83,-0.73,-0.75,-0.79
199.19,3.88,4.67,3.89,4.68,-4.66,-4.64,-3.85,-0.77,-0.77,-0.79
201.18,3.81,4.61,3.82,4.62,-4.61,-4.57,-3.87,-0.80,-0.80,-0.80
203.19,3.74,4.55,3.74,4.55,-4.57,-4.49,-3.89,-0.83,-0.82,-0.81
205.23,3.68,4.50,3.68,4.49,-4.52,-4.42,-3.91,-0.84,-0.84,-0.82
207.28,3.62,4.45,3.61,4.44,-4.47,-4.34,-3.94,-0.85,-0.85,-0.83
209.35,3.55,4.39,3.56,4.40,-4.42,-4.28,-3.96,-0.87,-0.86,-0.84
211.44,3.51,4.37,3.53,4.38,-4.37,-4.22,-3.99,-0.86,-0.85,-0.86
213.56,3.49,4.35,3.47,4.34,-4.34,-4.16,-4.01,-0.85,-0.86,-0.86
215.69,3.45,4.33,3.42,4.30,-4.30,-4.11,-4.04,-0.85,-0.88,-0.88
217.85,3.31,4.20,3.35,4.25,-4.25,-4.06,-4.06,-0.94,-0.90,-0.89
220.03,3.29,4.20,3.29,4.20,-4.20,-4.02,-4.09,-0.91,-0.90,-0.91
222.23,3.24,4.16,3.24,4.15,-4.13,-3.99,-4.11,-0.89,-0.89,-0.92
224.45,3.19,4.11,3.17,4.09,-4.06,-3.95,-4.14,-0.87,-0.89,-0.92
226.70,3.07,4.00,3.06,3.99,-3.97,-3.92,-4.16,-0.90,-0.91,-0.93
228.96,2.92,3.86,2.94,3.88,-3.88,-3.89,-4.18,-0.96,-0.94,-0.94
231.25,2.82,3.75,2.83,3.76,-3.79,-3.86,-4.19,-0.97,-0.96,-0.93
233.57,2.74,3.68,2.74,3.67,-3.69,-3.84,-4.21,-0.95,-0.95,-0.94
235.90,2.66,3.60,2.65,3.59,-3.59,-3.81,-4.22,-0.93,-0.93,-0.93
238.26,2.57,3.50,2.56,3.49,-3.48,-3.79,-4.23,-0.91,-0.92,-0.93
240.64,2.46,3.38,2.47,3.39,-3.38,-3.77,-4.23,-0.92,-0.91,-0.92
243.05,2.38,3.29,2.38,3.29,-3.29,-3.75,-4.23,-0.91,-0.91,-0.91
245.48,2.31,3.22,2.31,3.21,-3.21,-3.73,-4.23,-0.89,-0.90,-0.91
247.93,2.23,3.13,2.23,3.13,-3.13,-3.71,-4.23,-0.90,-0.90,-0.90
250.41,2.17,3.07,2.16,3.05,-3.06,-3.70,-4.22,-0.89,-0.91,-0.90
252.92,2.07,2.96,2.09,2.99,-3.01,-3.68,-4.20,-0.94,-0.91,-0.89
255.45,2.05,2.95,2.05,2.94,-2.97,-3.66,-4.18,-0.91,-0.92,-0.90
258.00,2.03,2.93,2.02,2.92,-2.94,-3.65,-4.16,-0.90,-0.92,-0.90
260.58,2.01,2.91,2.03,2.93,-2.92,-3.63,-4.13,-0.91,-0.89,-0.90
263.19,2.02,2.93,2.02,2.93,-2.92,-3.62,-4.10,-0.90,-0.89,-0.91
265.82,2.06,2.97,2.02,2.93,-2.92,-3.60,-4.07,-0.86,-0.91,-0.91
268.48,1.98,2.90,2.03,2.94,-2.94,-3.59,-4.04,-0.96,-0.91,-0.91
271.16,2.03,2.95,2.03,2.94,-2.96,-3.58,-4.00,-0.92,-0.93,-0.92
273.87,2.07,2.99,2.04,2.96,-2.97,-3.56,-3.95,-0.90,-0.93,-0.92
276.61,2.05,2.98,2.09,3.02,-2.99,-3.55,-3.91,-0.94,-0.90,-0.93
279.38,2.14,3.07,2.13,3.05,-3.02,-3.54,-3.86,-0.88,-0.89,-0.93
282.17,2.17,3.09,2.13,3.05,-3.05,-3.53,-3.81,-0.88,-0.92,-0.92
284.99,2.14,3.05,2.15,3.07,-3.09,-3.51,-3.77,-0.95,-0.93,-0.91
287.84,2.12,3.04,2.19,3.11,-3.13,-3.50,-3.71,-1.01,-0.94,-0.92
290.72,2.30,3.21,2.26,3.17,-3.19,-3.49,-3.66,-0.89,-0.93,-0.91
293.63,2.38,3.28,2.35,3.25,-3.26,-3.48,-3.61,-0.88,-0.91,-0.90
296.57,2.42,3.32,2.43,3.33,-3.33,-3.46,-3.56,-0.91,-0.90,-0.89
299.53,2.48,3.38,2.50,3.40,-3.42,-3.45,-3.51,-0.94,-0.91,-0.90
302.53,2.59,3.48,2.61,3.50,-3.51,-3.44,-3.46,-0.92,-0.90,-0.89
305.55,2.75,3.64,2.71,3.61,-3.60,-3.43,-3.40,-0.84,-0.88,-0.89
308.61,2.81,3.70,2.81,3.70,-3.67,-3.42,-3.35,-0.86,-0.87,-0.89
311.69,2.85,3.75,2.87,3.77,-3.74,-3.40,-3.30,-0.89,-0.87,-0.90
314.81,2.91,3.82,2.91,3.81,-3.80,-3.39,-3.26,-0.89,-0.89,-0.91
317.96,2.95,3.86,2.94,3.85,-3.84,-3.38,-3.21,-0.89,-0.90,-0.91
321.14,2.96,3.88,2.96,3.88,-3.87,-3.37,-3.17,-0.91,-0.91,-0.92
324.35,2.96,3.88,2.96,3.89,-3.89,-3.35,-3.12,-0.93,-0.93,-0.92
327.59,2.96,3.90,2.96,3.90,-3.90,-3.34,-3.08,-0.94,-0.94,-0.93
330.87,2.96,3.91,2.96,3.90,-3.91,-3.33,-3.04,-0.95,-0.96,-0.95
334.18,2.95,3.91,2.95,3.91,-3.92,-3.32,-3.00,-0.97,-0.97,-0.96
337.52,2.95,3.92,2.95,3.92,-3.93,-3.30,-2.97,-0.98,-0.98,-0.97
340.90,2.95,3.92,2.95,3.92,-3.94,-3.29,-2.93,-0.99,-0.99,-0.97
344.30,2.95,3.93,2.95,3.94,-3.95,-3.27,-2.90,-1.00,-1.00,-0.98
347.75,2.95,3.95,2.96,3.96,-3.95,-3.26,-2.87,-1.00,-0.99,-1.00
351.23,2.95,3.97,2.95,3.96,-3.94,-3.25,-2.84,-0.99,-0.99,-1.01
354.74,2.94,3.97,2.92,3.95,-3.93,-3.23,-2.82,-0.99,-1.00,-1.03
358.28,2.88,3.92,2.89,3.92,-3.90,-3.21,-2.80,-1.02,-1.02,-1.04
361.87,2.82,3.87,2.83,3.88,-3.88,-3.20,-2.77,-1.06,-1.05,-1.05
365.49,2.78,3.85,2.76,3.83,-3.85,-3.18,-2.76,-1.06,-1.08,-1.07
369.14,2.70,3.78,2.70,3.78,-3.81,-3.17,-2.74,-1.11,-1.10,-1.08
372.83,2.64,3.73,2.65,3.75,-3.77,-3.15,-2.72,-1.13,-1.11,-1.09
376.56,2.61,3.71,2.61,3.71,-3.72,-3.13,-2.71,-1.11,-1.12,-1.10
380.33,2.58,3.69,2.57,3.69,-3.68,-3.11,-2.70,-1.10,-1.10,-1.11
384.13,2.52,3.64,2.53,3.66,-3.63,-3.10,-2.69,-1.11,-1.10,-1.12
387.97,2.49,3.63,2.47,3.61,-3.59,-3.08,-2.68,-1.10,-1.12,-1.13
391.85,2.39,3.54,2.40,3.54,-3.54,-3.06,-2.68,-1.15,-1.15,-1.15
395.77,2.31,3.47,2.32,3.47,-3.49,-3.04,-2.68,-1.18,-1.17,-1.16
399.73,2.24,3.41,2.24,3.41,-3.43,-3.02,-2.67,-1.19,-1.18,-1.17
403.72,2.17,3.35,2.18,3.36,-3.36,-3.00,-2.67,-1.19,-1.18,-1.18
407.76,2.12,3.32,2.11,3.31,-3.28,-2.98,-2.67,-1.16,-1.17,-1.20
411.84,2.03,3.24,2.03,3.24,-3.21,-2.96,-2.67,-1.18,-1.18,-1.21
415.96,1.93,3.15,1.93,3.14,-3.14,-2.94,-2.68,-1.20,-1.21,-1.22
420.12,1.82,3.04,1.82,3.05,-3.07,-2.91,-2.68,-1.24,-1.24,-1.22
424.32,1.72,2.95,1.74,2.97,-3.00,-2.89,-2.68,-1.28,-1.26,-1.23
428.56,1.69,2.92,1.68,2.91,-2.93,-2.87,-2.69,-1.24,-1.25,-1.23
432.85,1.65,2.87,1.65,2.87,-2.87,-2.85,-2.69,-1.22,-1.23,-1.22
437.18,1.61,2.82,1.61,2.83,-2.82,-2.82,-2.70,-1.21,-1.20,-1.21
441.55,1.59,2.78,1.58,2.78,-2.77,-2.80,-2.70,-1.18,-1.18,-1.19
445.96,1.55,2.72,1.57,2.74,-2.72,-2.77,-2.71,-1.17,-1.16,-1.17
450.42,1.56,2.70,1.55,2.69,-2.68,-2.75,-2.71,-1.12,-1.13,-1.14
454.93,1.55,2.66,1.54,2.65,-2.65,-2.72,-2.71,-1.10,-1.10,-1.10
459.48,1.53,2.60,1.54,2.61,-2.62,-2.70,-2.71,-1.09,-1.08,-1.07
464.07,1.54,2.58,1.53,2.57,-2.59,-2.67,-2.71,-1.05,-1.06,-1.04
468.71,1.54,2.54,1.55,2.55,-2.57,-2.65,-2.71,-1.03,-1.02,-1.00
473.40,1.58,2.54,1.59,2.55,-2.56,-2.62,-2.71,-0.97,-0.96,-0.96
478.13,1.64,2.56,1.63,2.55,-2.53,-2.59,-2.71,-0.89,-0.90,-0.92
482.91,1.68,2.57,1.66,2.55,-2.51,-2.57,-2.70,-0.83,-0.85,-0.89
487.74,1.65,2.51,1.67,2.53,-2.49,-2.54,-2.69,-0.84,-0.83,-0.86
492.62,1.66,2.50,1.65,2.49,-2.47,-2.51,-2.68,-0.81,-0.82,-0.84
497.55,1.62,2.44,1.63,2.44,-2.45,-2.48,-2.67,-0.83,-0.83,-0.82
502.52,1.61,2.42,1.59,2.40,-2.43,-2.46,-2.65,-0.82,-0.84,-0.81
507.55,1.55,2.36,1.56,2.37,-2.41,-2.43,-2.64,-0.86,-0.85,-0.81
