frequency,raw,error,smoothed,error_smoothed,equalization,parametric_eq,fixed_band_eq,equalized_raw,equalized_smoothed,target
20.00,8.86,6.69,8.86,6.70,-6.70,-6.21,-2.82,2.16,2.16,2.17
20.20,8.91,6.74,8.91,6.74,-6.74,-6.21,-2.90,2.17,2.17,2.17
20.40,8.96,6.78,8.96,6.78,-6.78,-6.21,-2.98,2.18,2.18,2.18
20.61,9.00,6.81,9.00,6.82,-6.82,-6.21,-3.06,2.18,2.18,2.19
20.81,9.04,6.85,9.04,6.85,-6.85,-6.21,-3.15,2.19,2.19,2.19
21.02,9.07,6.87,9.07,6.88,-6.88,-6.21,-3.24,2.19,2.20,2.20
21.23,9.10,6.90,9.10,6.90,-6.90,-6.22,-3.33,2.20,2.20,2.20
21.44,9.13,6.92,9.13,6.92,-6.92,-6.22,-3.43,2.21,2.21,2.21
21.66,9.15,6.93,9.15,6.94,-6.93,-6.22,-3.52,2.22,2.21,2.22
21.87,9.16,6.94,9.16,6.94,-6.95,-6.22,-3.62,2.21,2.22,2.22
22.09,9.18,6.95,9.18,6.95,-6.95,-6.22,-3.72,2.23,2.22,2.23
22.31,9.18,6.94,9.19,6.95,-6.96,-6.22,-3.83,2.22,2.23,2.24
22.54,9.20,6.96,9.19,6.95,-6.96,-6.22,-3.94,2.24,2.24,2.24
22.76,9.20,6.95,9.20,6.95,-6.95,-6.22,-4.05,2.25,2.25,2.25
22.99,9.20,6.94,9.20,6.95,-6.94,-6.22,-4.16,2.26,2.26,2.26
23.22,9.20,6.93,9.20,6.93,-6.93,-6.22,-4.28,2.27,2.27,2.27
23.45,9.19,6.91,9.19,6.91,-6.91,-6.22,-4.40,2.28,2.28,2.28
23.69,9.17,6.88,9.17,6.88,-6.88,-6.22,-4.52,2.29,2.29,2.29
23.92,9.15,6.85,9.15,6.85,-6.84,-6.22,-4.64,2.30,2.30,2.30
24.16,9.12,6.81,9.12,6.81,-6.81,-6.22,-4.77,2.31,2.31,2.31
24.40,9.09,6.77,9.09,6.77,-6.77,-6.22,-4.90,2.32,2.32,2.32
24.65,9.06,6.72,9.06,6.72,-6.73,-6.22,-5.03,2.33,2.32,2.34
24.89,9.03,6.68,9.03,6.69,-6.70,-6.22,-5.16,2.33,2.33,2.35
25.14,9.01,6.65,9.01,6.65,-6.67,-6.22,-5.29,2.34,2.35,2.36
25.39,9.00,6.63,9.00,6.63,-6.64,-6.22,-5.43,2.36,2.36,2.37
25.65,8.99,6.61,8.99,6.61,-6.61,-6.22,-5.57,2.38,2.38,2.38
25.91,8.98,6.58,8.98,6.59,-6.59,-6.22,-5.70,2.39,2.39,2.40
26.16,8.97,6.56,8.97,6.57,-6.56,-6.22,-5.84,2.41,2.41,2.41
26.43,8.96,6.54,8.96,6.54,-6.54,-6.22,-5.97,2.42,2.42,2.42
26.69,8.95,6.52,8.94,6.52,-6.51,-6.22,-6.11,2.44,2.44,2.43
26.96,8.92,6.47,8.92,6.48,-6.47,-6.22,-6.24,2.45,2.45,2.45
27.23,8.90,6.44,8.90,6.44,-6.43,-6.22,-6.37,2.47,2.46,2.46
27.50,8.87,6.39,8.87,6.39,-6.39,-6.22,-6.50,2.48,2.48,2.48
27.77,8.83,6.34,8.83,6.34,-6.35,-6.22,-6.63,2.48,2.49,2.49
28.05,8.80,6.29,8.80,6.29,-6.30,-6.22,-6.75,2.50,2.50,2.51
28.33,8.77,6.25,8.77,6.25,-6.25,-6.22,-6.86,2.52,2.52,2.52
28.62,8.74,6.20,8.74,6.21,-6.21,-6.22,-6.98,2.53,2.53,2.54
28.90,8.72,6.17,8.71,6.17,-6.17,-6.22,-7.08,2.55,2.55,2.55
29.19,8.69,6.12,8.69,6.13,-6.13,-6.22,-7.18,2.56,2.56,2.57
29.48,8.67,6.09,8.67,6.09,-6.10,-6.22,-7.26,2.57,2.58,2.58
29.78,8.66,6.06,8.66,6.06,-6.07,-6.22,-7.34,2.59,2.59,2.60
30.08,8.65,6.04,8.65,6.04,-6.04,-6.22,-7.41,2.61,2.60,2.61
30.38,8.64,6.01,8.64,6.02,-6.03,-6.22,-7.47,2.61,2.62,2.63
30.68,8.65,6.01,8.65,6.01,-6.01,-6.22,-7.51,2.64,2.63,2.64
30.99,8.65,5.99,8.65,6.00,-6.00,-6.22,-7.56,2.65,2.65,2.66
31.30,8.66,5.99,8.66,5.99,-5.99,-6.22,-7.58,2.67,2.67,2.67
31.61,8.67,5.98,8.67,5.98,-5.98,-6.22,-7.60,2.69,2.69,2.69
31.93,8.67,5.97,8.67,5.97,-5.97,-6.22,-7.60,2.70,2.70,2.70
32.24,8.67,5.95,8.67,5.96,-5.95,-6.22,-7.60,2.72,2.72,2.72
32.57,8.67,5.94,8.67,5.94,-5.94,-6.22,-7.58,2.73,2.73,2.73
32.89,8.67,5.92,8.67,5.92,-5.93,-6.22,-7.55,2.74,2.74,2.75
33.22,8.67,5.91,8.67,5.91,-5.91,-6.22,-7.52,2.76,2.76,2.76
33.55,8.67,5.89,8.67,5.89,-5.90,-6.22,-7.48,2.77,2.77,2.78
33.89,8.67,5.88,8.67,5.88,-5.88,-6.22,-7.42,2.79,2.79,2.79
34.23,8.67,5.86,8.67,5.87,-5.87,-6.22,-7.37,2.80,2.80,2.81
34.57,8.67,5.85,8.67,5.85,-5.85,-6.22,-7.30,2.82,2.82,2.82
34.92,8.67,5.84,8.67,5.84,-5.84,-6.22,-7.24,2.83,2.83,2.83
35.27,8.67,5.82,8.67,5.83,-5.83,-6.22,-7.16,2.84,2.84,2.85
35.62,8.67,5.81,8.67,5.81,-5.82,-6.22,-7.08,2.85,2.85,2.86
35.97,8.67,5.80,8.67,5.80,-5.80,-6.21,-7.00,2.87,2.87,2.87
36.33,8.67,5.79,8.67,5.79,-5.79,-6.21,-6.92,2.88,2.88,2.88
36.70,8.67,5.78,8.67,5.78,-5.78,-6.21,-6.84,2.89,2.89,2.89
37.06,8.67,5.77,8.67,5.77,-5.76,-6.21,-6.76,2.91,2.90,2.90
37.43,8.66,5.75,8.66,5.76,-5.75,-6.21,-6.67,2.91,2.91,2.91
37.81,8.66,5.74,8.66,5.74,-5.73,-6.21,-6.59,2.93,2.92,2.92
38.19,8.65,5.72,8.65,5.72,-5.72,-6.20,-6.51,2.93,2.93,2.93
38.57,8.64,5.70,8.64,5.71,-5.71,-6.20,-6.43,2.93,2.93,2.94
38.95,8.64,5.69,8.64,5.69,-5.71,-6.20,-6.35,2.93,2.94,2.95
39.34,8.65,5.69,8.65,5.69,-5.70,-6.20,-6.28,2.95,2.95,2.96
39.74,8.67,5.70,8.67,5.70,-5.71,-6.20,-6.21,2.96,2.96,2.97
40.14,8.69,5.72,8.69,5.72,-5.72,-6.19,-6.14,2.97,2.97,2.97
40.54,8.71,5.73,8.71,5.73,-5.73,-6.19,-6.07,2.98,2.98,2.98
40.94,8.74,5.75,8.73,5.75,-5.75,-6.19,-6.01,2.99,2.99,2.99
41.35,8.76,5.76,8.76,5.77,-5.77,-6.19,-5.95,2.99,2.99,3.00
41.76,8.79,5.78,8.79,5.79,-5.79,-6.18,-5.89,3.00,3.00,3.01
42.18,8.83,5.81,8.83,5.81,-5.81,-6.18,-5.84,3.02,3.01,3.02
42.60,8.86,5.83,8.86,5.83,-5.83,-6.18,-5.80,3.03,3.03,3.03
43.03,8.89,5.85,8.89,5.85,-5.85,-6.17,-5.75,3.04,3.04,3.04
43.46,8.92,5.87,8.92,5.87,-5.87,-6.17,-5.71,3.05,3.05,3.05
43.90,8.94,5.88,8.94,5.88,-5.88,-6.16,-5.68,3.06,3.06,3.06
44.33,8.97,5.89,8.97,5.90,-5.89,-6.16,-5.65,3.08,3.07,3.08
44.78,8.99,5.90,8.99,5.90,-5.90,-6.15,-5.62,3.09,3.09,3.09
45.23,9.00,5.90,9.00,5.90,-5.90,-6.15,-5.60,3.10,3.11,3.10
45.68,9.01,5.89,9.01,5.89,-5.89,-6.15,-5.59,3.12,3.12,3.12
46.13,9.01,5.88,9.01,5.88,-5.88,-6.14,-5.57,3.13,3.13,3.13
46.60,9.01,5.86,9.01,5.86,-5.86,-6.13,-5.56,3.15,3.15,3.15
47.06,9.00,5.84,9.00,5.84,-5.84,-6.13,-5.56,3.16,3.16,3.16
47.53,8.99,5.81,8.99,5.82,-5.83,-6.12,-5.56,3.16,3.17,3.18
48.01,8.99,5.80,8.99,5.80,-5.81,-6.12,-5.56,3.18,3.18,3.19
48.49,8.99,5.78,8.99,5.78,-5.79,-6.11,-5.57,3.20,3.20,3.21
48.97,8.99,5.77,8.99,5.77,-5.77,-6.10,-5.58,3.22,3.22,3.22
49.46,8.99,5.75,8.99,5.76,-5.76,-6.09,-5.59,3.23,3.23,3.24
49.96,8.99,5.74,8.99,5.74,-5.74,-6.09,-5.60,3.25,3.25,3.25
50.46,8.99,5.73,8.99,5.73,-5.73,-6.08,-5.62,3.26,3.26,3.26
50.96,8.99,5.71,8.99,5.72,-5.72,-6.07,-5.64,3.27,3.27,3.28
51.47,8.99,5.70,8.99,5.70,-5.70,-6.06,-5.67,3.29,3.29,3.29
51.99,8.99,5.69,8.99,5.69,-5.69,-6.05,-5.69,3.30,3.30,3.30
52.51,8.99,5.68,8.99,5.68,-5.68,-6.04,-5.72,3.31,3.31,3.31
53.03,8.99,5.67,8.99,5.67,-5.67,-6.03,-5.75,3.32,3.32,3.32
53.56,8.99,5.65,8.99,5.66,-5.67,-6.02,-5.78,3.32,3.33,3.34
54.10,9.00,5.65,9.00,5.65,-5.66,-6.01,-5.80,3.34,3.34,3.35
54.64,9.01,5.65,9.01,5.65,-5.65,-6.00,-5.83,3.36,3.35,3.36
55.18,9.01,5.65,9.01,5.65,-5.65,-5.99,-5.86,3.36,3.37,3.36
55.74,9.01,5.64,9.01,5.64,-5.63,-5.98,-5.89,3.37,3.37,3.37
56.29,9.00,5.62,9.00,5.63,-5.62,-5.97,-5.91,3.38,3.38,3.38
56.86,8.99,5.61,8.99,5.61,-5.60,-5.95,-5.94,3.39,3.39,3.38
57.42,8.97,5.58,8.97,5.59,-5.58,-5.94,-5.96,3.39,3.39,3.39
58.00,8.95,5.56,8.95,5.56,-5.56,-5.92,-5.97,3.39,3.39,3.39
58.58,8.92,5.52,8.92,5.53,-5.53,-5.91,-5.99,3.39,3.39,3.40
59.16,8.89,5.49,8.89,5.49,-5.50,-5.89,-6.00,3.39,3.39,3.40
59.76,8.86,5.46,8.86,5.46,-5.46,-5.88,-6.00,3.40,3.40,3.40
60.35,8.83,5.43,8.83,5.43,-5.43,-5.86,-6.01,3.40,3.40,3.40
60.96,8.80,5.40,8.80,5.40,-5.40,-5.85,-6.00,3.40,3.40,3.40
61.57,8.77,5.37,8.77,5.37,-5.37,-5.83,-5.99,3.40,3.40,3.40
62.18,8.74,5.34,8.74,5.34,-5.34,-5.81,-5.98,3.40,3.40,3.40
62.80,8.71,5.31,8.71,5.32,-5.32,-5.79,-5.96,3.39,3.39,3.40
63.43,8.69,5.29,8.69,5.29,-5.30,-5.77,-5.93,3.39,3.39,3.40
64.07,8.67,5.28,8.67,5.28,-5.28,-5.75,-5.91,3.39,3.39,3.39
64.71,8.65,5.26,8.65,5.27,-5.27,-5.73,-5.87,3.38,3.38,3.39
65.35,8.65,5.26,8.65,5.26,-5.26,-5.71,-5.83,3.39,3.38,3.39
66.01,8.64,5.25,8.64,5.26,-5.26,-5.69,-5.78,3.38,3.38,3.39
66.67,8.65,5.26,8.65,5.26,-5.26,-5.67,-5.73,3.39,3.38,3.39
67.33,8.65,5.26,8.65,5.27,-5.27,-5.64,-5.68,3.38,3.38,3.39
68.01,8.66,5.28,8.66,5.28,-5.28,-5.62,-5.62,3.38,3.38,3.38
68.69,8.67,5.29,8.66,5.29,-5.28,-5.59,-5.56,3.39,3.38,3.38
69.37,8.67,5.29,8.67,5.29,-5.29,-5.57,-5.50,3.38,3.38,3.38
70.07,8.67,5.29,8.67,5.30,-5.30,-5.54,-5.43,3.37,3.37,3.38
70.77,8.68,5.30,8.68,5.30,-5.30,-5.52,-5.36,3.38,3.37,3.38
71.48,8.68,5.30,8.68,5.31,-5.30,-5.49,-5.29,3.37,3.38,3.38
72.19,8.69,5.31,8.68,5.31,-5.30,-5.46,-5.22,3.39,3.38,3.38
72.91,8.68,5.29,8.68,5.30,-5.29,-5.43,-5.15,3.39,3.39,3.39
73.64,8.67,5.28,8.67,5.28,-5.28,-5.40,-5.08,3.39,3.39,3.39
74.38,8.66,5.26,8.66,5.26,-5.26,-5.37,-5.01,3.40,3.40,3.40
75.12,8.64,5.24,8.64,5.24,-5.24,-5.34,-4.94,3.40,3.40,3.40
75.87,8.62,5.21,8.62,5.21,-5.21,-5.31,-4.86,3.41,3.41,3.41
76.63,8.59,5.17,8.59,5.17,-5.17,-5.28,-4.79,3.42,3.42,3.42
77.40,8.56,5.13,8.56,5.13,-5.13,-5.24,-4.73,3.43,3.43,3.43
78.17,8.53,5.09,8.53,5.09,-5.10,-5.21,-4.66,3.43,3.43,3.44
78.95,8.50,5.05,8.50,5.05,-5.06,-5.18,-4.60,3.44,3.44,3.45
79.74,8.47,5.01,8.47,5.01,-5.02,-5.14,-4.53,3.45,3.45,3.46
80.54,8.44,4.97,8.44,4.98,-4.98,-5.10,-4.47,3.46,3.46,3.47
81.35,8.42,4.94,8.42,4.95,-4.95,-5.07,-4.41,3.47,3.47,3.48
82.16,8.41,4.92,8.40,4.92,-4.91,-5.03,-4.36,3.50,3.49,3.49
82.98,8.38,4.88,8.38,4.89,-4.88,-4.99,-4.31,3.50,3.50,3.50
83.81,8.36,4.85,8.36,4.85,-4.85,-4.96,-4.26,3.51,3.51,3.51
84.65,8.34,4.82,8.34,4.82,-4.82,-4.92,-4.21,3.52,3.52,3.52
85.50,8.31,4.78,8.31,4.79,-4.79,-4.88,-4.17,3.52,3.52,3.53
86.35,8.29,4.75,8.29,4.75,-4.76,-4.84,-4.12,3.53,3.53,3.54
87.22,8.27,4.72,8.27,4.72,-4.73,-4.80,-4.09,3.54,3.54,3.55
88.09,8.25,4.69,8.25,4.69,-4.69,-4.76,-4.05,3.56,3.56,3.56
88.97,8.23,4.65,8.23,4.66,-4.66,-4.72,-4.02,3.57,3.57,3.58
89.86,8.21,4.62,8.21,4.62,-4.62,-4.68,-3.99,3.59,3.59,3.59
90.76,8.19,4.59,8.19,4.59,-4.58,-4.63,-3.97,3.61,3.61,3.60
91.66,8.16,4.54,8.16,4.54,-4.54,-4.59,-3.94,3.62,3.62,3.62
92.58,8.12,4.49,8.12,4.49,-4.49,-4.55,-3.92,3.63,3.63,3.63
93.51,8.08,4.44,8.08,4.44,-4.44,-4.51,-3.90,3.64,3.64,3.64
94.44,8.04,4.38,8.04,4.39,-4.38,-4.46,-3.89,3.65,3.65,3.66
95.39,8.00,4.33,8.00,4.33,-4.33,-4.42,-3.88,3.67,3.66,3.67
96.34,7.96,4.27,7.96,4.27,-4.28,-4.38,-3.87,3.67,3.67,3.69
97.30,7.92,4.22,7.92,4.23,-4.24,-4.34,-3.86,3.68,3.68,3.70
98.28,7.89,4.18,7.89,4.18,-4.19,-4.29,-3.86,3.70,3.70,3.71
99.26,7.87,4.15,7.87,4.15,-4.15,-4.25,-3.86,3.72,3.72,3.72
100.25,7.85,4.11,7.85,4.12,-4.11,-4.21,-3.86,3.74,3.74,3.74
101.25,7.83,4.08,7.83,4.08,-4.07,-4.16,-3.86,3.76,3.76,3.75
102.27,7.80,4.04,7.79,4.04,-4.03,-4.12,-3.86,3.77,3.77,3.76
103.29,7.75,3.99,7.75,3.99,-3.98,-4.08,-3.87,3.77,3.77,3.76
104.32,7.71,3.94,7.71,3.94,-3.94,-4.04,-3.87,3.77,3.77,3.77
105.37,7.66,3.88,7.66,3.89,-3.89,-3.99,-3.88,3.77,3.77,3.78
106.42,7.62,3.84,7.62,3.84,-3.85,-3.95,-3.89,3.77,3.77,3.78
107.48,7.58,3.80,7.58,3.80,-3.81,-3.91,-3.90,3.77,3.77,3.78
108.56,7.54,3.76,7.55,3.77,-3.78,-3.87,-3.90,3.76,3.77,3.78
109.64,7.52,3.74,7.52,3.74,-3.75,-3.83,-3.91,3.77,3.77,3.78
110.74,7.50,3.72,7.50,3.72,-3.72,-3.79,-3.92,3.78,3.78,3.78
111.85,7.48,3.70,7.48,3.71,-3.70,-3.75,-3.93,3.78,3.78,3.78
112.97,7.46,3.69,7.46,3.69,-3.68,-3.71,-3.93,3.78,3.78,3.77
114.10,7.43,3.66,7.43,3.66,-3.65,-3.67,-3.94,3.78,3.77,3.77
115.24,7.39,3.63,7.39,3.63,-3.63,-3.64,-3.94,3.76,3.76,3.76
116.39,7.36,3.60,7.36,3.60,-3.60,-3.60,-3.94,3.76,3.75,3.76
117.55,7.32,3.57,7.32,3.57,-3.58,-3.57,-3.94,3.74,3.74,3.75
118.73,7.29,3.54,7.29,3.54,-3.55,-3.53,-3.94,3.74,3.74,3.75
119.92,7.26,3.52,7.26,3.52,-3.52,-3.50,-3.93,3.73,3.73,3.74
121.12,7.23,3.49,7.24,3.50,-3.50,-3.47,-3.92,3.73,3.74,3.74
122.33,7.22,3.48,7.21,3.48,-3.47,-3.43,-3.91,3.75,3.74,3.74
123.55,7.19,3.45,7.19,3.45,-3.44,-3.40,-3.90,3.74,3.74,3.74
124.79,7.16,3.42,7.16,3.42,-3.42,-3.38,-3.88,3.74,3.74,3.74
126.03,7.13,3.39,7.13,3.39,-3.39,-3.35,-3.86,3.74,3.74,3.74
127.29,7.10,3.36,7.10,3.37,-3.37,-3.32,-3.83,3.73,3.74,3.74
128.57,7.08,3.34,7.08,3.34,-3.34,-3.29,-3.80,3.74,3.73,3.74
129.85,7.06,3.32,7.06,3.32,-3.32,-3.27,-3.77,3.73,3.73,3.74
131.15,7.04,3.30,7.04,3.30,-3.31,-3.25,-3.73,3.73,3.73,3.74
132.46,7.03,3.29,7.03,3.29,-3.30,-3.23,-3.70,3.73,3.73,3.74
133.79,7.03,3.28,7.03,3.29,-3.30,-3.20,-3.66,3.73,3.73,3.75
135.12,7.04,3.29,7.04,3.29,-3.30,-3.18,-3.61,3.74,3.74,3.75
136.48,7.05,3.30,7.05,3.30,-3.30,-3.17,-3.57,3.75,3.75,3.75
137.84,7.06,3.31,7.05,3.31,-3.29,-3.15,-3.52,3.77,3.76,3.75
139.22,7.05,3.30,7.05,3.30,-3.29,-3.13,-3.47,3.76,3.76,3.75
140.61,7.04,3.29,7.04,3.29,-3.28,-3.12,-3.42,3.76,3.76,3.75
142.02,7.02,3.26,7.02,3.27,-3.27,-3.10,-3.36,3.75,3.75,3.76
143.44,7.00,3.24,7.00,3.24,-3.25,-3.09,-3.31,3.75,3.75,3.76
144.87,6.97,3.21,6.97,3.22,-3.22,-3.08,-3.26,3.75,3.75,3.76
146.32,6.95,3.20,6.95,3.20,-3.20,-3.07,-3.20,3.75,3.75,3.75
147.78,6.92,3.17,6.92,3.17,-3.17,-3.05,-3.15,3.74,3.74,3.75
149.26,6.89,3.14,6.89,3.15,-3.15,-3.04,-3.09,3.74,3.74,3.75
150.75,6.87,3.12,6.87,3.12,-3.12,-3.03,-3.03,3.75,3.74,3.75
152.26,6.84,3.09,6.84,3.10,-3.10,-3.02,-2.98,3.74,3.75,3.75
153.78,6.82,3.08,6.81,3.07,-3.07,-3.01,-2.93,3.75,3.75,3.74
155.32,6.78,3.04,6.78,3.04,-3.04,-3.00,-2.87,3.74,3.74,3.74
156.88,6.75,3.01,6.75,3.01,-3.01,-2.99,-2.82,3.74,3.74,3.74
158.44,6.71,2.97,6.71,2.98,-2.98,-2.98,-2.77,3.73,3.73,3.74
160.03,6.68,2.95,6.68,2.95,-2.95,-2.97,-2.72,3.73,3.72,3.73
161.63,6.64,2.91,6.64,2.92,-2.93,-2.95,-2.67,3.71,3.71,3.73
163.24,6.61,2.89,6.61,2.89,-2.91,-2.94,-2.62,3.70,3.71,3.72
164.88,6.59,2.87,6.59,2.88,-2.89,-2.92,-2.57,3.70,3.71,3.72
166.53,6.58,2.87,6.58,2.87,-2.87,-2.90,-2.53,3.71,3.71,3.71
168.19,6.56,2.86,6.56,2.86,-2.85,-2.88,-2.48,3.71,3.71,3.70
169.87,6.54,2.85,6.53,2.85,-2.83,-2.86,-2.44,3.70,3.70,3.69
171.57,6.50,2.82,6.50,2.82,-2.82,-2.84,-2.40,3.68,3.68,3.68
173.29,6.46,2.79,6.46,2.80,-2.80,-2.81,-2.36,3.66,3.67,3.67
175.02,6.43,2.77,6.43,2.77,-2.78,-2.79,-2.33,3.65,3.65,3.66
176.77,6.39,2.75,6.39,2.75,-2.76,-2.76,-2.29,3.63,3.64,3.64
178.54,6.36,2.73,6.36,2.73,-2.73,-2.73,-2.26,3.63,3.62,3.63
180.32,6.32,2.71,6.32,2.71,-2.71,-2.70,-2.23,3.61,3.61,3.61
182.13,6.28,2.68,6.28,2.69,-2.69,-2.67,-2.20,3.59,3.59,3.60
183.95,6.24,2.66,6.24,2.67,-2.67,-2.63,-2.17,3.57,3.57,3.58
185.79,6.21,2.65,6.21,2.65,-2.65,-2.60,-2.14,3.56,3.56,3.56
187.65,6.17,2.62,6.17,2.63,-2.62,-2.56,-2.12,3.55,3.55,3.55
189.52,6.13,2.60,6.12,2.60,-2.59,-2.53,-2.09,3.54,3.54,3.53
191.42,6.07,2.56,6.07,2.56,-2.55,-2.49,-2.07,3.52,3.52,3.51
193.33,6.01,2.52,6.01,2.52,-2.52,-2.45,-2.05,3.49,3.49,3.49
195.27,5.95,2.47,5.95,2.48,-2.48,-2.42,-2.03,3.47,3.47,3.48
197.22,5.89,2.43,5.89,2.43,-2.44,-2.38,-2.01,3.45,3.45,3.46
199.19,5.83,2.39,5.83,2.40,-2.40,-2.34,-2.00,3.43,3.43,3.44
201.18,5.77,2.36,5.77,2.36,-2.36,-2.31,-1.98,3.41,3.41,3.41
203.19,5.71,2.32,5.71,2.32,-2.32,-2.27,-1.97,3.39,3.39,3.39
205.23,5.65,2.28,5.65,2.29,-2.28,-2.23,-1.95,3.37,3.37,3.37
207.28,5.60,2.25,5.60,2.25,-2.25,-2.20,-1.94,3.35,3.35,3.35
209.35,5.54,2.21,5.54,2.21,-2.21,-2.16,-1.93,3.33,3.33,3.33
211.44,5.47,2.17,5.47,2.17,-2.17,-2.12,-1.92,3.30,3.30,3.30
213.56,5.40,2.12,5.40,2.13,-2.13,-2.09,-1.91,3.27,3.27,3.28
215.69,5.33,2.08,5.33,2.09,-2.09,-2.06,-1.90,3.24,3.24,3.25
217.85,5.27,2.05,5.27,2.05,-2.05,-2.02,-1.89,3.22,3.22,3.22
220.03,5.21,2.01,5.21,2.01,-2.01,-1.99,-1.89,3.20,3.20,3.20
222.23,5.15,1.97,5.15,1.98,-1.98,-1.96,-1.88,3.17,3.17,3.18
224.45,5.09,1.94,5.09,1.94,-1.94,-1.93,-1.87,3.15,3.15,3.15
226.70,5.03,1.90,5.03,1.90,-1.90,-1.89,-1.86,3.13,3.13,3.13
228.96,4.97,1.86,4.97,1.87,-1.86,-1.86,-1.86,3.11,3.11,3.11
231.25,4.92,1.83,4.92,1.83,-1.83,-1.83,-1.85,3.09,3.09,3.09
233.57,4.86,1.78,4.86,1.79,-1.79,-1.80,-1.84,3.07,3.07,3.08
235.90,4.81,1.75,4.81,1.75,-1.75,-1.77,-1.83,3.05,3.05,3.06
238.26,4.76,1.71,4.76,1.71,-1.72,-1.74,-1.83,3.04,3.04,3.05
240.64,4.72,1.68,4.72,1.68,-1.68,-1.72,-1.82,3.03,3.04,3.04
243.05,4.68,1.65,4.68,1.65,-1.65,-1.69,-1.81,3.03,3.03,3.03
245.48,4.64,1.62,4.64,1.62,-1.61,-1.66,-1.80,3.03,3.02,3.02
247.93,4.59,1.58,4.59,1.58,-1.58,-1.63,-1.79,3.01,3.01,3.01
250.41,4.54,1.54,4.54,1.54,-1.54,-1.60,-1.78,3.00,3.00,3.00
252.92,4.49,1.50,4.49,1.51,-1.50,-1.58,-1.76,2.98,2.99,2.99
255.45,4.45,1.47,4.45,1.47,-1.47,-1.55,-1.75,2.98,2.98,2.98
258.00,4.40,1.43,4.40,1.43,-1.43,-1.52,-1.74,2.97,2.97,2.97
260.58,4.36,1.39,4.36,1.40,-1.40,-1.49,-1.72,2.96,2.96,2.97
263.19,4.32,1.36,4.32,1.36,-1.37,-1.47,-1.71,2.95,2.95,2.96
265.82,4.28,1.33,4.28,1.33,-1.34,-1.44,-1.69,2.94,2.94,2.95
268.48,4.25,1.31,4.25,1.31,-1.31,-1.41,-1.68,2.94,2.94,2.94
271.16,4.22,1.29,4.22,1.29,-1.29,-1.38,-1.66,2.93,2.93,2.93
273.87,4.19,1.27,4.19,1.27,-1.26,-1.36,-1.65,2.93,2.92,2.92
276.61,4.15,1.24,4.15,1.25,-1.24,-1.33,-1.63,2.91,2.91,2.91
279.38,4.12,1.22,4.12,1.22,-1.22,-1.30,-1.61,2.90,2.90,2.90
282.17,4.08,1.19,4.08,1.19,-1.20,-1.27,-1.60,2.88,2.88,2.89
284.99,4.04,1.16,4.04,1.17,-1.18,-1.24,-1.58,2.86,2.87,2.88
287.84,4.01,1.14,4.01,1.15,-1.16,-1.21,-1.56,2.85,2.86,2.87
290.72,3.99,1.13,3.99,1.13,-1.13,-1.19,-1.54,2.85,2.85,2.86
293.63,3.97,1.12,3.97,1.12,-1.11,-1.16,-1.53,2.86,2.85,2.85
296.57,3.94,1.10,3.94,1.10,-1.09,-1.13,-1.51,2.85,2.85,2.84
299.53,3.90,1.07,3.90,1.08,-1.06,-1.10,-1.50,2.84,2.84,2.83
302.53,3.86,1.04,3.86,1.04,-1.04,-1.07,-1.48,2.82,2.82,2.82
305.55,3.81,1.01,3.81,1.01,-1.01,-1.04,-1.47,2.80,2.80,2.80
308.61,3.76,0.97,3.76,0.98,-0.98,-1.01,-1.45,2.78,2.78,2.79
311.69,3.72,0.94,3.72,0.94,-0.95,-0.98,-1.44,2.77,2.77,2.78
314.81,3.67,0.91,3.67,0.91,-0.93,-0.95,-1.43,2.74,2.75,2.76
317.96,3.64,0.89,3.64,0.89,-0.91,-0.93,-1.42,2.73,2.73,2.75
321.14,3.61,0.88,3.61,0.88,-0.89,-0.90,-1.41,2.72,2.72,2.73
324.35,3.59,0.87,3.59,0.87,-0.88,-0.87,-1.40,2.71,2.71,2.72
327.59,3.57,0.87,3.57,0.87,-0.87,-0.85,-1.39,2.70,2.70,2.70
330.87,3.55,0.86,3.55,0.87,-0.86,-0.82,-1.38,2.69,2.70,2.69
334.18,3.53,0.86,3.53,0.86,-0.85,-0.80,-1.37,2.68,2.68,2.67
337.52,3.50,0.84,3.50,0.84,-0.83,-0.77,-1.37,2.66,2.66,2.66
340.90,3.46,0.82,3.46,0.82,-0.82,-0.75,-1.36,2.63,2.64,2.64
344.30,3.43,0.80,3.43,0.81,-0.81,-0.73,-1.36,2.61,2.61,2.63
347.75,3.40,0.79,3.40,0.79,-0.81,-0.71,-1.36,2.59,2.60,2.61
351.23,3.38,0.79,3.38,0.79,-0.80,-0.70,-1.36,2.58,2.58,2.59
354.74,3.36,0.78,3.36,0.79,-0.79,-0.68,-1.35,2.57,2.57,2.58
358.28,3.34,0.78,3.34,0.78,-0.78,-0.67,-1.36,2.56,2.56,2.56
361.87,3.32,0.78,3.32,0.78,-0.77,-0.66,-1.36,2.54,2.55,2.54
365.49,3.30,0.77,3.30,0.77,-0.77,-0.65,-1.36,2.53,2.53,2.53
369.14,3.27,0.76,3.27,0.76,-0.75,-0.65,-1.36,2.51,2.52,2.51
372.83,3.24,0.74,3.24,0.74,-0.74,-0.64,-1.37,2.50,2.50,2.50
376.56,3.20,0.72,3.20,0.72,-0.72,-0.64,-1.37,2.48,2.48,2.48
380.33,3.16,0.70,3.16,0.70,-0.70,-0.64,-1.38,2.46,2.46,2.46
384.13,3.12,0.67,3.12,0.68,-0.68,-0.64,-1.39,2.44,2.44,2.45
387.97,3.09,0.66,3.09,0.66,-0.66,-0.65,-1.39,2.43,2.43,2.43
391.85,3.05,0.63,3.05,0.63,-0.64,-0.65,-1.40,2.41,2.41,2.42
395.77,3.02,0.61,3.02,0.61,-0.62,-0.66,-1.41,2.40,2.40,2.41
399.73,2.99,0.59,2.99,0.59,-0.60,-0.67,-1.42,2.39,2.39,2.40
403.72,2.97,0.58,2.97,0.58,-0.58,-0.68,-1.43,2.39,2.39,2.39
407.76,2.94,0.56,2.94,0.57,-0.56,-0.69,-1.44,2.38,2.38,2.38
411.84,2.92,0.56,2.92,0.56,-0.55,-0.70,-1.45,2.37,2.37,2.36
415.96,2.89,0.54,2.89,0.54,-0.53,-0.71,-1.46,2.36,2.35,2.35
420.12,2.86,0.52,2.86,0.52,-0.53,-0.73,-1.47,2.33,2.34,2.34
424.32,2.84,0.51,2.84,0.51,-0.52,-0.74,-1.48,2.32,2.32,2.33
428.56,2.82,0.50,2.82,0.51,-0.52,-0.75,-1.49,2.29,2.30,2.32
432.85,2.82,0.52,2.82,0.52,-0.53,-0.77,-1.50,2.29,2.29,2.30
437.18,2.82,0.53,2.82,0.53,-0.54,-0.78,-1.51,2.28,2.28,2.29
441.55,2.83,0.55,2.83,0.56,-0.56,-0.79,-1.52,2.27,2.27,2.28
445.96,2.84,0.58,2.84,0.58,-0.57,-0.81,-1.53,2.27,2.26,2.26
450.42,2.84,0.60,2.84,0.60,-0.59,-0.82,-1.53,2.25,2.25,2.24
454.93,2.83,0.60,2.83,0.61,-0.60,-0.83,-1.53,2.23,2.23,2.23
459.48,2.82,0.61,2.82,0.61,-0.60,-0.84,-1.54,2.21,2.21,2.21
464.07,2.79,0.60,2.79,0.61,-0.60,-0.85,-1.54,2.18,2.19,2.19
468.71,2.77,0.60,2.77,0.60,-0.60,-0.86,-1.53,2.17,2.17,2.17
473.40,2.74,0.58,2.74,0.59,-0.58,-0.87,-1.53,2.16,2.16,2.16
478.13,2.71,0.57,2.71,0.57,-0.57,-0.88,-1.52,2.14,2.14,2.14
482.91,2.68,0.55,2.68,0.55,-0.54,-0.89,-1.51,2.14,2.13,2.13
487.74,2.64,0.53,2.64,0.53,-0.52,-0.90,-1.50,2.12,2.12,2.11
492.62,2.60,0.50,2.60,0.50,-0.50,-0.91,-1.49,2.10,2.10,2.10
497.55,2.56,0.47,2.56,0.48,-0.48,-0.91,-1.47,2.08,2.08,2.09
502.52,2.54,0.46,2.54,0.46,-0.47,-0.92,-1.45,2.07,2.07,2.08
507.55,2.52,0.45,2.52,0.46,-0.47,-0.92,-1.43,2.05,2.05,2.07
512.62,2.52,0.47,2.52,0.47,-0.47,-0.93,-1.40,2.05,2.04,2.05
517.75,2.52,0.48,2.52,0.48,-0.49,-0.93,-1.38,2.03,2.03,2.04
522.93,2.53,0.51,2.53,0.51,-0.52,-0.93,-1.35,2.01,2.01,2.02
528.16,2.55,0.55,2.55,0.55,-0.56,-0.93,-1.31,1.99,1.99,2.00
533.44,2.58,0.60,2.58,0.60,-0.61,-0.93,-1.28,1.97,1.97,1.98
538.77,2.62,0.66,2.62,0.66,-0.66,-0.93,-1.24,1.96,1.96,1.96
544.16,2.66,0.72,2.66,0.72,-0.72,-0.93,-1.20,1.94,1.94,1.94
