frequency,raw,error,smoothed,error_smoothed,equalization,parametric_eq,fixed_band_eq,equalized_raw,equalized_smoothed,target
20.00,-3.07,-7.96,-3.07,-7.97,6.00,6.18,2.75,2.93,2.93,4.89
20.20,-3.05,-7.93,-3.05,-7.93,6.00,6.18,2.83,2.95,2.95,4.88
20.40,-3.03,-7.89,-3.03,-7.90,6.00,6.18,2.91,2.97,2.97,4.86
20.61,-3.01,-7.86,-3.01,-7.86,6.00,6.18,3.00,2.99,2.99,4.85
20.81,-2.99,-7.82,-2.99,-7.83,6.00,6.17,3.08,3.01,3.01,4.83
21.02,-2.97,-7.79,-2.97,-7.79,6.00,6.17,3.17,3.03,3.03,4.82
21.23,-2.95,-7.76,-2.95,-7.76,6.00,6.17,3.26,3.05,3.05,4.81
21.44,-2.93,-7.73,-2.93,-7.72,6.00,6.17,3.35,3.07,3.07,4.80
21.66,-2.90,-7.68,-2.91,-7.69,6.00,6.17,3.45,3.10,3.09,4.78
21.87,-2.88,-7.66,-2.88,-7.66,6.00,6.17,3.54,3.12,3.12,4.78
22.09,-2.86,-7.63,-2.86,-7.63,6.00,6.17,3.64,3.14,3.14,4.77
22.31,-2.84,-7.60,-2.84,-7.60,6.00,6.17,3.75,3.16,3.16,4.75
22.54,-2.82,-7.57,-2.82,-7.56,6.00,6.17,3.85,3.18,3.18,4.74
22.76,-2.79,-7.53,-2.80,-7.53,6.00,6.16,3.96,3.21,3.20,4.73
22.99,-2.77,-7.51,-2.78,-7.51,6.00,6.16,4.07,3.23,3.22,4.73
23.22,-2.77,-7.50,-2.77,-7.50,6.00,6.16,4.19,3.23,3.23,4.72
23.45,-2.77,-7.50,-2.78,-7.50,6.00,6.16,4.30,3.23,3.22,4.72
23.69,-2.77,-7.49,-2.78,-7.50,6.00,6.16,4.42,3.23,3.22,4.72
23.92,-2.77,-7.49,-2.76,-7.48,6.00,6.16,4.54,3.23,3.24,4.72
24.16,-2.72,-7.44,-2.72,-7.44,6.00,6.16,4.67,3.28,3.28,4.72
24.40,-2.65,-7.37,-2.65,-7.37,6.00,6.15,4.79,3.35,3.35,4.72
24.65,-2.58,-7.30,-2.58,-7.30,6.00,6.15,4.92,3.42,3.42,4.72
24.89,-2.51,-7.23,-2.53,-7.24,6.00,6.15,5.05,3.49,3.47,4.72
25.14,-2.49,-7.21,-2.51,-7.22,6.00,6.15,5.18,3.51,3.49,4.72
25.39,-2.52,-7.24,-2.51,-7.23,6.00,6.15,5.32,3.48,3.49,4.71
25.65,-2.54,-7.25,-2.54,-7.25,6.00,6.15,5.45,3.46,3.46,4.70
25.91,-2.56,-7.27,-2.56,-7.26,6.00,6.14,5.58,3.44,3.44,4.70
26.16,-2.57,-7.27,-2.57,-7.27,6.00,6.14,5.72,3.43,3.43,4.69
26.43,-2.57,-7.26,-2.57,-7.26,6.00,6.14,5.85,3.43,3.43,4.69
26.69,-2.57,-7.25,-2.57,-7.25,6.00,6.14,5.98,3.43,3.43,4.68
26.96,-2.57,-7.24,-2.58,-7.25,6.00,6.14,6.11,3.43,3.42,4.67
27.23,-2.58,-7.25,-2.59,-7.25,6.00,6.13,6.24,3.42,3.41,4.67
27.50,-2.60,-7.26,-2.61,-7.27,6.00,6.13,6.37,3.40,3.39,4.65
27.77,-2.62,-7.27,-2.62,-7.26,6.00,6.13,6.49,3.38,3.38,4.64
28.05,-2.61,-7.25,-2.59,-7.23,6.00,6.13,6.61,3.39,3.41,4.63
28.33,-2.51,-7.14,-2.51,-7.14,6.00,6.13,6.72,3.49,3.49,4.63
28.62,-2.42,-7.04,-2.41,-7.04,6.00,6.12,6.83,3.58,3.59,4.63
28.90,-2.30,-6.92,-2.33,-6.96,6.00,6.12,6.93,3.70,3.67,4.62
29.19,-2.29,-6.92,-2.30,-6.93,6.00,6.12,7.03,3.71,3.70,4.63
29.48,-2.32,-6.95,-2.31,-6.94,6.00,6.12,7.12,3.68,3.69,4.62
29.78,-2.35,-6.98,-2.35,-6.97,6.00,6.11,7.20,3.65,3.65,4.62
30.08,-2.37,-6.99,-2.37,-6.99,6.00,6.11,7.26,3.63,3.63,4.62
30.38,-2.37,-6.99,-2.37,-6.99,6.00,6.11,7.33,3.63,3.63,4.62
30.68,-2.37,-6.99,-2.38,-6.99,6.00,6.10,7.37,3.63,3.62,4.62
30.99,-2.37,-6.99,-2.38,-6.99,6.00,6.10,7.41,3.63,3.62,4.61
31.30,-2.38,-7.00,-2.39,-7.00,6.00,6.10,7.44,3.62,3.61,4.61
31.61,-2.39,-7.00,-2.40,-7.01,6.00,6.09,7.46,3.61,3.60,4.61
31.93,-2.40,-7.01,-2.39,-7.00,6.00,6.09,7.47,3.60,3.61,4.61
32.24,-2.37,-6.97,-2.37,-6.97,6.00,6.09,7.47,3.63,3.63,4.60
32.57,-2.33,-6.93,-2.33,-6.93,6.00,6.08,7.45,3.67,3.67,4.59
32.89,-2.28,-6.87,-2.30,-6.89,6.00,6.08,7.44,3.72,3.70,4.59
33.22,-2.27,-6.86,-2.28,-6.87,6.00,6.08,7.40,3.73,3.72,4.59
33.55,-2.27,-6.86,-2.27,-6.85,6.00,6.07,7.37,3.73,3.73,4.58
33.89,-2.27,-6.85,-2.27,-6.84,6.00,6.07,7.32,3.73,3.73,4.57
34.23,-2.24,-6.81,-2.23,-6.80,6.00,6.06,7.27,3.76,3.77,4.57
34.57,-2.19,-6.76,-2.19,-6.76,6.00,6.06,7.21,3.81,3.81,4.57
34.92,-2.14,-6.71,-2.16,-6.72,6.00,6.05,7.15,3.86,3.84,4.56
35.27,-2.14,-6.70,-2.15,-6.70,6.00,6.05,7.09,3.86,3.85,4.56
35.62,-2.15,-6.71,-2.15,-6.70,6.00,6.04,7.02,3.85,3.85,4.56
35.97,-2.17,-6.72,-2.17,-6.71,6.00,6.04,6.95,3.83,3.83,4.54
36.33,-2.17,-6.71,-2.17,-6.71,6.00,6.03,6.87,3.83,3.83,4.54
36.70,-2.17,-6.71,-2.17,-6.71,6.00,6.03,6.80,3.83,3.83,4.53
37.06,-2.17,-6.70,-2.18,-6.70,6.00,6.02,6.72,3.83,3.82,4.53
37.43,-2.17,-6.69,-2.18,-6.70,6.00,6.02,6.65,3.83,3.82,4.52
37.81,-2.18,-6.70,-2.18,-6.69,6.00,6.01,6.57,3.82,3.82,4.51
38.19,-2.16,-6.66,-2.15,-6.65,6.00,6.00,6.50,3.84,3.85,4.50
38.57,-2.12,-6.61,-2.12,-6.61,6.00,6.00,6.43,3.88,3.88,4.48
38.95,-2.07,-6.54,-2.09,-6.56,6.00,5.99,6.36,3.93,3.91,4.47
39.34,-2.07,-6.54,-2.07,-6.53,6.00,5.98,6.30,3.93,3.93,4.46
39.74,-2.07,-6.52,-2.07,-6.52,6.00,5.98,6.23,3.93,3.93,4.45
40.14,-2.07,-6.51,-2.07,-6.51,6.00,5.97,6.17,3.93,3.93,4.43
40.54,-2.07,-6.49,-2.07,-6.49,6.00,5.96,6.12,3.93,3.93,4.42
40.94,-2.07,-6.48,-2.07,-6.48,6.00,5.96,6.06,3.93,3.93,4.41
41.35,-2.07,-6.48,-2.07,-6.47,6.00,5.95,6.01,3.93,3.93,4.40
41.76,-2.07,-6.47,-2.08,-6.48,6.00,5.94,5.97,3.93,3.92,4.40
42.18,-2.08,-6.48,-2.11,-6.50,6.00,5.93,5.93,3.92,3.89,4.39
42.60,-2.12,-6.51,-2.12,-6.51,6.00,5.92,5.89,3.88,3.88,4.38
43.03,-2.14,-6.52,-2.10,-6.47,6.00,5.91,5.86,3.86,3.90,4.38
43.46,-2.02,-6.39,-2.03,-6.40,6.00,5.90,5.83,3.98,3.97,4.37
43.90,-1.92,-6.29,-1.95,-6.32,6.00,5.89,5.81,4.08,4.05,4.37
44.33,-1.87,-6.24,-1.88,-6.24,6.00,5.88,5.79,4.13,4.12,4.37
44.78,-1.86,-6.22,-1.86,-6.21,6.00,5.87,5.77,4.14,4.14,4.36
45.23,-1.85,-6.20,-1.86,-6.21,6.00,5.86,5.76,4.15,4.14,4.35
45.68,-1.86,-6.20,-1.86,-6.20,6.00,5.85,5.75,4.14,4.14,4.34
46.13,-1.87,-6.21,-1.87,-6.20,6.00,5.84,5.75,4.13,4.13,4.33
46.60,-1.87,-6.20,-1.87,-6.20,6.00,5.83,5.75,4.13,4.13,4.32
47.06,-1.87,-6.19,-1.87,-6.18,6.00,5.82,5.76,4.13,4.13,4.31
47.53,-1.87,-6.18,-1.87,-6.17,6.00,5.80,5.77,4.13,4.13,4.30
48.01,-1.87,-6.16,-1.90,-6.18,6.00,5.79,5.79,4.13,4.11,4.28
48.49,-1.91,-6.19,-1.92,-6.19,6.00,5.78,5.80,4.09,4.08,4.27
48.97,-1.95,-6.20,-1.91,-6.16,6.00,5.76,5.82,4.05,4.09,4.25
49.46,-1.87,-6.11,-1.87,-6.11,6.00,5.75,5.85,4.13,4.13,4.24
49.96,-1.78,-6.01,-1.82,-6.05,5.99,5.73,5.88,4.21,4.18,4.23
50.46,-1.77,-5.99,-1.77,-5.99,5.99,5.72,5.91,4.21,4.21,4.22
50.96,-1.77,-5.99,-1.77,-5.98,5.98,5.70,5.94,4.21,4.21,4.21
51.47,-1.77,-5.97,-1.77,-5.97,5.97,5.69,5.97,4.19,4.20,4.20
51.99,-1.77,-5.96,-1.77,-5.96,5.96,5.67,6.01,4.18,4.18,4.19
52.51,-1.77,-5.94,-1.77,-5.94,5.94,5.65,6.05,4.17,4.17,4.16
53.03,-1.77,-5.92,-1.77,-5.92,5.93,5.63,6.08,4.15,4.15,4.15
53.56,-1.77,-5.91,-1.77,-5.91,5.91,5.62,6.12,4.14,4.14,4.13
54.10,-1.77,-5.89,-1.77,-5.89,5.90,5.60,6.16,4.13,4.13,4.12
54.64,-1.77,-5.88,-1.77,-5.88,5.89,5.58,6.20,4.11,4.11,4.10
55.18,-1.77,-5.86,-1.77,-5.86,5.87,5.56,6.23,4.09,4.09,4.08
55.74,-1.77,-5.84,-1.78,-5.85,5.84,5.54,6.27,4.07,4.06,4.07
56.29,-1.77,-5.82,-1.78,-5.83,5.80,5.51,6.30,4.03,4.03,4.05
56.86,-1.77,-5.81,-1.76,-5.80,5.76,5.49,6.33,3.99,4.00,4.03
57.42,-1.73,-5.75,-1.73,-5.74,5.71,5.47,6.35,3.98,3.99,4.01
58.00,-1.67,-5.67,-1.67,-5.67,5.67,5.45,6.37,3.99,3.99,3.99
58.58,-1.61,-5.59,-1.62,-5.59,5.62,5.42,6.39,4.00,4.00,3.97
59.16,-1.56,-5.52,-1.58,-5.53,5.57,5.40,6.40,4.00,3.99,3.95
59.76,-1.56,-5.50,-1.56,-5.49,5.52,5.37,6.40,3.96,3.96,3.93
60.35,-1.56,-5.47,-1.56,-5.47,5.48,5.35,6.40,3.92,3.92,3.91
60.96,-1.56,-5.46,-1.56,-5.46,5.45,5.32,6.39,3.88,3.88,3.90
61.57,-1.56,-5.44,-1.56,-5.44,5.42,5.29,6.37,3.86,3.86,3.88
62.18,-1.56,-5.42,-1.56,-5.41,5.40,5.26,6.35,3.84,3.84,3.85
62.80,-1.56,-5.38,-1.56,-5.38,5.39,5.23,6.32,3.82,3.82,3.82
63.43,-1.56,-5.36,-1.56,-5.35,5.37,5.20,6.28,3.80,3.80,3.79
64.07,-1.56,-5.32,-1.56,-5.32,5.34,5.17,6.23,3.77,3.78,3.76
64.71,-1.56,-5.29,-1.58,-5.31,5.30,5.14,6.17,3.73,3.71,3.73
65.35,-1.58,-5.28,-1.59,-5.29,5.25,5.11,6.11,3.67,3.66,3.69
66.01,-1.63,-5.30,-1.58,-5.24,5.21,5.07,6.05,3.57,3.63,3.66
66.67,-1.52,-5.15,-1.54,-5.17,5.16,5.04,5.97,3.63,3.61,3.62
67.33,-1.47,-5.07,-1.50,-5.09,5.11,5.00,5.89,3.63,3.61,3.60
68.01,-1.46,-5.02,-1.46,-5.02,5.05,4.97,5.81,3.59,3.60,3.55
68.69,-1.46,-4.99,-1.46,-4.98,5.00,4.93,5.71,3.54,3.54,3.52
69.37,-1.46,-4.95,-1.46,-4.95,4.95,4.89,5.62,3.48,3.49,3.48
70.07,-1.46,-4.91,-1.46,-4.91,4.90,4.85,5.52,3.44,3.44,3.45
70.77,-1.46,-4.87,-1.46,-4.87,4.86,4.82,5.42,3.40,3.40,3.41
71.48,-1.46,-4.83,-1.46,-4.83,4.83,4.77,5.31,3.37,3.37,3.37
72.19,-1.46,-4.79,-1.46,-4.79,4.80,4.73,5.21,3.34,3.34,3.33
72.91,-1.46,-4.75,-1.46,-4.75,4.77,4.69,5.10,3.31,3.31,3.29
73.64,-1.46,-4.72,-1.47,-4.72,4.73,4.65,4.99,3.27,3.27,3.25
74.38,-1.47,-4.69,-1.49,-4.70,4.68,4.60,4.87,3.21,3.20,3.21
75.12,-1.49,-4.67,-1.49,-4.66,4.63,4.56,4.76,3.13,3.14,3.18
75.87,-1.50,-4.63,-1.47,-4.60,4.56,4.51,4.65,3.06,3.09,3.13
76.63,-1.41,-4.50,-1.44,-4.52,4.49,4.46,4.54,3.08,3.06,3.09
77.40,-1.36,-4.41,-1.38,-4.42,4.42,4.42,4.43,3.06,3.04,3.05
78.17,-1.34,-4.35,-1.32,-4.32,4.35,4.37,4.32,3.00,3.03,3.00
78.95,-1.26,-4.23,-1.28,-4.24,4.27,4.32,4.21,3.01,2.99,2.96
79.74,-1.24,-4.16,-1.26,-4.17,4.20,4.27,4.10,2.96,2.95,2.92
80.54,-1.25,-4.13,-1.25,-4.12,4.14,4.21,4.00,2.88,2.89,2.87
81.35,-1.26,-4.09,-1.26,-4.09,4.08,4.16,3.89,2.82,2.82,2.83
82.16,-1.26,-4.05,-1.26,-4.04,4.03,4.11,3.79,2.77,2.77,2.78
82.98,-1.26,-3.99,-1.26,-4.00,3.99,4.05,3.69,2.72,2.72,2.73
83.81,-1.26,-3.94,-1.26,-3.94,3.95,4.00,3.60,2.68,2.68,2.68
84.65,-1.26,-3.90,-1.26,-3.89,3.90,3.94,3.50,2.64,2.64,2.63
85.50,-1.26,-3.84,-1.26,-3.84,3.85,3.88,3.41,2.58,2.58,2.57
86.35,-1.26,-3.79,-1.28,-3.80,3.79,3.83,3.32,2.52,2.51,2.52
87.22,-1.27,-3.74,-1.28,-3.74,3.72,3.77,3.23,2.44,2.44,2.46
88.09,-1.29,-3.71,-1.26,-3.67,3.65,3.71,3.14,2.35,2.39,2.41
88.97,-1.21,-3.57,-1.23,-3.58,3.57,3.65,3.06,2.36,2.35,2.35
89.86,-1.17,-3.47,-1.19,-3.49,3.50,3.59,2.98,2.33,2.31,2.29
90.76,-1.16,-3.40,-1.16,-3.40,3.42,3.53,2.90,2.26,2.26,2.24
91.66,-1.16,-3.34,-1.16,-3.33,3.35,3.46,2.82,2.18,2.19,2.18
92.58,-1.15,-3.27,-1.16,-3.27,3.27,3.40,2.74,2.12,2.12,2.11
93.51,-1.15,-3.20,-1.15,-3.21,3.20,3.34,2.67,2.05,2.05,2.05
94.44,-1.15,-3.14,-1.16,-3.14,3.14,3.27,2.60,1.98,1.98,1.99
95.39,-1.16,-3.09,-1.16,-3.08,3.08,3.21,2.53,1.91,1.91,1.92
96.34,-1.16,-3.02,-1.16,-3.02,3.02,3.14,2.47,1.85,1.85,1.86
97.30,-1.17,-2.96,-1.17,-2.96,2.96,3.08,2.40,1.79,1.79,1.78
98.28,-1.17,-2.89,-1.18,-2.89,2.90,3.01,2.34,1.73,1.72,1.72
99.26,-1.19,-2.83,-1.19,-2.83,2.84,2.95,2.28,1.65,1.65,1.64
100.25,-1.21,-2.78,-1.21,-2.78,2.78,2.88,2.22,1.57,1.57,1.57
101.25,-1.23,-2.72,-1.24,-2.72,2.72,2.81,2.16,1.48,1.48,1.49
102.27,-1.25,-2.67,-1.26,-2.67,2.65,2.75,2.11,1.39,1.39,1.41
103.29,-1.27,-2.61,-1.27,-2.60,2.58,2.68,2.05,1.30,1.31,1.34
104.32,-1.27,-2.53,-1.26,-2.52,2.51,2.61,2.00,1.23,1.24,1.26
105.37,-1.24,-2.42,-1.25,-2.42,2.43,2.54,1.95,1.19,1.19,1.17
106.42,-1.22,-2.32,-1.24,-2.34,2.36,2.48,1.90,1.14,1.12,1.10
107.48,-1.24,-2.27,-1.24,-2.26,2.29,2.41,1.85,1.05,1.05,1.02
108.56,-1.27,-2.22,-1.27,-2.21,2.22,2.34,1.81,0.95,0.96,0.95
109.64,-1.29,-2.16,-1.29,-2.17,2.16,2.27,1.76,0.87,0.87,0.87
110.74,-1.31,-2.12,-1.31,-2.11,2.10,2.21,1.72,0.79,0.79,0.80
111.85,-1.32,-2.05,-1.33,-2.06,2.05,2.14,1.67,0.72,0.72,0.73
112.97,-1.33,-2.00,-1.34,-2.00,1.99,2.07,1.63,0.66,0.66,0.66
114.10,-1.34,-1.94,-1.34,-1.94,1.94,2.00,1.59,0.59,0.59,0.60
115.24,-1.34,-1.88,-1.35,-1.88,1.88,1.94,1.55,0.53,0.53,0.53
116.39,-1.34,-1.81,-1.35,-1.82,1.81,1.87,1.51,0.47,0.47,0.47
117.55,-1.34,-1.76,-1.34,-1.75,1.75,1.80,1.47,0.41,0.41,0.41
118.73,-1.33,-1.68,-1.33,-1.69,1.69,1.74,1.43,0.36,0.36,0.35
119.92,-1.32,-1.62,-1.33,-1.62,1.63,1.67,1.39,0.31,0.30,0.30
121.12,-1.32,-1.56,-1.32,-1.56,1.57,1.60,1.35,0.24,0.25,0.23
122.33,-1.31,-1.50,-1.31,-1.50,1.50,1.54,1.31,0.19,0.19,0.18
123.55,-1.30,-1.44,-1.31,-1.44,1.43,1.47,1.27,0.13,0.12,0.14
124.79,-1.29,-1.38,-1.30,-1.38,1.36,1.41,1.23,0.07,0.06,0.09
126.03,-1.29,-1.32,-1.27,-1.30,1.29,1.35,1.20,-0.01,0.02,0.03
127.29,-1.22,-1.21,-1.23,-1.22,1.22,1.28,1.16,-0.01,-0.01,-0.01
128.57,-1.17,-1.11,-1.19,-1.13,1.15,1.22,1.12,-0.03,-0.05,-0.06
129.85,-1.17,-1.06,-1.17,-1.06,1.08,1.16,1.08,-0.09,-0.09,-0.11
131.15,-1.16,-1.01,-1.16,-1.00,1.01,1.10,1.05,-0.15,-0.15,-0.16
132.46,-1.16,-0.96,-1.16,-0.95,0.95,1.04,1.01,-0.21,-0.21,-0.21
133.79,-1.15,-0.89,-1.16,-0.90,0.89,0.98,0.97,-0.26,-0.26,-0.26
135.12,-1.15,-0.85,-1.15,-0.85,0.84,0.92,0.94,-0.31,-0.31,-0.31
136.48,-1.15,-0.80,-1.15,-0.79,0.79,0.86,0.90,-0.36,-0.36,-0.35
137.84,-1.14,-0.74,-1.15,-0.74,0.74,0.80,0.86,-0.40,-0.41,-0.41
139.22,-1.14,-0.69,-1.14,-0.69,0.69,0.75,0.83,-0.45,-0.45,-0.45
140.61,-1.14,-0.64,-1.14,-0.64,0.64,0.69,0.79,-0.50,-0.50,-0.50
142.02,-1.14,-0.59,-1.14,-0.59,0.59,0.63,0.75,-0.55,-0.55,-0.56
143.44,-1.14,-0.54,-1.14,-0.54,0.54,0.58,0.72,-0.60,-0.60,-0.61
144.87,-1.14,-0.50,-1.14,-0.49,0.49,0.53,0.68,-0.65,-0.65,-0.65
146.32,-1.14,-0.45,-1.14,-0.44,0.44,0.47,0.64,-0.70,-0.70,-0.70
147.78,-1.14,-0.39,-1.14,-0.39,0.39,0.42,0.61,-0.75,-0.75,-0.76
149.26,-1.14,-0.34,-1.14,-0.34,0.34,0.37,0.57,-0.80,-0.80,-0.80
150.75,-1.14,-0.29,-1.14,-0.29,0.30,0.32,0.53,-0.85,-0.85,-0.85
152.26,-1.14,-0.25,-1.14,-0.25,0.25,0.27,0.50,-0.89,-0.89,-0.90
153.78,-1.14,-0.21,-1.14,-0.21,0.21,0.22,0.46,-0.94,-0.94,-0.93
155.32,-1.14,-0.17,-1.14,-0.17,0.17,0.18,0.42,-0.98,-0.98,-0.98
156.88,-1.14,-0.12,-1.14,-0.13,0.12,0.13,0.39,-1.02,-1.02,-1.02
158.44,-1.14,-0.09,-1.14,-0.09,0.08,0.09,0.35,-1.06,-1.06,-1.05
160.03,-1.14,-0.05,-1.14,-0.05,0.04,0.04,0.31,-1.10,-1.10,-1.10
161.63,-1.14,-0.01,-1.14,-0.01,0.00,0.00,0.28,-1.14,-1.14,-1.14
163.24,-1.14,0.04,-1.14,0.03,-0.03,-0.04,0.24,-1.18,-1.18,-1.18
164.88,-1.14,0.07,-1.15,0.07,-0.07,-0.08,0.20,-1.21,-1.22,-1.22
166.53,-1.15,0.10,-1.15,0.11,-0.10,-0.12,0.17,-1.26,-1.25,-1.26
168.19,-1.15,0.14,-1.16,0.14,-0.14,-0.16,0.13,-1.29,-1.30,-1.30
169.87,-1.16,0.17,-1.16,0.17,-0.17,-0.20,0.09,-1.33,-1.33,-1.33
171.57,-1.17,0.20,-1.17,0.20,-0.20,-0.24,0.05,-1.37,-1.37,-1.37
173.29,-1.17,0.23,-1.18,0.23,-0.23,-0.27,0.02,-1.40,-1.41,-1.41
175.02,-1.18,0.26,-1.18,0.26,-0.26,-0.31,-0.02,-1.44,-1.44,-1.44
176.77,-1.18,0.28,-1.18,0.29,-0.29,-0.34,-0.06,-1.47,-1.47,-1.47
178.54,-1.18,0.32,-1.19,0.31,-0.32,-0.37,-0.10,-1.50,-1.50,-1.50
180.32,-1.18,0.34,-1.18,0.34,-0.35,-0.41,-0.13,-1.53,-1.53,-1.52
182.13,-1.17,0.37,-1.17,0.38,-0.38,-0.44,-0.17,-1.55,-1.55,-1.55
183.95,-1.16,0.41,-1.17,0.41,-0.41,-0.47,-0.21,-1.57,-1.57,-1.57
185.79,-1.15,0.45,-1.15,0.44,-0.44,-0.50,-0.25,-1.59,-1.59,-1.60
187.65,-1.14,0.47,-1.14,0.47,-0.47,-0.52,-0.29,-1.62,-1.61,-1.61
189.52,-1.12,0.51,-1.13,0.51,-0.50,-0.55,-0.33,-1.63,-1.63,-1.63
191.42,-1.11,0.54,-1.11,0.54,-0.54,-0.58,-0.36,-1.65,-1.65,-1.65
193.33,-1.10,0.57,-1.10,0.57,-0.57,-0.60,-0.40,-1.67,-1.67,-1.67
195.27,-1.08,0.59,-1.09,0.60,-0.60,-0.62,-0.44,-1.68,-1.68,-1.68
197.22,-1.07,0.62,-1.07,0.62,-0.62,-0.65,-0.48,-1.70,-1.70,-1.70
199.19,-1.05,0.66,-1.06,0.65,-0.65,-0.67,-0.52,-1.70,-1.71,-1.71
201.18,-1.05,0.68,-1.05,0.68,-0.67,-0.69,-0.56,-1.73,-1.73,-1.73
203.19,-1.04,0.70,-1.05,0.70,-0.70,-0.71,-0.60,-1.74,-1.74,-1.75
205.23,-1.04,0.72,-1.04,0.72,-0.72,-0.73,-0.63,-1.76,-1.76,-1.76
207.28,-1.04,0.73,-1.04,0.74,-0.74,-0.75,-0.67,-1.78,-1.78,-1.78
209.35,-1.04,0.76,-1.05,0.75,-0.76,-0.76,-0.71,-1.80,-1.80,-1.80
211.44,-1.05,0.76,-1.05,0.77,-0.77,-0.78,-0.75,-1.83,-1.82,-1.81
213.56,-1.05,0.77,-1.05,0.78,-0.78,-0.79,-0.78,-1.84,-1.84,-1.83
215.69,-1.05,0.80,-1.05,0.79,-0.79,-0.81,-0.82,-1.84,-1.84,-1.85
217.85,-1.06,0.80,-1.06,0.81,-0.79,-0.82,-0.85,-1.85,-1.85,-1.86
220.03,-1.06,0.82,-1.08,0.81,-0.79,-0.83,-0.88,-1.85,-1.86,-1.89
222.23,-1.10,0.79,-1.11,0.79,-0.78,-0.84,-0.92,-1.89,-1.89,-1.90
224.45,-1.15,0.76,-1.14,0.77,-0.78,-0.85,-0.95,-1.94,-1.92,-1.91
226.70,-1.16,0.76,-1.16,0.76,-0.78,-0.86,-0.98,-1.95,-1.94,-1.92
228.96,-1.16,0.77,-1.17,0.76,-0.78,-0.87,-1.00,-1.95,-1.95,-1.93
231.25,-1.15,0.78,-1.16,0.78,-0.79,-0.88,-1.03,-1.94,-1.94,-1.93
233.57,-1.14,0.80,-1.15,0.80,-0.79,-0.89,-1.05,-1.94,-1.94,-1.94
235.90,-1.13,0.81,-1.13,0.81,-0.81,-0.89,-1.08,-1.94,-1.94,-1.94
238.26,-1.11,0.84,-1.11,0.83,-0.82,-0.90,-1.10,-1.94,-1.94,-1.95
240.64,-1.09,0.85,-1.10,0.84,-0.84,-0.90,-1.11,-1.94,-1.94,-1.94
243.05,-1.08,0.86,-1.08,0.86,-0.86,-0.91,-1.13,-1.95,-1.94,-1.94
245.48,-1.06,0.87,-1.06,0.88,-0.88,-0.91,-1.14,-1.94,-1.94,-1.94
247.93,-1.03,0.90,-1.04,0.90,-0.90,-0.91,-1.15,-1.93,-1.94,-1.94
250.41,-1.02,0.91,-1.02,0.91,-0.91,-0.92,-1.16,-1.94,-1.93,-1.93
252.92,-1.00,0.93,-1.01,0.93,-0.93,-0.92,-1.17,-1.93,-1.94,-1.93
255.45,-0.99,0.93,-0.99,0.94,-0.94,-0.92,-1.17,-1.94,-1.94,-1.93
258.00,-0.98,0.95,-0.98,0.95,-0.95,-0.92,-1.17,-1.94,-1.94,-1.94
260.58,-0.97,0.97,-0.97,0.97,-0.96,-0.92,-1.17,-1.94,-1.93,-1.94
263.19,-0.97,0.98,-0.97,0.98,-0.96,-0.92,-1.17,-1.94,-1.93,-1.95
265.82,-0.97,0.99,-0.99,0.97,-0.96,-0.92,-1.17,-1.94,-1.95,-1.97
268.48,-1.01,0.96,-1.02,0.96,-0.95,-0.91,-1.16,-1.97,-1.97,-1.97
271.16,-1.06,0.92,-1.05,0.94,-0.94,-0.91,-1.15,-2.01,-1.99,-1.99
273.87,-1.08,0.92,-1.08,0.92,-0.93,-0.91,-1.14,-2.01,-2.00,-2.00
276.61,-1.09,0.91,-1.09,0.91,-0.91,-0.90,-1.13,-2.00,-2.00,-2.01
279.38,-1.09,0.92,-1.12,0.90,-0.90,-0.90,-1.12,-1.99,-2.02,-2.01
282.17,-1.15,0.87,-1.15,0.88,-0.89,-0.90,-1.10,-2.04,-2.04,-2.03
284.99,-1.18,0.85,-1.17,0.87,-0.89,-0.89,-1.09,-2.07,-2.06,-2.03
287.84,-1.17,0.86,-1.18,0.86,-0.89,-0.89,-1.07,-2.06,-2.07,-2.04
290.72,-1.16,0.89,-1.17,0.88,-0.89,-0.88,-1.05,-2.05,-2.05,-2.05
293.63,-1.15,0.90,-1.14,0.91,-0.89,-0.88,-1.03,-2.04,-2.03,-2.06
296.57,-1.13,0.93,-1.14,0.92,-0.89,-0.87,-1.01,-2.02,-2.03,-2.06
299.53,-1.12,0.93,-1.15,0.91,-0.89,-0.86,-0.99,-2.01,-2.04,-2.06
302.53,-1.19,0.87,-1.17,0.89,-0.89,-0.86,-0.97,-2.09,-2.07,-2.06
305.55,-1.20,0.87,-1.19,0.87,-0.90,-0.85,-0.96,-2.10,-2.09,-2.07
308.61,-1.19,0.88,-1.20,0.87,-0.90,-0.84,-0.94,-2.09,-2.10,-2.08
311.69,-1.19,0.89,-1.19,0.89,-0.90,-0.84,-0.92,-2.10,-2.09,-2.08
314.81,-1.18,0.91,-1.19,0.90,-0.91,-0.83,-0.90,-2.09,-2.09,-2.09
317.96,-1.18,0.91,-1.18,0.91,-0.91,-0.82,-0.88,-2.10,-2.10,-2.10
321.14,-1.18,0.92,-1.18,0.92,-0.91,-0.81,-0.86,-2.10,-2.10,-2.10
324.35,-1.18,0.93,-1.18,0.94,-0.91,-0.80,-0.84,-2.10,-2.09,-2.11
327.59,-1.18,0.94,-1.19,0.93,-0.91,-0.80,-0.82,-2.09,-2.10,-2.13
330.87,-1.19,0.94,-1.22,0.91,-0.90,-0.79,-0.80,-2.10,-2.12,-2.13
334.18,-1.26,0.87,-1.25,0.88,-0.90,-0.78,-0.78,-2.16,-2.15,-2.13
337.52,-1.29,0.84,-1.28,0.86,-0.89,-0.77,-0.76,-2.18,-2.17,-2.13
340.90,-1.29,0.85,-1.30,0.84,-0.87,-0.76,-0.75,-2.17,-2.17,-2.15
344.30,-1.29,0.86,-1.29,0.86,-0.86,-0.75,-0.73,-2.15,-2.15,-2.15
347.75,-1.29,0.86,-1.30,0.86,-0.83,-0.75,-0.72,-2.13,-2.13,-2.15
351.23,-1.30,0.86,-1.32,0.84,-0.81,-0.74,-0.70,-2.12,-2.13,-2.16
354.74,-1.36,0.80,-1.35,0.82,-0.79,-0.73,-0.69,-2.16,-2.14,-2.17
358.28,-1.38,0.78,-1.39,0.78,-0.78,-0.72,-0.67,-2.16,-2.17,-2.17
361.87,-1.42,0.75,-1.43,0.74,-0.76,-0.71,-0.66,-2.18,-2.19,-2.17
365.49,-1.46,0.71,-1.45,0.72,-0.75,-0.70,-0.64,-2.21,-2.20,-2.17
369.14,-1.46,0.71,-1.46,0.71,-0.74,-0.69,-0.63,-2.20,-2.20,-2.17
372.83,-1.45,0.72,-1.46,0.72,-0.73,-0.69,-0.62,-2.19,-2.19,-2.18
376.56,-1.45,0.72,-1.45,0.73,-0.73,-0.68,-0.61,-2.19,-2.18,-2.18
380.33,-1.44,0.75,-1.44,0.74,-0.73,-0.67,-0.60,-2.18,-2.17,-2.19
384.13,-1.43,0.76,-1.43,0.76,-0.74,-0.66,-0.59,-2.17,-2.17,-2.19
387.97,-1.43,0.77,-1.44,0.77,-0.74,-0.65,-0.58,-2.17,-2.18,-2.20
391.85,-1.44,0.77,-1.46,0.75,-0.75,-0.64,-0.57,-2.19,-2.20,-2.21
395.77,-1.50,0.72,-1.49,0.73,-0.75,-0.63,-0.56,-2.25,-2.24,-2.23
399.73,-1.52,0.71,-1.52,0.72,-0.75,-0.63,-0.55,-2.28,-2.27,-2.24
403.72,-1.53,0.71,-1.54,0.72,-0.75,-0.62,-0.54,-2.28,-2.28,-2.25
407.76,-1.53,0.74,-1.53,0.73,-0.73,-0.61,-0.54,-2.27,-2.27,-2.27
411.84,-1.53,0.75,-1.52,0.76,-0.71,-0.60,-0.53,-2.25,-2.24,-2.28
415.96,-1.53,0.76,-1.55,0.75,-0.70,-0.59,-0.52,-2.23,-2.24,-2.29
420.12,-1.56,0.74,-1.60,0.71,-0.68,-0.59,-0.52,-2.24,-2.27,-2.30
424.32,-1.68,0.62,-1.66,0.65,-0.66,-0.58,-0.51,-2.35,-2.32,-2.30
428.56,-1.71,0.59,-1.70,0.60,-0.65,-0.57,-0.51,-2.36,-2.35,-2.31
432.85,-1.71,0.58,-1.72,0.58,-0.63,-0.56,-0.50,-2.34,-2.35,-2.30
437.18,-1.68,0.59,-1.69,0.59,-0.61,-0.55,-0.50,-2.30,-2.30,-2.28
441.55,-1.64,0.61,-1.65,0.61,-0.60,-0.55,-0.49,-2.25,-2.25,-2.26
445.96,-1.60,0.63,-1.60,0.63,-0.60,-0.54,-0.49,-2.20,-2.19,-2.23
450.42,-1.55,0.64,-1.56,0.63,-0.60,-0.53,-0.48,-2.15,-2.16,-2.19
454.93,-1.52,0.63,-1.54,0.61,-0.61,-0.53,-0.48,-2.13,-2.14,-2.15
459.48,-1.52,0.58,-1.51,0.60,-0.62,-0.52,-0.48,-2.14,-2.12,-2.10
464.07,-1.47,0.59,-1.47,0.59,-0.62,-0.51,-0.47,-2.10,-2.09,-2.06
468.71,-1.41,0.60,-1.42,0.60,-0.62,-0.51,-0.47,-2.03,-2.04,-2.01
473.40,-1.35,0.61,-1.35,0.61,-0.61,-0.50,-0.47,-1.96,-1.96,-1.96
478.13,-1.29,0.62,-1.29,0.62,-0.59,-0.49,-0.46,-1.89,-1.89,-1.92
