frequency,raw
20.00,-13.78
20.20,-13.64
20.40,-13.51
20.61,-13.37
20.81,-13.24
21.02,-13.10
21.23,-12.98
21.44,-12.86
21.66,-12.73
21.87,-12.60
22.09,-12.48
22.31,-12.35
22.54,-12.21
22.76,-12.07
22.99,-11.94
23.22,-11.80
23.45,-11.67
23.69,-11.54
23.92,-11.41
24.16,-11.27
24.40,-11.12
24.65,-10.98
24.89,-10.82
25.14,-10.69
25.39,-10.56
25.65,-10.43
25.91,-10.31
26.16,-10.18
26.43,-10.06
26.69,-9.93
26.96,-9.80
27.23,-9.71
27.50,-9.63
27.77,-9.55
28.05,-9.46
28.33,-9.32
28.62,-9.19
28.90,-9.06
29.19,-8.92
29.48,-8.80
29.78,-8.67
30.08,-8.54
30.38,-8.41
30.68,-8.28
30.99,-8.15
31.30,-8.01
31.61,-7.88
31.93,-7.75
32.24,-7.64
32.57,-7.56
32.89,-7.46
33.22,-7.36
33.55,-7.25
33.89,-7.15
34.23,-7.03
34.57,-6.92
34.92,-6.81
35.27,-6.66
35.62,-6.52
35.97,-6.38
36.33,-6.26
36.70,-6.13
37.06,-6.01
37.43,-5.91
37.81,-5.81
38.19,-5.72
38.57,-5.63
38.95,-5.54
39.34,-5.47
39.74,-5.40
40.14,-5.33
40.54,-5.25
40.94,-5.18
41.35,-5.05
41.76,-4.92
42.18,-4.81
42.60,-4.69
43.03,-4.60
43.46,-4.52
43.90,-4.45
44.33,-4.35
44.78,-4.24
45.23,-4.15
45.68,-4.08
46.13,-4.00
46.60,-3.90
47.06,-3.82
47.53,-3.76
48.01,-3.70
48.49,-3.59
48.97,-3.48
49.46,-3.40
49.96,-3.34
50.46,-3.28
50.96,-3.23
51.47,-3.20
51.99,-3.18
52.51,-3.03
53.03,-2.87
53.56,-2.78
54.10,-2.71
54.64,-2.71
55.18,-2.67
55.74,-2.54
56.29,-2.45
56.86,-2.42
57.42,-2.29
58.00,-2.12
58.58,-2.20
59.16,-2.20
59.76,-2.01
60.35,-1.97
60.96,-2.05
61.57,-1.85
62.18,-1.68
62.80,-1.71
63.43,-1.66
64.07,-1.56
64.71,-1.48
65.35,-1.42
66.01,-1.40
66.67,-1.25
67.33,-1.21
68.01,-1.28
68.69,-1.14
69.37,-1.05
70.07,-1.01
70.77,-1.01
71.48,-0.96
72.19,-0.88
72.91,-0.82
73.64,-0.77
74.38,-0.74
75.12,-0.73
75.87,-0.71
76.63,-0.56
77.40,-0.51
78.17,-0.56
78.95,-0.55
79.74,-0.53
80.54,-0.52
81.35,-0.50
82.16,-0.49
82.98,-0.48
83.81,-0.47
84.65,-0.41
85.50,-0.35
86.35,-0.29
87.22,-0.23
88.09,-0.26
88.97,-0.44
89.86,-0.37
90.76,-0.31
91.66,-0.29
92.58,-0.29
93.51,-0.28
94.44,-0.28
95.39,-0.28
96.34,-0.27
97.30,-0.28
98.28,-0.27
99.26,-0.21
100.25,-0.21
101.25,-0.37
102.27,-0.43
103.29,-0.43
104.32,-0.44
105.37,-0.53
106.42,-0.68
107.48,-0.64
108.56,-0.60
109.64,-0.61
110.74,-0.63
111.85,-0.62
112.97,-0.51
114.10,-0.61
115.24,-0.79
116.39,-0.94
117.55,-1.02
118.73,-0.94
119.92,-0.90
121.12,-0.82
122.33,-0.90
123.55,-1.11
124.79,-1.26
126.03,-1.17
127.29,-1.17
128.57,-1.18
129.85,-1.19
131.15,-1.17
132.46,-1.23
133.79,-1.45
135.12,-1.51
136.48,-1.46
137.84,-1.45
139.22,-1.46
140.61,-1.46
142.02,-1.53
143.44,-1.56
144.87,-1.63
146.32,-1.66
147.78,-1.66
149.26,-1.65
150.75,-1.63
152.26,-1.66
153.78,-1.67
155.32,-1.70
156.88,-1.69
158.44,-1.65
160.03,-1.62
161.63,-1.62
163.24,-1.65
164.88,-1.71
166.53,-1.74
168.19,-1.75
169.87,-1.77
171.57,-1.79
173.29,-1.87
175.02,-2.06
176.77,-2.08
178.54,-1.91
180.32,-1.97
182.13,-2.12
183.95,-2.19
185.79,-2.36
187.65,-2.43
189.52,-2.35
191.42,-2.31
193.33,-2.31
195.27,-2.30
197.22,-2.29
199.19,-2.29
201.18,-2.28
203.19,-2.27
205.23,-2.27
207.28,-2.27
209.35,-2.26
211.44,-2.26
213.56,-2.25
215.69,-2.25
217.85,-2.47
220.03,-2.44
222.23,-2.37
224.45,-2.22
226.70,-2.21
228.96,-2.44
231.25,-2.43
233.57,-2.43
235.90,-2.43
238.26,-2.43
240.64,-2.42
243.05,-2.42
245.48,-2.41
247.93,-2.44
250.41,-2.62
252.92,-2.55
255.45,-2.48
258.00,-2.45
260.58,-2.44
263.19,-2.44
265.82,-2.44
268.48,-2.44
271.16,-2.43
273.87,-2.44
276.61,-2.65
279.38,-2.70
282.17,-2.59
284.99,-2.47
287.84,-2.35
290.72,-2.34
293.63,-2.59
296.57,-2.75
299.53,-2.91
302.53,-2.78
305.55,-2.71
308.61,-2.69
311.69,-2.68
314.81,-2.76
317.96,-2.91
321.14,-2.87
324.35,-2.77
327.59,-2.74
330.87,-2.76
334.18,-2.98
337.52,-3.01
340.90,-3.11
344.30,-3.23
347.75,-3.26
351.23,-3.16
354.74,-3.01
358.28,-2.80
361.87,-2.70
365.49,-3.03
369.14,-3.27
372.83,-3.21
376.56,-3.07
380.33,-2.88
384.13,-2.52
387.97,-2.35
391.85,-2.49
395.77,-2.41
399.73,-2.24
403.72,-2.01
407.76,-1.99
411.84,-2.08
415.96,-2.10
420.12,-2.09
424.32,-2.08
428.56,-2.07
432.85,-2.06
437.18,-2.05
441.55,-2.03
445.96,-2.01
450.42,-1.98
454.93,-1.96
459.48,-1.93
464.07,-2.00
468.71,-2.15
473.40,-2.07
478.13,-1.95
482.91,-1.93
487.74,-1.92
492.62,-1.90
497.55,-1.89
502.52,-1.88
507.55,-1.86
512.62,-1.60
517.75,-1.52
522.93,-1.64
528.16,-1.65
533.44,-1.61
538.77,-1.59
544.16,-1.57
549.60,-1.54
555.10,-1.54
560.65,-1.52
566.25,-1.50
571.92,-1.47
577.64,-1.44
583.41,-1.41
589.25,-1.38
595.14,-1.35
601.09,-1.32
607.10,-1.29
613.17,-1.27
619.30,-1.26
625.50,-1.25
631.75,-1.24
638.07,-1.23
644.45,-1.23
650.89,-1.23
657.40,-1.21
663.98,-1.20
670.62,-1.18
677.32,-1.13
684.10,-0.87
690.94,-0.76
697.85,-0.96
704.83,-1.21
711.87,-1.24
718.99,-0.96
726.18,-0.86
733.44,-0.89
740.78,-1.06
748.19,-0.94
755.67,-0.75
763.23,-0.72
770.86,-0.70
778.57,-0.70
786.35,-0.69
794.22,-0.63
802.16,-0.57
810.18,-0.53
818.28,-0.46
826.46,-0.48
834.73,-0.64
843.08,-0.58
851.51,-0.17
860.02,-0.32
868.62,-0.55
877.31,-0.52
886.08,-0.44
894.94,-0.36
903.89,-0.38
912.93,-0.28
922.06,-0.15
931.28,0.08
940.59,0.07
950.00,-0.04
959.50,-0.06
969.09,-0.05
978.78,-0.03
988.57,-0.01
998.46,0.07
1008.44,0.14
1018.53,0.26
1028.71,0.32
1039.00,0.36
1049.39,0.41
1059.88,0.46
1070.48,0.50
1081.19,0.54
1092.00,0.58
1102.92,0.63
1113.95,0.52
1125.09,0.53
1136.34,0.80
1147.70,0.92
1159.18,0.98
1170.77,0.84
1182.48,0.88
1194.30,1.07
1206.25,1.19
1218.31,1.30
1230.49,1.26
1242.80,1.27
1255.22,1.52
1267.78,1.78
1280.45,2.01
1293.26,1.85
1306.19,1.83
1319.25,2.12
1332.45,2.14
1345.77,2.43
1359.23,2.61
1372.82,2.86
1386.55,2.88
1400.41,2.90
1414.42,3.09
1428.56,3.25
1442.85,3.55
1457.28,3.66
1471.85,3.80
1486.57,3.92
1501.43,4.03
1516.45,4.26
1531.61,4.46
1546.93,4.65
1562.40,4.56
1578.02,4.47
1593.80,4.36
1609.74,4.40
1625.84,4.64
1642.10,5.31
1658.52,5.66
1675.10,5.60
1691.85,5.46
1708.77,5.29
1725.86,5.25
1743.12,5.46
1760.55,6.03
1778.15,6.25
1795.94,6.32
1813.90,6.51
1832.03,6.86
1850.36,7.33
1868.86,7.80
1887.55,8.42
1906.42,9.25
1925.49,10.09
1944.74,10.80
1964.19,11.34
1983.83,11.91
2003.67,12.52
2023.71,12.89
2043.94,12.86
2064.38,12.60
2085.03,12.55
2105.88,11.52
2126.94,11.35
2148.20,11.80
2169.69,12.07
2191.38,11.93
2213.30,11.40
2235.43,11.29
2257.78,12.13
2280.36,12.62
2303.17,12.62
2326.20,12.14
2349.46,11.75
2372.95,11.26
2396.68,11.31
2420.65,11.47
2444.86,11.81
2469.31,12.26
2494.00,12.21
2518.94,12.03
2544.13,11.89
2569.57,11.71
2595.27,11.63
2621.22,11.83
2647.43,11.97
2673.90,11.89
2700.64,11.68
2727.65,11.69
2754.93,11.59
2782.48,11.43
2810.30,11.04
2838.40,10.57
2866.79,10.19
2895.46,10.06
2924.41,10.36
2953.65,10.33
2983.19,10.23
3013.02,10.02
3043.15,10.00
3073.58,10.03
3104.32,10.32
3135.36,10.17
3166.72,9.84
3198.38,9.33
3230.37,9.11
3262.67,9.03
3295.30,8.80
3328.25,8.63
3361.53,8.67
3395.15,8.77
3429.10,8.72
3463.39,8.47
3498.03,8.10
3533.01,7.92
3568.34,7.66
3604.02,5.80
3640.06,4.66
3676.46,3.28
3713.22,2.57
3750.36,3.36
3787.86,5.08
3825.74,7.85
3864.00,8.94
3902.64,10.04
3941.66,10.98
3981.08,11.88
4020.89,12.53
4061.10,13.14
4101.71,12.35
4142.73,11.33
4184.15,11.74
4226.00,12.87
4268.26,13.40
4310.94,13.57
4354.05,13.54
4397.59,13.33
4441.56,13.20
4485.98,13.47
4530.84,13.95
4576.15,13.91
4621.91,14.26
4668.13,13.46
4714.81,13.59
4761.96,14.52
4809.58,15.54
4857.67,15.63
4906.25,15.44
4955.31,15.66
5004.87,15.20
5054.91,14.70
5105.46,14.60
5156.52,14.36
5208.08,13.87
5260.16,13.36
5312.77,13.31
5365.89,13.56
5419.55,13.93
5473.75,13.53
5528.49,13.23
5583.77,13.29
5639.61,13.55
5696.00,13.28
5752.96,12.52
5810.49,11.87
5868.60,11.33
5927.28,10.86
5986.56,10.33
6046.42,9.68
6106.89,9.31
6167.96,9.08
6229.64,9.00
6291.93,9.25
6354.85,9.50
6418.40,9.61
6482.58,9.65
6547.41,9.72
6612.88,9.73
6679.01,9.92
6745.80,10.37
6813.26,10.70
6881.39,10.86
6950.21,11.28
7019.71,11.58
7089.91,11.50
7160.81,11.22
7232.41,10.95
7304.74,10.73
7377.79,10.26
7451.56,9.80
7526.08,9.49
7601.34,8.90
7677.35,8.17
7754.13,7.59
7831.67,6.80
7909.98,5.91
7989.08,5.97
8068.98,6.69
8149.67,7.08
8231.16,8.13
8313.47,9.06
8396.61,9.35
8480.57,9.59
8565.38,9.74
8651.03,9.48
8737.54,8.65
8824.92,7.60
8913.17,6.65
9002.30,6.17
9092.32,5.85
9183.25,5.63
9275.08,5.75
9367.83,5.92
9461.51,5.88
9556.12,5.74
9651.68,5.44
9748.20,5.02
9845.68,4.65
9944.14,4.63
10043.58,4.68
10144.02,5.43
10245.46,5.85
10347.91,5.35
10451.39,4.41
10555.91,4.91
10661.46,6.00
10768.08,6.64
10875.76,7.04
10984.52,5.93
11094.36,5.33
11205.31,5.25
11317.36,4.98
11430.53,4.84
11544.84,4.52
11660.29,4.33
11776.89,4.40
11894.66,4.09
12013.60,3.68
12133.74,3.85
12255.08,3.94
12377.63,4.23
12501.41,4.72
12626.42,4.49
12752.68,3.93
12880.21,3.13
13009.01,1.58
13139.10,-0.48
13270.49,-1.58
13403.20,-3.58
13537.23,-2.57
13672.60,0.67
13809.33,-2.75
13947.42,-6.56
14086.90,-6.89
14227.77,-5.77
14370.04,-4.62
14513.74,-4.58
14658.88,-5.31
14805.47,-5.98
14953.52,-6.66
15103.06,-7.07
15254.09,-6.86
15406.63,-6.27
15560.70,-5.68
15716.30,-5.09
15873.47,-4.56
16032.20,-4.79
16192.52,-4.91
16354.45,-4.88
16517.99,-3.30
16683.17,-2.13
16850.01,-1.55
17018.51,-3.41
17188.69,-4.29
17360.58,-4.19
17534.18,-3.78
17709.53,-3.75
17886.62,-4.24
18065.49,-5.09
18246.14,-5.81
18428.60,-6.33
18612.89,-7.10
18799.02,-8.33
18987.01,-10.58
19176.88,-12.29
19368.65,-13.81
19562.33,-15.36
19757.96,-16.35
19955.54,-16.80
