frequency,raw,error,smoothed,error_smoothed,equalization,parametric_eq,fixed_band_eq,equalized_raw,equalized_smoothed,target
20.00,-5.71,-8.32,-5.71,-8.32,6.00,5.46,2.26,0.29,0.29,2.61
20.20,-5.60,-8.22,-5.59,-8.21,6.00,5.54,2.32,0.40,0.41,2.62
20.40,-5.48,-8.11,-5.48,-8.11,6.00,5.62,2.39,0.52,0.52,2.63
20.61,-5.38,-8.01,-5.37,-8.01,6.00,5.70,2.46,0.62,0.63,2.63
20.81,-5.26,-7.90,-5.26,-7.90,6.00,5.77,2.53,0.74,0.74,2.64
21.02,-5.16,-7.79,-5.16,-7.81,6.00,5.85,2.61,0.84,0.84,2.64
21.23,-5.08,-7.72,-5.07,-7.72,6.00,5.92,2.68,0.92,0.93,2.65
21.44,-4.98,-7.63,-4.99,-7.63,6.00,5.98,2.76,1.02,1.01,2.65
21.66,-4.91,-7.55,-4.90,-7.55,6.00,6.04,2.84,1.09,1.10,2.65
21.87,-4.81,-7.46,-4.82,-7.47,6.00,6.10,2.92,1.19,1.18,2.65
22.09,-4.73,-7.39,-4.73,-7.39,6.00,6.15,3.01,1.27,1.27,2.66
22.31,-4.64,-7.30,-4.65,-7.30,6.00,6.20,3.10,1.36,1.35,2.66
22.54,-4.57,-7.21,-4.57,-7.21,6.00,6.25,3.19,1.43,1.43,2.65
22.76,-4.48,-7.12,-4.48,-7.12,6.00,6.28,3.28,1.52,1.52,2.64
22.99,-4.40,-7.03,-4.40,-7.03,6.00,6.32,3.37,1.60,1.60,2.64
23.22,-4.31,-6.94,-4.31,-6.94,6.00,6.34,3.47,1.69,1.69,2.64
23.45,-4.21,-6.84,-4.21,-6.84,6.00,6.36,3.57,1.79,1.79,2.63
23.69,-4.13,-6.75,-4.12,-6.75,6.00,6.38,3.67,1.87,1.88,2.63
23.92,-4.03,-6.66,-4.04,-6.66,6.00,6.39,3.77,1.97,1.96,2.63
24.16,-3.95,-6.58,-3.96,-6.58,6.00,6.39,3.88,2.05,2.04,2.62
24.40,-3.88,-6.51,-3.88,-6.51,6.00,6.38,3.98,2.12,2.12,2.62
24.65,-3.81,-6.43,-3.81,-6.43,6.01,6.37,4.09,2.20,2.20,2.62
24.89,-3.73,-6.36,-3.73,-6.35,6.01,6.36,4.20,2.28,2.28,2.62
25.14,-3.65,-6.28,-3.65,-6.27,6.01,6.34,4.31,2.36,2.36,2.62
25.39,-3.56,-6.18,-3.57,-6.18,6.00,6.31,4.42,2.44,2.43,2.61
25.65,-3.49,-6.10,-3.48,-6.09,5.98,6.27,4.53,2.50,2.50,2.61
25.91,-3.40,-6.01,-3.40,-6.01,5.95,6.23,4.64,2.56,2.55,2.61
26.16,-3.32,-5.93,-3.33,-5.94,5.92,6.19,4.75,2.59,2.59,2.61
26.43,-3.26,-5.87,-3.25,-5.86,5.87,6.14,4.86,2.61,2.61,2.61
26.69,-3.19,-5.79,-3.19,-5.80,5.81,6.08,4.97,2.62,2.62,2.61
26.96,-3.12,-5.72,-3.12,-5.72,5.74,6.03,5.07,2.62,2.63,2.61
27.23,-3.05,-5.65,-3.05,-5.66,5.67,5.96,5.18,2.62,2.62,2.61
27.50,-2.98,-5.58,-2.98,-5.59,5.59,5.90,5.28,2.61,2.61,2.61
27.77,-2.91,-5.52,-2.91,-5.52,5.51,5.83,5.37,2.60,2.60,2.61
28.05,-2.83,-5.44,-2.83,-5.44,5.44,5.75,5.47,2.60,2.60,2.61
28.33,-2.75,-5.36,-2.76,-5.36,5.36,5.68,5.55,2.60,2.60,2.61
28.62,-2.68,-5.28,-2.68,-5.28,5.28,5.60,5.64,2.60,2.60,2.60
28.90,-2.59,-5.21,-2.59,-5.20,5.20,5.52,5.71,2.61,2.61,2.61
29.19,-2.52,-5.13,-2.51,-5.12,5.12,5.44,5.78,2.61,2.61,2.61
29.48,-2.42,-5.04,-2.43,-5.04,5.05,5.35,5.84,2.62,2.62,2.61
29.78,-2.35,-4.97,-2.35,-4.96,4.97,5.27,5.89,2.63,2.63,2.62
30.08,-2.27,-4.89,-2.27,-4.89,4.90,5.18,5.93,2.63,2.63,2.62
30.38,-2.21,-4.82,-2.20,-4.82,4.83,5.09,5.96,2.62,2.62,2.62
30.68,-2.15,-4.76,-2.14,-4.76,4.76,5.01,5.99,2.61,2.62,2.62
30.99,-2.08,-4.69,-2.08,-4.69,4.69,4.92,6.00,2.62,2.61,2.62
31.30,-2.02,-4.63,-2.01,-4.63,4.63,4.83,6.00,2.61,2.61,2.61
31.61,-1.95,-4.56,-1.95,-4.56,4.56,4.74,5.99,2.62,2.62,2.61
31.93,-1.89,-4.50,-1.88,-4.49,4.49,4.65,5.98,2.61,2.61,2.61
32.24,-1.81,-4.42,-1.82,-4.43,4.42,4.57,5.95,2.60,2.60,2.60
32.57,-1.76,-4.36,-1.76,-4.36,4.34,4.48,5.91,2.59,2.58,2.60
32.89,-1.69,-4.29,-1.69,-4.28,4.26,4.40,5.86,2.57,2.58,2.60
33.22,-1.61,-4.20,-1.61,-4.20,4.19,4.31,5.81,2.57,2.58,2.59
33.55,-1.51,-4.10,-1.52,-4.10,4.12,4.23,5.74,2.60,2.60,2.58
33.89,-1.43,-4.00,-1.44,-4.01,4.05,4.14,5.67,2.62,2.61,2.57
34.23,-1.38,-3.95,-1.38,-3.95,3.98,4.06,5.59,2.60,2.60,2.57
34.57,-1.34,-3.91,-1.34,-3.91,3.91,3.98,5.51,2.57,2.57,2.57
34.92,-1.31,-3.87,-1.29,-3.86,3.84,3.90,5.42,2.54,2.55,2.57
35.27,-1.24,-3.80,-1.24,-3.80,3.78,3.83,5.32,2.54,2.54,2.57
35.62,-1.17,-3.73,-1.17,-3.73,3.71,3.75,5.22,2.55,2.54,2.56
35.97,-1.09,-3.66,-1.10,-3.66,3.65,3.68,5.12,2.56,2.56,2.56
36.33,-1.02,-3.58,-1.02,-3.58,3.59,3.60,5.01,2.57,2.57,2.56
36.70,-0.96,-3.51,-0.95,-3.51,3.53,3.53,4.90,2.57,2.58,2.56
37.06,-0.89,-3.44,-0.90,-3.45,3.47,3.46,4.79,2.59,2.57,2.56
37.43,-0.85,-3.41,-0.85,-3.41,3.42,3.39,4.68,2.56,2.57,2.55
37.81,-0.82,-3.38,-0.81,-3.37,3.37,3.33,4.57,2.56,2.56,2.56
38.19,-0.78,-3.33,-0.78,-3.33,3.33,3.26,4.46,2.56,2.56,2.56
38.57,-0.74,-3.29,-0.74,-3.29,3.29,3.20,4.34,2.55,2.55,2.55
38.95,-0.69,-3.26,-0.70,-3.26,3.24,3.14,4.23,2.55,2.54,2.56
39.34,-0.65,-3.21,-0.66,-3.22,3.19,3.08,4.12,2.54,2.54,2.56
39.74,-0.62,-3.17,-0.61,-3.17,3.14,3.03,4.01,2.53,2.53,2.56
40.14,-0.56,-3.11,-0.54,-3.10,3.09,2.97,3.90,2.54,2.55,2.55
40.54,-0.48,-3.03,-0.47,-3.02,3.05,2.92,3.79,2.57,2.57,2.55
40.94,-0.40,-2.94,-0.42,-2.96,3.00,2.87,3.69,2.60,2.58,2.55
41.35,-0.39,-2.93,-0.39,-2.93,2.95,2.82,3.59,2.57,2.57,2.54
41.76,-0.39,-2.91,-0.37,-2.90,2.91,2.78,3.48,2.52,2.53,2.53
42.18,-0.37,-2.89,-0.36,-2.89,2.86,2.73,3.38,2.50,2.50,2.52
42.60,-0.32,-2.85,-0.33,-2.85,2.82,2.69,3.29,2.50,2.49,2.52
43.03,-0.29,-2.80,-0.28,-2.80,2.78,2.65,3.19,2.49,2.50,2.52
43.46,-0.23,-2.74,-0.23,-2.74,2.74,2.61,3.10,2.51,2.51,2.51
43.90,-0.18,-2.67,-0.18,-2.68,2.69,2.58,3.01,2.52,2.51,2.50
44.33,-0.14,-2.63,-0.14,-2.63,2.64,2.54,2.92,2.51,2.51,2.49
44.78,-0.11,-2.59,-0.10,-2.59,2.59,2.51,2.83,2.49,2.49,2.49
45.23,-0.07,-2.55,-0.06,-2.55,2.54,2.48,2.75,2.48,2.48,2.48
45.68,-0.02,-2.49,-0.02,-2.50,2.49,2.45,2.67,2.48,2.47,2.48
46.13,0.03,-2.46,0.03,-2.45,2.45,2.43,2.59,2.47,2.47,2.48
46.60,0.07,-2.40,0.07,-2.40,2.40,2.40,2.51,2.47,2.47,2.48
47.06,0.12,-2.36,0.12,-2.36,2.35,2.38,2.43,2.48,2.48,2.48
47.53,0.16,-2.32,0.17,-2.32,2.32,2.35,2.36,2.48,2.48,2.48
48.01,0.21,-2.27,0.22,-2.27,2.28,2.33,2.29,2.50,2.50,2.49
48.49,0.26,-2.23,0.27,-2.22,2.25,2.30,2.22,2.51,2.52,2.49
48.97,0.31,-2.18,0.30,-2.20,2.22,2.28,2.15,2.53,2.51,2.49
49.46,0.31,-2.18,0.31,-2.19,2.18,2.25,2.09,2.50,2.50,2.50
49.96,0.31,-2.20,0.33,-2.18,2.15,2.22,2.02,2.46,2.48,2.51
50.46,0.36,-2.15,0.36,-2.15,2.11,2.19,1.96,2.48,2.47,2.51
50.96,0.41,-2.11,0.42,-2.10,2.08,2.16,1.90,2.50,2.50,2.52
51.47,0.48,-2.04,0.49,-2.04,2.05,2.12,1.84,2.53,2.54,2.53
51.99,0.56,-1.96,0.55,-1.98,2.01,2.08,1.78,2.58,2.56,2.53
52.51,0.59,-1.93,0.59,-1.94,1.97,2.04,1.73,2.56,2.56,2.53
53.03,0.61,-1.92,0.60,-1.93,1.92,2.00,1.67,2.54,2.53,2.53
53.56,0.61,-1.92,0.62,-1.91,1.88,1.95,1.62,2.50,2.51,2.53
54.10,0.63,-1.91,0.67,-1.87,1.85,1.90,1.57,2.48,2.52,2.54
54.64,0.74,-1.80,0.73,-1.81,1.81,1.85,1.52,2.56,2.54,2.54
55.18,0.81,-1.73,0.79,-1.75,1.78,1.79,1.47,2.59,2.56,2.54
55.74,0.81,-1.71,0.81,-1.72,1.73,1.74,1.42,2.55,2.55,2.53
56.29,0.81,-1.71,0.82,-1.71,1.69,1.68,1.38,2.50,2.51,2.53
56.86,0.82,-1.70,0.85,-1.67,1.64,1.62,1.33,2.47,2.50,2.53
57.42,0.91,-1.61,0.91,-1.60,1.60,1.56,1.29,2.51,2.51,2.51
58.00,1.01,-1.49,0.98,-1.53,1.56,1.50,1.24,2.57,2.53,2.50
58.58,1.01,-1.47,1.01,-1.48,1.51,1.44,1.20,2.52,2.52,2.49
59.16,1.01,-1.46,1.02,-1.46,1.46,1.38,1.16,2.47,2.48,2.48
59.76,1.01,-1.45,1.03,-1.43,1.40,1.32,1.11,2.42,2.43,2.46
60.35,1.06,-1.38,1.06,-1.38,1.34,1.27,1.07,2.40,2.41,2.44
60.96,1.12,-1.29,1.12,-1.29,1.29,1.21,1.03,2.41,2.41,2.41
61.57,1.18,-1.20,1.18,-1.21,1.23,1.16,0.99,2.41,2.41,2.39
62.18,1.22,-1.13,1.21,-1.14,1.16,1.10,0.96,2.39,2.38,2.35
62.80,1.22,-1.09,1.22,-1.09,1.10,1.05,0.92,2.32,2.32,2.32
63.43,1.22,-1.05,1.23,-1.04,1.03,1.00,0.88,2.25,2.26,2.27
64.07,1.23,-1.00,1.25,-0.98,0.96,0.95,0.84,2.20,2.21,2.23
64.71,1.29,-0.89,1.28,-0.91,0.90,0.90,0.80,2.20,2.19,2.19
65.35,1.32,-0.82,1.31,-0.84,0.85,0.85,0.77,2.18,2.17,2.15
66.01,1.32,-0.79,1.33,-0.78,0.81,0.81,0.73,2.13,2.14,2.11
66.67,1.32,-0.75,1.33,-0.75,0.76,0.76,0.70,2.09,2.09,2.07
67.33,1.32,-0.72,1.32,-0.71,0.72,0.72,0.66,2.04,2.04,2.04
68.01,1.32,-0.68,1.32,-0.68,0.67,0.67,0.62,2.00,1.99,2.00
68.69,1.32,-0.65,1.32,-0.65,0.63,0.63,0.59,1.95,1.95,1.97
69.37,1.32,-0.61,1.33,-0.61,0.59,0.59,0.55,1.91,1.92,1.94
70.07,1.33,-0.57,1.36,-0.55,0.54,0.54,0.52,1.88,1.90,1.91
70.77,1.40,-0.47,1.39,-0.49,0.50,0.50,0.48,1.90,1.89,1.88
71.48,1.42,-0.43,1.42,-0.43,0.45,0.46,0.45,1.88,1.87,1.85
72.19,1.42,-0.39,1.43,-0.39,0.41,0.42,0.41,1.83,1.84,1.82
72.91,1.42,-0.36,1.43,-0.36,0.36,0.38,0.38,1.79,1.79,1.78
73.64,1.42,-0.32,1.42,-0.33,0.32,0.34,0.34,1.75,1.75,1.75
74.38,1.42,-0.29,1.42,-0.29,0.28,0.30,0.31,1.71,1.71,1.71
75.12,1.42,-0.25,1.42,-0.25,0.24,0.27,0.27,1.67,1.67,1.68
75.87,1.42,-0.21,1.42,-0.21,0.20,0.23,0.24,1.63,1.63,1.63
76.63,1.42,-0.17,1.42,-0.17,0.16,0.19,0.20,1.59,1.59,1.59
77.40,1.42,-0.12,1.42,-0.12,0.12,0.15,0.17,1.54,1.54,1.55
78.17,1.42,-0.08,1.42,-0.08,0.08,0.11,0.13,1.50,1.50,1.51
78.95,1.42,-0.03,1.43,-0.03,0.04,0.07,0.10,1.47,1.47,1.46
79.74,1.42,0.00,1.43,0.01,0.01,0.03,0.06,1.44,1.44,1.42
80.54,1.42,0.05,1.41,0.04,-0.02,-0.01,0.03,1.41,1.40,1.37
81.35,1.39,0.07,1.39,0.06,-0.04,-0.05,-0.01,1.35,1.34,1.33
82.16,1.34,0.06,1.36,0.07,-0.07,-0.08,-0.05,1.27,1.28,1.29
82.98,1.32,0.08,1.33,0.08,-0.11,-0.12,-0.08,1.22,1.22,1.25
83.81,1.32,0.12,1.32,0.11,-0.15,-0.16,-0.12,1.18,1.17,1.20
84.65,1.32,0.15,1.33,0.17,-0.19,-0.20,-0.16,1.13,1.14,1.17
85.50,1.35,0.23,1.36,0.24,-0.24,-0.24,-0.19,1.11,1.12,1.13
86.35,1.40,0.32,1.39,0.31,-0.30,-0.28,-0.23,1.11,1.10,1.08
87.22,1.42,0.39,1.42,0.38,-0.35,-0.33,-0.27,1.07,1.07,1.04
88.09,1.42,0.43,1.43,0.43,-0.41,-0.37,-0.31,1.01,1.02,0.99
88.97,1.42,0.47,1.43,0.47,-0.47,-0.41,-0.35,0.96,0.96,0.96
89.86,1.42,0.51,1.42,0.51,-0.52,-0.45,-0.39,0.91,0.91,0.91
90.76,1.42,0.56,1.42,0.55,-0.56,-0.49,-0.43,0.86,0.86,0.87
91.66,1.42,0.59,1.42,0.60,-0.60,-0.54,-0.47,0.82,0.82,0.83
92.58,1.42,0.63,1.42,0.64,-0.64,-0.58,-0.51,0.79,0.79,0.79
93.51,1.42,0.68,1.42,0.68,-0.68,-0.62,-0.55,0.75,0.75,0.75
94.44,1.42,0.72,1.43,0.72,-0.72,-0.66,-0.59,0.71,0.71,0.71
95.39,1.42,0.75,1.43,0.75,-0.75,-0.71,-0.63,0.67,0.67,0.67
96.34,1.42,0.79,1.42,0.79,-0.78,-0.75,-0.67,0.64,0.64,0.63
97.30,1.41,0.82,1.42,0.83,-0.81,-0.79,-0.71,0.60,0.60,0.59
98.28,1.40,0.86,1.41,0.86,-0.85,-0.84,-0.75,0.56,0.56,0.55
99.26,1.39,0.89,1.39,0.88,-0.88,-0.88,-0.80,0.51,0.50,0.51
100.25,1.37,0.91,1.37,0.90,-0.92,-0.92,-0.84,0.45,0.45,0.47
101.25,1.35,0.93,1.36,0.94,-0.97,-0.97,-0.88,0.39,0.40,0.43
102.27,1.35,0.98,1.37,0.99,-1.01,-1.01,-0.92,0.35,0.36,0.38
103.29,1.39,1.07,1.39,1.06,-1.05,-1.05,-0.96,0.34,0.34,0.33
104.32,1.41,1.13,1.40,1.12,-1.09,-1.09,-1.00,0.32,0.30,0.28
105.37,1.39,1.15,1.40,1.16,-1.14,-1.13,-1.04,0.26,0.26,0.24
106.42,1.36,1.17,1.37,1.18,-1.18,-1.16,-1.08,0.19,0.20,0.19
107.48,1.34,1.20,1.34,1.20,-1.21,-1.20,-1.12,0.14,0.14,0.14
108.56,1.31,1.22,1.32,1.23,-1.23,-1.24,-1.16,0.09,0.09,0.09
109.64,1.29,1.25,1.30,1.25,-1.24,-1.27,-1.19,0.06,0.06,0.04
110.74,1.27,1.27,1.27,1.26,-1.25,-1.30,-1.23,0.03,0.02,0.00
111.85,1.24,1.28,1.22,1.26,-1.26,-1.33,-1.26,-0.01,-0.03,-0.03
112.97,1.15,1.23,1.18,1.25,-1.27,-1.35,-1.29,-0.12,-0.09,-0.07
114.10,1.14,1.26,1.15,1.26,-1.29,-1.38,-1.32,-0.14,-0.14,-0.11
115.24,1.14,1.28,1.14,1.28,-1.31,-1.40,-1.34,-0.16,-0.17,-0.14
116.39,1.14,1.32,1.14,1.32,-1.33,-1.41,-1.37,-0.18,-0.18,-0.18
117.55,1.14,1.34,1.15,1.35,-1.34,-1.43,-1.39,-0.20,-0.19,-0.20
118.73,1.15,1.38,1.16,1.38,-1.36,-1.44,-1.41,-0.20,-0.20,-0.22
119.92,1.16,1.40,1.16,1.40,-1.37,-1.45,-1.42,-0.20,-0.21,-0.24
121.12,1.15,1.41,1.15,1.40,-1.37,-1.45,-1.44,-0.22,-0.23,-0.26
122.33,1.10,1.38,1.12,1.39,-1.37,-1.45,-1.45,-0.27,-0.26,-0.27
123.55,1.08,1.37,1.07,1.36,-1.37,-1.45,-1.45,-0.28,-0.30,-0.29
124.79,1.03,1.34,1.03,1.34,-1.37,-1.45,-1.46,-0.33,-0.33,-0.30
126.03,0.99,1.31,1.01,1.33,-1.36,-1.44,-1.46,-0.37,-0.35,-0.32
127.29,1.00,1.34,1.00,1.33,-1.36,-1.43,-1.46,-0.36,-0.37,-0.33
128.57,1.00,1.35,1.01,1.35,-1.36,-1.41,-1.45,-0.36,-0.36,-0.35
129.85,1.01,1.38,1.02,1.38,-1.37,-1.40,-1.44,-0.35,-0.35,-0.36
131.15,1.02,1.40,1.02,1.39,-1.37,-1.38,-1.43,-0.34,-0.35,-0.37
132.46,1.01,1.41,1.00,1.40,-1.37,-1.36,-1.42,-0.35,-0.37,-0.40
133.79,0.95,1.36,0.97,1.38,-1.36,-1.33,-1.40,-0.41,-0.40,-0.41
135.12,0.92,1.35,0.92,1.35,-1.35,-1.31,-1.38,-0.42,-0.43,-0.43
136.48,0.86,1.31,0.87,1.32,-1.33,-1.28,-1.35,-0.46,-0.46,-0.44
137.84,0.83,1.30,0.83,1.29,-1.30,-1.25,-1.33,-0.47,-0.47,-0.46
139.22,0.78,1.27,0.78,1.26,-1.27,-1.22,-1.30,-0.48,-0.49,-0.48
140.61,0.74,1.25,0.74,1.24,-1.24,-1.19,-1.27,-0.49,-0.50,-0.50
142.02,0.67,1.19,0.70,1.22,-1.21,-1.16,-1.24,-0.53,-0.51,-0.52
143.44,0.65,1.20,0.65,1.19,-1.18,-1.12,-1.21,-0.52,-0.53,-0.55
144.87,0.61,1.19,0.58,1.15,-1.16,-1.09,-1.18,-0.54,-0.58,-0.57
146.32,0.49,1.10,0.51,1.12,-1.14,-1.06,-1.14,-0.64,-0.62,-0.60
147.78,0.43,1.07,0.47,1.10,-1.12,-1.02,-1.11,-0.69,-0.66,-0.64
149.26,0.43,1.11,0.43,1.11,-1.12,-0.99,-1.07,-0.68,-0.68,-0.67
150.75,0.43,1.15,0.40,1.11,-1.11,-0.95,-1.03,-0.68,-0.72,-0.72
152.26,0.34,1.12,0.34,1.12,-1.11,-0.91,-1.00,-0.77,-0.77,-0.77
153.78,0.24,1.07,0.29,1.12,-1.12,-0.88,-0.96,-0.87,-0.83,-0.83
155.32,0.23,1.12,0.22,1.11,-1.12,-0.84,-0.92,-0.88,-0.90,-0.89
156.88,0.19,1.14,0.16,1.11,-1.11,-0.81,-0.88,-0.91,-0.95,-0.94
158.44,0.07,1.08,0.11,1.11,-1.09,-0.78,-0.84,-1.01,-0.98,-1.00
160.03,0.03,1.09,0.03,1.09,-1.06,-0.74,-0.80,-1.02,-1.03,-1.06
161.63,-0.04,1.06,-0.06,1.04,-1.02,-0.71,-0.76,-1.05,-1.08,-1.10
163.24,-0.17,0.98,-0.17,0.97,-0.97,-0.68,-0.73,-1.13,-1.14,-1.15
164.88,-0.31,0.87,-0.28,0.89,-0.90,-0.64,-0.69,-1.21,-1.19,-1.18
166.53,-0.40,0.81,-0.39,0.82,-0.83,-0.61,-0.65,-1.23,-1.22,-1.21
168.19,-0.46,0.77,-0.47,0.75,-0.75,-0.58,-0.61,-1.21,-1.22,-1.22
169.87,-0.54,0.70,-0.54,0.69,-0.68,-0.55,-0.57,-1.21,-1.22,-1.23
171.57,-0.64,0.60,-0.63,0.61,-0.61,-0.52,-0.54,-1.24,-1.24,-1.24
173.29,-0.72,0.52,-0.72,0.52,-0.54,-0.49,-0.50,-1.26,-1.26,-1.24
175.02,-0.80,0.43,-0.78,0.44,-0.48,-0.46,-0.46,-1.28,-1.26,-1.22
176.77,-0.82,0.39,-0.81,0.40,-0.42,-0.43,-0.43,-1.24,-1.23,-1.21
178.54,-0.82,0.38,-0.81,0.38,-0.37,-0.41,-0.39,-1.18,-1.18,-1.20
180.32,-0.81,0.37,-0.83,0.35,-0.31,-0.38,-0.36,-1.12,-1.14,-1.17
182.13,-0.85,0.31,-0.87,0.28,-0.26,-0.35,-0.32,-1.11,-1.13,-1.16
183.95,-0.96,0.17,-0.92,0.22,-0.21,-0.33,-0.29,-1.16,-1.12,-1.13
185.79,-0.99,0.14,-0.98,0.15,-0.16,-0.30,-0.25,-1.14,-1.13,-1.12
187.65,-0.99,0.13,-1.03,0.08,-0.10,-0.28,-0.22,-1.09,-1.13,-1.12
189.52,-1.10,0.01,-1.07,0.04,-0.04,-0.25,-0.19,-1.14,-1.11,-1.11
191.42,-1.14,-0.02,-1.12,-0.01,0.01,-0.23,-0.15,-1.12,-1.10,-1.11
193.33,-1.15,-0.04,-1.18,-0.07,0.07,-0.21,-0.12,-1.08,-1.11,-1.10
195.27,-1.23,-0.12,-1.22,-0.11,0.12,-0.18,-0.09,-1.11,-1.10,-1.11
197.22,-1.29,-0.17,-1.27,-0.16,0.16,-0.16,-0.06,-1.12,-1.11,-1.12
199.19,-1.33,-0.21,-1.33,-0.21,0.21,-0.14,-0.02,-1.12,-1.12,-1.12
201.18,-1.37,-0.24,-1.38,-0.25,0.24,-0.12,0.01,-1.12,-1.14,-1.13
203.19,-1.44,-0.30,-1.43,-0.29,0.28,-0.10,0.04,-1.16,-1.15,-1.14
205.23,-1.48,-0.33,-1.46,-0.31,0.31,-0.07,0.07,-1.17,-1.15,-1.15
207.28,-1.48,-0.32,-1.49,-0.33,0.33,-0.05,0.10,-1.14,-1.15,-1.16
209.35,-1.50,-0.33,-1.51,-0.34,0.35,-0.03,0.13,-1.14,-1.16,-1.17
211.44,-1.56,-0.37,-1.54,-0.36,0.36,-0.01,0.16,-1.19,-1.18,-1.19
213.56,-1.59,-0.39,-1.57,-0.38,0.37,0.01,0.18,-1.22,-1.21,-1.19
215.69,-1.59,-0.37,-1.59,-0.38,0.37,0.03,0.21,-1.22,-1.22,-1.21
217.85,-1.59,-0.36,-1.59,-0.37,0.37,0.05,0.24,-1.22,-1.22,-1.22
220.03,-1.60,-0.36,-1.59,-0.36,0.36,0.06,0.27,-1.23,-1.23,-1.24
222.23,-1.60,-0.35,-1.59,-0.35,0.36,0.08,0.29,-1.24,-1.24,-1.25
224.45,-1.60,-0.34,-1.60,-0.34,0.35,0.10,0.32,-1.25,-1.25,-1.25
226.70,-1.60,-0.34,-1.60,-0.34,0.34,0.12,0.34,-1.26,-1.26,-1.26
228.96,-1.60,-0.33,-1.59,-0.33,0.33,0.14,0.37,-1.27,-1.27,-1.27
231.25,-1.59,-0.32,-1.59,-0.32,0.32,0.16,0.39,-1.27,-1.27,-1.26
233.57,-1.58,-0.31,-1.58,-0.31,0.31,0.18,0.41,-1.27,-1.27,-1.27
235.90,-1.57,-0.30,-1.56,-0.30,0.30,0.20,0.44,-1.27,-1.26,-1.27
238.26,-1.55,-0.28,-1.55,-0.29,0.29,0.21,0.46,-1.26,-1.26,-1.26
240.64,-1.53,-0.28,-1.53,-0.28,0.28,0.23,0.48,-1.25,-1.25,-1.25
243.05,-1.52,-0.27,-1.51,-0.27,0.26,0.25,0.50,-1.25,-1.25,-1.24
245.48,-1.50,-0.26,-1.49,-0.25,0.25,0.27,0.52,-1.25,-1.24,-1.24
247.93,-1.47,-0.23,-1.47,-0.24,0.23,0.29,0.54,-1.23,-1.24,-1.23
250.41,-1.45,-0.22,-1.45,-0.22,0.22,0.31,0.55,-1.23,-1.23,-1.23
252.92,-1.44,-0.21,-1.43,-0.21,0.21,0.33,0.57,-1.23,-1.23,-1.22
255.45,-1.43,-0.20,-1.42,-0.19,0.20,0.35,0.59,-1.22,-1.22,-1.23
258.00,-1.42,-0.19,-1.41,-0.18,0.20,0.37,0.60,-1.22,-1.21,-1.23
260.58,-1.41,-0.17,-1.43,-0.19,0.20,0.39,0.62,-1.20,-1.22,-1.23
263.19,-1.46,-0.22,-1.46,-0.22,0.22,0.41,0.63,-1.24,-1.24,-1.24
265.82,-1.51,-0.26,-1.48,-0.24,0.24,0.43,0.65,-1.27,-1.25,-1.24
268.48,-1.52,-0.27,-1.51,-0.27,0.27,0.45,0.66,-1.25,-1.25,-1.25
271.16,-1.52,-0.27,-1.54,-0.29,0.30,0.47,0.67,-1.22,-1.24,-1.25
273.87,-1.59,-0.33,-1.58,-0.33,0.34,0.49,0.69,-1.25,-1.25,-1.25
276.61,-1.64,-0.38,-1.64,-0.38,0.37,0.52,0.70,-1.26,-1.26,-1.26
279.38,-1.71,-0.45,-1.69,-0.43,0.41,0.54,0.71,-1.29,-1.27,-1.26
282.17,-1.72,-0.46,-1.73,-0.48,0.46,0.56,0.72,-1.26,-1.27,-1.25
284.99,-1.76,-0.51,-1.75,-0.50,0.51,0.59,0.73,-1.25,-1.25,-1.24
287.84,-1.81,-0.56,-1.78,-0.54,0.56,0.61,0.74,-1.25,-1.23,-1.25
290.72,-1.80,-0.56,-1.83,-0.59,0.61,0.64,0.76,-1.18,-1.22,-1.24
293.63,-1.91,-0.67,-1.89,-0.66,0.67,0.67,0.77,-1.23,-1.22,-1.23
296.57,-1.96,-0.73,-1.96,-0.73,0.73,0.70,0.78,-1.23,-1.23,-1.23
299.53,-2.04,-0.81,-2.03,-0.80,0.78,0.73,0.79,-1.25,-1.24,-1.23
302.53,-2.08,-0.86,-2.08,-0.86,0.84,0.76,0.81,-1.23,-1.24,-1.22
305.55,-2.13,-0.90,-2.13,-0.91,0.90,0.79,0.82,-1.22,-1.23,-1.22
308.61,-2.20,-0.97,-2.19,-0.96,0.96,0.82,0.83,-1.24,-1.23,-1.22
311.69,-2.24,-1.01,-2.24,-1.01,1.01,0.86,0.85,-1.22,-1.23,-1.23
314.81,-2.30,-1.06,-2.28,-1.04,1.06,0.89,0.86,-1.24,-1.22,-1.24
317.96,-2.32,-1.08,-2.33,-1.09,1.10,0.93,0.88,-1.22,-1.23,-1.24
321.14,-2.38,-1.12,-2.40,-1.15,1.14,0.97,0.89,-1.23,-1.26,-1.25
324.35,-2.50,-1.24,-2.45,-1.20,1.19,1.01,0.91,-1.31,-1.27,-1.25
327.59,-2.52,-1.25,-2.51,-1.24,1.24,1.06,0.93,-1.28,-1.28,-1.27
330.87,-2.53,-1.25,-2.55,-1.27,1.28,1.11,0.95,-1.24,-1.26,-1.28
334.18,-2.60,-1.31,-2.59,-1.30,1.33,1.16,0.97,-1.26,-1.26,-1.29
337.52,-2.65,-1.35,-2.67,-1.38,1.38,1.21,0.99,-1.27,-1.29,-1.30
340.90,-2.78,-1.47,-2.75,-1.44,1.43,1.26,1.01,-1.35,-1.32,-1.30
344.30,-2.84,-1.52,-2.80,-1.49,1.47,1.32,1.03,-1.36,-1.33,-1.31
347.75,-2.83,-1.49,-2.86,-1.53,1.53,1.38,1.05,-1.30,-1.34,-1.33
351.23,-2.90,-1.55,-2.91,-1.56,1.58,1.44,1.08,-1.31,-1.33,-1.35
354.74,-3.00,-1.64,-2.96,-1.60,1.63,1.51,1.10,-1.36,-1.32,-1.36
358.28,-3.02,-1.65,-3.03,-1.67,1.67,1.58,1.13,-1.34,-1.36,-1.37
361.87,-3.08,-1.70,-3.10,-1.72,1.70,1.65,1.15,-1.37,-1.40,-1.38
365.49,-3.19,-1.79,-3.15,-1.76,1.73,1.72,1.18,-1.46,-1.43,-1.40
369.14,-3.21,-1.79,-3.20,-1.79,1.75,1.80,1.21,-1.46,-1.45,-1.41
372.83,-3.20,-1.77,-3.20,-1.78,1.76,1.88,1.24,-1.43,-1.44,-1.42
376.56,-3.19,-1.75,-3.18,-1.75,1.78,1.95,1.27,-1.41,-1.40,-1.43
380.33,-3.18,-1.73,-3.19,-1.74,1.78,2.03,1.30,-1.39,-1.41,-1.44
384.13,-3.20,-1.74,-3.21,-1.76,1.78,2.11,1.33,-1.42,-1.44,-1.45
387.97,-3.27,-1.80,-3.24,-1.78,1.77,2.18,1.36,-1.50,-1.47,-1.47
391.85,-3.28,-1.80,-3.27,-1.79,1.76,2.25,1.39,-1.51,-1.51,-1.48
395.77,-3.27,-1.78,-3.27,-1.79,1.76,2.31,1.43,-1.50,-1.51,-1.49
399.73,-3.27,-1.77,-3.27,-1.77,1.77,2.37,1.46,-1.50,-1.50,-1.50
403.72,-3.27,-1.76,-3.26,-1.74,1.78,2.42,1.49,-1.49,-1.48,-1.51
407.76,-3.27,-1.74,-3.27,-1.74,1.78,2.45,1.53,-1.48,-1.49,-1.53
411.84,-3.28,-1.74,-3.31,-1.77,1.79,2.48,1.56,-1.49,-1.52,-1.54
415.96,-3.38,-1.82,-3.35,-1.80,1.79,2.50,1.59,-1.58,-1.56,-1.55
420.12,-3.41,-1.85,-3.38,-1.83,1.80,2.50,1.62,-1.61,-1.59,-1.55
424.32,-3.38,-1.81,-3.39,-1.83,1.80,2.49,1.66,-1.58,-1.59,-1.56
428.56,-3.36,-1.79,-3.36,-1.80,1.80,2.46,1.69,-1.56,-1.57,-1.56
432.85,-3.35,-1.79,-3.34,-1.79,1.79,2.43,1.72,-1.56,-1.55,-1.55
437.18,-3.32,-1.77,-3.32,-1.77,1.77,2.38,1.75,-1.54,-1.54,-1.54
441.55,-3.29,-1.76,-3.28,-1.76,1.75,2.33,1.77,-1.53,-1.53,-1.52
445.96,-3.24,-1.73,-3.24,-1.73,1.74,2.27,1.80,-1.50,-1.50,-1.50
450.42,-3.19,-1.71,-3.18,-1.71,1.72,2.20,1.82,-1.46,-1.46,-1.48
454.93,-3.13,-1.69,-3.12,-1.68,1.72,2.12,1.84,-1.41,-1.40,-1.44
459.48,-3.07,-1.67,-3.09,-1.69,1.71,2.05,1.86,-1.36,-1.38,-1.40
464.07,-3.06,-1.69,-3.07,-1.71,1.70,1.97,1.87,-1.35,-1.37,-1.37
468.71,-3.09,-1.76,-3.05,-1.72,1.70,1.89,1.89,-1.39,-1.35,-1.33
473.40,-3.02,-1.73,-3.01,-1.72,1.69,1.81,1.90,-1.32,-1.32,-1.29
478.13,-2.94,-1.69,-2.95,-1.70,1.69,1.73,1.90,-1.25,-1.26,-1.25
482.91,-2.89,-1.67,-2.89,-1.67,1.68,1.66,1.90,-1.20,-1.21,-1.22
487.74,-2.85,-1.66,-2.84,-1.66,1.67,1.58,1.90,-1.17,-1.17,-1.19
492.62,-2.82,-1.65,-2.81,-1.65,1.66,1.51,1.90,-1.16,-1.16,-1.17
