frequency,raw,error,smoothed,error_smoothed,equalization,parametric_eq,fixed_band_eq,equalized_raw,equalized_smoothed,target
20.00,-3.17,1.18,-3.17,1.18,-1.18,-0.64,-0.35,-4.35,-4.35,-4.35
20.20,-3.13,1.13,-3.13,1.13,-1.13,-0.64,-0.36,-4.26,-4.26,-4.26
20.40,-3.10,1.07,-3.10,1.08,-1.08,-0.64,-0.37,-4.18,-4.18,-4.17
20.61,-3.06,1.04,-3.06,1.03,-1.03,-0.64,-0.38,-4.10,-4.10,-4.11
20.81,-3.02,0.99,-3.02,0.99,-0.99,-0.64,-0.39,-4.01,-4.02,-4.01
21.02,-2.99,0.94,-2.99,0.95,-0.96,-0.65,-0.41,-3.95,-3.94,-3.93
21.23,-2.95,0.92,-2.95,0.92,-0.92,-0.65,-0.42,-3.87,-3.88,-3.88
21.44,-2.92,0.89,-2.92,0.89,-0.89,-0.65,-0.43,-3.81,-3.81,-3.81
21.66,-2.88,0.87,-2.88,0.87,-0.87,-0.65,-0.44,-3.75,-3.75,-3.75
21.87,-2.85,0.85,-2.85,0.85,-0.85,-0.65,-0.45,-3.70,-3.70,-3.70
22.09,-2.81,0.84,-2.81,0.83,-0.83,-0.65,-0.47,-3.64,-3.65,-3.65
22.31,-2.78,0.82,-2.78,0.82,-0.82,-0.66,-0.48,-3.60,-3.60,-3.60
22.54,-2.74,0.81,-2.74,0.81,-0.81,-0.66,-0.49,-3.55,-3.55,-3.55
22.76,-2.71,0.80,-2.71,0.80,-0.80,-0.66,-0.51,-3.51,-3.51,-3.51
22.99,-2.67,0.80,-2.67,0.79,-0.79,-0.66,-0.52,-3.46,-3.46,-3.47
23.22,-2.64,0.79,-2.64,0.78,-0.78,-0.66,-0.54,-3.42,-3.42,-3.43
23.45,-2.61,0.77,-2.61,0.78,-0.77,-0.66,-0.55,-3.38,-3.38,-3.38
23.69,-2.57,0.77,-2.58,0.76,-0.77,-0.67,-0.57,-3.34,-3.34,-3.34
23.92,-2.54,0.76,-2.54,0.75,-0.76,-0.67,-0.58,-3.30,-3.30,-3.30
24.16,-2.51,0.74,-2.51,0.75,-0.75,-0.67,-0.60,-3.26,-3.26,-3.25
24.40,-2.47,0.74,-2.47,0.74,-0.74,-0.67,-0.62,-3.21,-3.22,-3.21
24.65,-2.44,0.74,-2.44,0.74,-0.74,-0.68,-0.63,-3.18,-3.18,-3.18
24.89,-2.40,0.74,-2.40,0.74,-0.73,-0.68,-0.65,-3.13,-3.14,-3.14
25.14,-2.37,0.73,-2.37,0.73,-0.73,-0.68,-0.67,-3.10,-3.10,-3.10
25.39,-2.34,0.72,-2.34,0.72,-0.73,-0.68,-0.68,-3.07,-3.07,-3.06
25.65,-2.31,0.71,-2.31,0.72,-0.72,-0.68,-0.70,-3.03,-3.03,-3.02
25.91,-2.27,0.72,-2.27,0.72,-0.72,-0.69,-0.72,-2.99,-2.99,-3.00
26.16,-2.24,0.72,-2.24,0.72,-0.71,-0.69,-0.73,-2.96,-2.96,-2.96
26.43,-2.21,0.72,-2.21,0.71,-0.71,-0.69,-0.75,-2.92,-2.92,-2.93
26.69,-2.18,0.71,-2.18,0.71,-0.71,-0.69,-0.77,-2.89,-2.89,-2.89
26.96,-2.15,0.70,-2.15,0.70,-0.71,-0.70,-0.78,-2.86,-2.85,-2.85
27.23,-2.11,0.71,-2.11,0.70,-0.70,-0.70,-0.80,-2.82,-2.82,-2.82
27.50,-2.08,0.70,-2.08,0.70,-0.70,-0.70,-0.81,-2.78,-2.78,-2.78
27.77,-2.05,0.70,-2.05,0.70,-0.70,-0.70,-0.83,-2.75,-2.75,-2.75
28.05,-2.02,0.69,-2.02,0.70,-0.70,-0.71,-0.84,-2.72,-2.72,-2.71
28.33,-1.99,0.70,-1.99,0.70,-0.69,-0.71,-0.86,-2.68,-2.68,-2.69
28.62,-1.96,0.69,-1.96,0.69,-0.69,-0.71,-0.87,-2.65,-2.65,-2.65
28.90,-1.93,0.68,-1.93,0.69,-0.68,-0.72,-0.89,-2.62,-2.62,-2.61
29.19,-1.90,0.68,-1.90,0.68,-0.68,-0.72,-0.90,-2.58,-2.58,-2.59
29.48,-1.88,0.66,-1.88,0.67,-0.67,-0.72,-0.91,-2.55,-2.55,-2.54
29.78,-1.85,0.67,-1.85,0.66,-0.66,-0.72,-0.92,-2.51,-2.51,-2.52
30.08,-1.83,0.65,-1.83,0.65,-0.65,-0.73,-0.93,-2.48,-2.48,-2.48
30.38,-1.81,0.64,-1.81,0.64,-0.63,-0.73,-0.94,-2.44,-2.45,-2.45
30.68,-1.80,0.61,-1.80,0.62,-0.62,-0.73,-0.95,-2.42,-2.42,-2.41
30.99,-1.78,0.61,-1.78,0.61,-0.61,-0.74,-0.95,-2.39,-2.39,-2.39
31.30,-1.76,0.59,-1.76,0.59,-0.60,-0.74,-0.96,-2.36,-2.36,-2.36
31.61,-1.74,0.59,-1.74,0.59,-0.59,-0.74,-0.96,-2.33,-2.33,-2.33
31.93,-1.72,0.58,-1.72,0.58,-0.58,-0.75,-0.97,-2.30,-2.30,-2.30
32.24,-1.69,0.59,-1.69,0.58,-0.58,-0.75,-0.97,-2.27,-2.27,-2.28
32.57,-1.67,0.58,-1.67,0.58,-0.57,-0.76,-0.97,-2.24,-2.24,-2.25
32.89,-1.65,0.56,-1.65,0.57,-0.57,-0.76,-0.97,-2.22,-2.22,-2.21
33.22,-1.63,0.56,-1.63,0.56,-0.57,-0.76,-0.97,-2.20,-2.20,-2.19
33.55,-1.61,0.56,-1.61,0.56,-0.56,-0.77,-0.97,-2.17,-2.17,-2.18
33.89,-1.59,0.57,-1.59,0.56,-0.56,-0.77,-0.97,-2.15,-2.15,-2.16
34.23,-1.57,0.56,-1.57,0.56,-0.56,-0.77,-0.97,-2.13,-2.13,-2.13
34.57,-1.55,0.56,-1.55,0.56,-0.57,-0.78,-0.96,-2.12,-2.12,-2.11
34.92,-1.53,0.57,-1.53,0.56,-0.57,-0.78,-0.96,-2.10,-2.10,-2.10
35.27,-1.51,0.57,-1.51,0.57,-0.57,-0.79,-0.95,-2.08,-2.08,-2.08
35.62,-1.49,0.58,-1.49,0.58,-0.58,-0.79,-0.95,-2.07,-2.07,-2.07
35.97,-1.47,0.59,-1.47,0.58,-0.58,-0.80,-0.95,-2.05,-2.05,-2.06
36.33,-1.46,0.58,-1.46,0.59,-0.58,-0.80,-0.94,-2.04,-2.04,-2.04
36.70,-1.44,0.59,-1.44,0.59,-0.59,-0.80,-0.94,-2.03,-2.03,-2.04
37.06,-1.43,0.60,-1.43,0.59,-0.59,-0.81,-0.93,-2.02,-2.02,-2.03
37.43,-1.42,0.59,-1.42,0.59,-0.59,-0.81,-0.93,-2.01,-2.01,-2.01
37.81,-1.41,0.59,-1.41,0.59,-0.60,-0.82,-0.92,-2.01,-2.01,-2.00
38.19,-1.40,0.60,-1.40,0.59,-0.60,-0.82,-0.92,-2.00,-2.00,-2.00
38.57,-1.39,0.60,-1.39,0.60,-0.61,-0.83,-0.91,-2.00,-2.00,-1.99
38.95,-1.38,0.61,-1.38,0.61,-0.62,-0.83,-0.91,-2.00,-2.00,-1.99
39.34,-1.37,0.63,-1.37,0.62,-0.63,-0.84,-0.90,-2.00,-1.99,-2.00
39.74,-1.35,0.64,-1.35,0.64,-0.64,-0.84,-0.90,-1.99,-1.99,-1.99
40.14,-1.34,0.65,-1.34,0.65,-0.65,-0.85,-0.90,-1.99,-1.99,-1.99
40.54,-1.32,0.68,-1.32,0.67,-0.66,-0.86,-0.90,-1.98,-1.99,-2.00
40.94,-1.31,0.68,-1.31,0.68,-0.68,-0.86,-0.89,-1.99,-1.99,-1.99
41.35,-1.30,0.69,-1.30,0.69,-0.69,-0.87,-0.89,-1.99,-1.99,-1.99
41.76,-1.29,0.70,-1.29,0.70,-0.70,-0.87,-0.89,-1.99,-1.99,-1.99
42.18,-1.27,0.71,-1.27,0.71,-0.72,-0.88,-0.89,-1.99,-1.99,-1.98
42.60,-1.26,0.73,-1.26,0.72,-0.73,-0.89,-0.89,-1.99,-1.99,-1.99
43.03,-1.24,0.74,-1.24,0.74,-0.75,-0.89,-0.89,-1.99,-1.99,-1.98
43.46,-1.22,0.76,-1.22,0.77,-0.77,-0.90,-0.89,-1.99,-1.99,-1.99
43.90,-1.20,0.80,-1.20,0.80,-0.80,-0.90,-0.90,-2.00,-2.00,-2.00
44.33,-1.18,0.82,-1.18,0.82,-0.82,-0.91,-0.90,-2.00,-2.00,-2.01
44.78,-1.16,0.85,-1.16,0.85,-0.84,-0.92,-0.90,-2.01,-2.01,-2.01
45.23,-1.14,0.87,-1.14,0.87,-0.87,-0.92,-0.91,-2.01,-2.01,-2.02
45.68,-1.13,0.89,-1.13,0.89,-0.89,-0.93,-0.91,-2.02,-2.02,-2.02
46.13,-1.12,0.91,-1.12,0.91,-0.90,-0.94,-0.92,-2.02,-2.02,-2.03
46.60,-1.10,0.92,-1.10,0.92,-0.92,-0.94,-0.92,-2.02,-2.02,-2.02
47.06,-1.09,0.93,-1.09,0.93,-0.93,-0.95,-0.93,-2.02,-2.02,-2.02
47.53,-1.08,0.95,-1.08,0.94,-0.95,-0.96,-0.94,-2.03,-2.03,-2.03
48.01,-1.07,0.94,-1.07,0.95,-0.96,-0.97,-0.94,-2.03,-2.03,-2.01
48.49,-1.06,0.97,-1.06,0.97,-0.98,-0.97,-0.95,-2.04,-2.03,-2.03
48.97,-1.04,1.00,-1.04,0.99,-0.99,-0.98,-0.96,-2.03,-2.04,-2.04
49.46,-1.03,1.01,-1.03,1.02,-1.01,-0.99,-0.97,-2.04,-2.04,-2.04
49.96,-1.01,1.04,-1.01,1.03,-1.02,-1.00,-0.98,-2.03,-2.04,-2.05
50.46,-1.00,1.03,-1.00,1.04,-1.04,-1.01,-0.99,-2.04,-2.04,-2.03
50.96,-0.98,1.05,-0.98,1.05,-1.05,-1.02,-1.00,-2.03,-2.03,-2.03
51.47,-0.97,1.07,-0.97,1.06,-1.06,-1.02,-1.02,-2.03,-2.03,-2.04
51.99,-0.95,1.07,-0.95,1.07,-1.07,-1.03,-1.03,-2.02,-2.02,-2.03
52.51,-0.94,1.07,-0.94,1.08,-1.07,-1.04,-1.04,-2.01,-2.01,-2.01
53.03,-0.93,1.07,-0.93,1.08,-1.08,-1.05,-1.05,-2.01,-2.01,-2.00
53.56,-0.92,1.08,-0.92,1.08,-1.08,-1.06,-1.07,-2.00,-2.00,-2.00
54.10,-0.92,1.08,-0.92,1.08,-1.08,-1.07,-1.08,-2.00,-2.00,-2.00
54.64,-0.91,1.08,-0.91,1.08,-1.08,-1.08,-1.09,-1.99,-2.00,-1.99
55.18,-0.91,1.08,-0.91,1.08,-1.08,-1.09,-1.11,-2.00,-1.99,-1.99
55.74,-0.91,1.08,-0.91,1.08,-1.08,-1.10,-1.12,-2.00,-1.99,-2.00
56.29,-0.91,1.09,-0.91,1.08,-1.08,-1.11,-1.13,-1.99,-2.00,-2.00
56.86,-0.92,1.08,-0.92,1.08,-1.08,-1.12,-1.15,-2.00,-2.00,-2.00
57.42,-0.92,1.09,-0.92,1.08,-1.08,-1.13,-1.16,-2.00,-2.00,-2.01
58.00,-0.93,1.08,-0.93,1.08,-1.08,-1.14,-1.17,-2.01,-2.01,-2.01
58.58,-0.94,1.08,-0.94,1.08,-1.08,-1.15,-1.19,-2.02,-2.01,-2.02
59.16,-0.94,1.08,-0.94,1.08,-1.08,-1.16,-1.20,-2.02,-2.02,-2.02
59.76,-0.95,1.07,-0.95,1.08,-1.08,-1.17,-1.21,-2.03,-2.03,-2.02
60.35,-0.95,1.09,-0.95,1.08,-1.09,-1.18,-1.23,-2.04,-2.05,-2.04
60.96,-0.96,1.09,-0.96,1.10,-1.10,-1.19,-1.24,-2.06,-2.06,-2.05
61.57,-0.96,1.12,-0.96,1.12,-1.12,-1.21,-1.25,-2.08,-2.08,-2.08
62.18,-0.96,1.14,-0.96,1.14,-1.14,-1.22,-1.26,-2.10,-2.09,-2.10
62.80,-0.95,1.16,-0.95,1.16,-1.16,-1.23,-1.27,-2.11,-2.11,-2.11
63.43,-0.95,1.19,-0.95,1.18,-1.18,-1.24,-1.28,-2.13,-2.13,-2.14
64.07,-0.94,1.20,-0.94,1.20,-1.20,-1.26,-1.30,-2.14,-2.14,-2.14
64.71,-0.93,1.22,-0.93,1.22,-1.23,-1.27,-1.31,-2.16,-2.15,-2.15
65.35,-0.91,1.25,-0.91,1.25,-1.25,-1.28,-1.32,-2.16,-2.16,-2.16
66.01,-0.89,1.28,-0.90,1.27,-1.27,-1.29,-1.33,-2.16,-2.17,-2.17
66.67,-0.88,1.30,-0.88,1.30,-1.30,-1.31,-1.34,-2.18,-2.17,-2.18
67.33,-0.86,1.31,-0.86,1.32,-1.32,-1.32,-1.35,-2.18,-2.18,-2.18
68.01,-0.83,1.35,-0.84,1.34,-1.34,-1.34,-1.36,-2.17,-2.18,-2.18
68.69,-0.81,1.37,-0.81,1.37,-1.36,-1.35,-1.37,-2.18,-2.18,-2.18
69.37,-0.79,1.39,-0.79,1.39,-1.39,-1.36,-1.38,-2.18,-2.18,-2.18
70.07,-0.77,1.41,-0.77,1.41,-1.41,-1.38,-1.39,-2.18,-2.17,-2.18
70.77,-0.74,1.43,-0.74,1.43,-1.43,-1.39,-1.40,-2.17,-2.17,-2.17
71.48,-0.72,1.45,-0.72,1.45,-1.45,-1.41,-1.41,-2.17,-2.18,-2.17
72.19,-0.71,1.47,-0.71,1.47,-1.47,-1.43,-1.42,-2.18,-2.18,-2.18
72.91,-0.69,1.49,-0.69,1.49,-1.50,-1.44,-1.43,-2.19,-2.19,-2.18
73.64,-0.67,1.53,-0.67,1.52,-1.52,-1.46,-1.44,-2.19,-2.19,-2.20
74.38,-0.65,1.54,-0.65,1.54,-1.55,-1.47,-1.46,-2.20,-2.20,-2.19
75.12,-0.63,1.57,-0.63,1.57,-1.57,-1.49,-1.47,-2.20,-2.20,-2.20
75.87,-0.60,1.59,-0.60,1.59,-1.59,-1.51,-1.49,-2.19,-2.20,-2.19
76.63,-0.58,1.62,-0.58,1.62,-1.61,-1.52,-1.50,-2.20,-2.20,-2.20
77.40,-0.56,1.64,-0.56,1.64,-1.63,-1.54,-1.52,-2.20,-2.19,-2.20
78.17,-0.54,1.67,-0.54,1.66,-1.65,-1.56,-1.53,-2.19,-2.19,-2.21
78.95,-0.52,1.67,-0.52,1.67,-1.67,-1.58,-1.55,-2.19,-2.19,-2.19
79.74,-0.51,1.67,-0.51,1.68,-1.68,-1.60,-1.57,-2.20,-2.19,-2.18
80.54,-0.48,1.69,-0.48,1.69,-1.70,-1.62,-1.59,-2.18,-2.18,-2.17
81.35,-0.46,1.70,-0.46,1.70,-1.71,-1.64,-1.61,-2.17,-2.17,-2.16
82.16,-0.43,1.72,-0.43,1.72,-1.72,-1.66,-1.64,-2.15,-2.15,-2.15
82.98,-0.40,1.72,-0.40,1.73,-1.73,-1.68,-1.66,-2.13,-2.13,-2.13
83.81,-0.38,1.74,-0.38,1.74,-1.73,-1.70,-1.69,-2.11,-2.11,-2.12
84.65,-0.35,1.76,-0.36,1.74,-1.73,-1.72,-1.71,-2.08,-2.09,-2.11
85.50,-0.34,1.73,-0.34,1.74,-1.73,-1.74,-1.74,-2.08,-2.07,-2.07
86.35,-0.32,1.73,-0.32,1.74,-1.73,-1.76,-1.77,-2.06,-2.06,-2.05
87.22,-0.31,1.73,-0.31,1.73,-1.73,-1.78,-1.80,-2.04,-2.05,-2.04
88.09,-0.30,1.73,-0.30,1.73,-1.73,-1.80,-1.84,-2.03,-2.03,-2.03
88.97,-0.28,1.73,-0.28,1.73,-1.73,-1.83,-1.87,-2.01,-2.01,-2.01
89.86,-0.26,1.74,-0.27,1.74,-1.74,-1.85,-1.91,-2.00,-2.00,-2.00
90.76,-0.25,1.76,-0.25,1.75,-1.75,-1.87,-1.94,-2.00,-2.00,-2.01
91.66,-0.24,1.75,-0.24,1.77,-1.76,-1.90,-1.98,-2.01,-2.00,-1.99
92.58,-0.22,1.79,-0.22,1.78,-1.79,-1.92,-2.02,-2.01,-2.01,-2.01
93.51,-0.19,1.81,-0.20,1.81,-1.82,-1.95,-2.06,-2.01,-2.02,-2.01
94.44,-0.17,1.84,-0.17,1.85,-1.86,-1.97,-2.10,-2.03,-2.02,-2.01
95.39,-0.13,1.90,-0.13,1.90,-1.90,-2.00,-2.14,-2.04,-2.04,-2.03
96.34,-0.10,1.96,-0.10,1.95,-1.95,-2.02,-2.19,-2.05,-2.06,-2.06
97.30,-0.07,2.01,-0.07,2.01,-2.01,-2.05,-2.23,-2.08,-2.08,-2.08
98.28,-0.04,2.07,-0.04,2.07,-2.06,-2.08,-2.28,-2.10,-2.10,-2.11
99.26,-0.01,2.13,-0.02,2.13,-2.12,-2.10,-2.33,-2.13,-2.14,-2.14
100.25,-0.00,2.18,0.00,2.18,-2.17,-2.13,-2.38,-2.17,-2.17,-2.18
101.25,0.02,2.23,0.02,2.23,-2.22,-2.16,-2.43,-2.21,-2.21,-2.22
102.27,0.03,2.27,0.03,2.28,-2.27,-2.19,-2.48,-2.25,-2.25,-2.24
103.29,0.04,2.33,0.04,2.33,-2.32,-2.22,-2.53,-2.28,-2.28,-2.29
104.32,0.05,2.37,0.05,2.37,-2.37,-2.25,-2.58,-2.32,-2.32,-2.32
105.37,0.07,2.43,0.06,2.42,-2.43,-2.28,-2.63,-2.36,-2.36,-2.36
106.42,0.08,2.47,0.08,2.47,-2.48,-2.31,-2.68,-2.40,-2.40,-2.39
107.48,0.10,2.52,0.10,2.53,-2.54,-2.34,-2.73,-2.44,-2.44,-2.43
108.56,0.14,2.60,0.13,2.60,-2.60,-2.37,-2.77,-2.47,-2.47,-2.46
109.64,0.17,2.67,0.17,2.67,-2.67,-2.41,-2.82,-2.50,-2.50,-2.50
110.74,0.21,2.74,0.21,2.74,-2.74,-2.44,-2.87,-2.53,-2.53,-2.53
111.85,0.25,2.80,0.25,2.80,-2.80,-2.47,-2.92,-2.55,-2.56,-2.55
112.97,0.28,2.87,0.28,2.87,-2.86,-2.51,-2.96,-2.58,-2.58,-2.60
114.10,0.31,2.92,0.31,2.92,-2.92,-2.54,-3.01,-2.61,-2.61,-2.61
115.24,0.34,2.98,0.33,2.97,-2.97,-2.58,-3.05,-2.63,-2.64,-2.64
116.39,0.35,3.01,0.35,3.02,-3.01,-2.61,-3.09,-2.66,-2.66,-2.66
117.55,0.37,3.05,0.37,3.05,-3.04,-2.65,-3.12,-2.67,-2.67,-2.68
118.73,0.38,3.08,0.38,3.07,-3.07,-2.68,-3.16,-2.69,-2.69,-2.70
119.92,0.38,3.09,0.38,3.09,-3.08,-2.72,-3.19,-2.71,-2.70,-2.71
121.12,0.38,3.10,0.38,3.10,-3.10,-2.76,-3.22,-2.72,-2.72,-2.72
122.33,0.37,3.11,0.37,3.10,-3.11,-2.79,-3.24,-2.74,-2.74,-2.74
123.55,0.36,3.10,0.36,3.11,-3.12,-2.83,-3.26,-2.76,-2.75,-2.74
124.79,0.36,3.12,0.36,3.11,-3.12,-2.87,-3.28,-2.76,-2.77,-2.76
126.03,0.36,3.13,0.36,3.13,-3.13,-2.91,-3.30,-2.77,-2.77,-2.77
127.29,0.36,3.13,0.36,3.14,-3.14,-2.95,-3.31,-2.78,-2.78,-2.78
128.57,0.36,3.16,0.36,3.15,-3.15,-2.98,-3.32,-2.79,-2.79,-2.80
129.85,0.36,3.17,0.36,3.17,-3.16,-3.02,-3.33,-2.81,-2.81,-2.81
131.15,0.36,3.18,0.36,3.18,-3.18,-3.06,-3.34,-2.82,-2.82,-2.82
132.46,0.36,3.19,0.36,3.19,-3.19,-3.10,-3.34,-2.83,-2.83,-2.84
133.79,0.36,3.20,0.36,3.20,-3.21,-3.14,-3.34,-2.85,-2.85,-2.84
135.12,0.36,3.23,0.36,3.22,-3.22,-3.18,-3.33,-2.86,-2.86,-2.87
136.48,0.36,3.23,0.36,3.23,-3.24,-3.22,-3.33,-2.88,-2.88,-2.87
137.84,0.36,3.25,0.36,3.25,-3.25,-3.26,-3.32,-2.89,-2.89,-2.89
139.22,0.36,3.28,0.36,3.27,-3.27,-3.30,-3.32,-2.91,-2.91,-2.92
140.61,0.36,3.29,0.36,3.29,-3.29,-3.34,-3.31,-2.93,-2.93,-2.94
142.02,0.36,3.30,0.36,3.31,-3.30,-3.38,-3.30,-2.95,-2.95,-2.94
143.44,0.36,3.32,0.36,3.33,-3.32,-3.41,-3.29,-2.97,-2.97,-2.96
144.87,0.36,3.35,0.36,3.35,-3.35,-3.45,-3.28,-2.99,-2.99,-2.99
146.32,0.36,3.37,0.36,3.36,-3.37,-3.49,-3.26,-3.01,-3.01,-3.01
147.78,0.36,3.38,0.36,3.39,-3.39,-3.53,-3.25,-3.03,-3.03,-3.02
149.26,0.36,3.41,0.36,3.41,-3.42,-3.57,-3.24,-3.06,-3.06,-3.05
150.75,0.36,3.45,0.36,3.44,-3.44,-3.60,-3.24,-3.08,-3.08,-3.09
152.26,0.36,3.47,0.36,3.47,-3.47,-3.64,-3.23,-3.11,-3.11,-3.11
153.78,0.36,3.50,0.36,3.50,-3.50,-3.67,-3.22,-3.14,-3.14,-3.14
155.32,0.36,3.53,0.36,3.53,-3.53,-3.71,-3.22,-3.17,-3.17,-3.17
156.88,0.36,3.55,0.36,3.56,-3.56,-3.74,-3.21,-3.20,-3.20,-3.19
158.44,0.36,3.59,0.36,3.59,-3.59,-3.77,-3.21,-3.23,-3.23,-3.23
160.03,0.36,3.63,0.36,3.62,-3.62,-3.81,-3.21,-3.26,-3.26,-3.27
161.63,0.36,3.66,0.36,3.66,-3.65,-3.84,-3.21,-3.29,-3.29,-3.30
163.24,0.36,3.69,0.36,3.68,-3.68,-3.87,-3.21,-3.32,-3.32,-3.33
164.88,0.36,3.71,0.36,3.71,-3.71,-3.90,-3.22,-3.35,-3.35,-3.35
166.53,0.36,3.74,0.36,3.74,-3.74,-3.92,-3.23,-3.38,-3.38,-3.38
168.19,0.36,3.78,0.36,3.77,-3.77,-3.95,-3.24,-3.41,-3.41,-3.42
169.87,0.36,3.79,0.36,3.80,-3.80,-3.97,-3.25,-3.44,-3.44,-3.43
171.57,0.36,3.82,0.36,3.82,-3.82,-4.00,-3.27,-3.46,-3.46,-3.46
173.29,0.36,3.85,0.36,3.84,-3.85,-4.02,-3.28,-3.49,-3.49,-3.49
175.02,0.36,3.86,0.36,3.87,-3.87,-4.04,-3.30,-3.51,-3.51,-3.51
176.77,0.36,3.90,0.36,3.90,-3.90,-4.06,-3.33,-3.54,-3.54,-3.54
178.54,0.36,3.93,0.36,3.92,-3.92,-4.07,-3.35,-3.56,-3.56,-3.57
180.32,0.36,3.94,0.36,3.94,-3.94,-4.09,-3.38,-3.58,-3.58,-3.58
182.13,0.36,3.95,0.36,3.95,-3.95,-4.10,-3.41,-3.60,-3.60,-3.59
183.95,0.36,3.97,0.36,3.97,-3.97,-4.11,-3.44,-3.61,-3.61,-3.61
185.79,0.36,3.99,0.36,3.98,-3.99,-4.12,-3.48,-3.63,-3.63,-3.63
187.65,0.36,4.00,0.36,4.00,-4.00,-4.13,-3.52,-3.64,-3.64,-3.64
189.52,0.36,4.01,0.36,4.01,-4.01,-4.13,-3.56,-3.65,-3.65,-3.65
191.42,0.36,4.02,0.36,4.02,-4.02,-4.14,-3.60,-3.67,-3.67,-3.67
193.33,0.36,4.04,0.36,4.04,-4.04,-4.14,-3.65,-3.68,-3.68,-3.68
195.27,0.36,4.05,0.36,4.05,-4.05,-4.14,-3.69,-3.69,-3.69,-3.69
197.22,0.36,4.06,0.36,4.07,-4.07,-4.13,-3.74,-3.71,-3.71,-3.70
199.19,0.36,4.09,0.36,4.08,-4.08,-4.13,-3.79,-3.73,-3.73,-3.73
201.18,0.36,4.09,0.36,4.10,-4.10,-4.12,-3.84,-3.74,-3.74,-3.73
203.19,0.37,4.11,0.37,4.11,-4.12,-4.11,-3.90,-3.75,-3.75,-3.74
205.23,0.37,4.13,0.37,4.13,-4.13,-4.10,-3.95,-3.76,-3.76,-3.76
207.28,0.38,4.14,0.38,4.15,-4.15,-4.09,-4.00,-3.77,-3.77,-3.76
209.35,0.38,4.16,0.38,4.16,-4.15,-4.07,-4.06,-3.78,-3.77,-3.78
211.44,0.38,4.18,0.37,4.17,-4.16,-4.05,-4.11,-3.78,-3.78,-3.80
213.56,0.36,4.16,0.36,4.16,-4.16,-4.03,-4.16,-3.80,-3.80,-3.80
215.69,0.34,4.14,0.34,4.15,-4.15,-4.01,-4.21,-3.81,-3.81,-3.80
217.85,0.32,4.13,0.32,4.13,-4.13,-3.99,-4.26,-3.81,-3.81,-3.81
220.03,0.30,4.13,0.30,4.12,-4.11,-3.97,-4.31,-3.81,-3.82,-3.83
222.23,0.27,4.10,0.27,4.10,-4.09,-3.94,-4.35,-3.82,-3.82,-3.83
224.45,0.24,4.06,0.24,4.07,-4.06,-3.91,-4.40,-3.83,-3.83,-3.82
226.70,0.20,4.03,0.20,4.03,-4.04,-3.88,-4.43,-3.84,-3.84,-3.83
228.96,0.17,4.00,0.17,4.00,-4.01,-3.85,-4.47,-3.84,-3.84,-3.84
231.25,0.15,3.98,0.14,3.98,-3.99,-3.82,-4.49,-3.84,-3.84,-3.83
233.57,0.12,3.96,0.12,3.96,-3.96,-3.78,-4.52,-3.84,-3.84,-3.84
235.90,0.09,3.93,0.09,3.94,-3.94,-3.75,-4.54,-3.85,-3.84,-3.84
238.26,0.07,3.93,0.06,3.92,-3.91,-3.71,-4.55,-3.84,-3.85,-3.86
240.64,0.03,3.89,0.03,3.89,-3.89,-3.67,-4.55,-3.86,-3.86,-3.86
243.05,-0.00,3.86,0.00,3.86,-3.87,-3.63,-4.55,-3.87,-3.87,-3.86
245.48,-0.02,3.84,-0.03,3.84,-3.85,-3.59,-4.54,-3.87,-3.87,-3.86
247.93,-0.05,3.81,-0.05,3.82,-3.82,-3.55,-4.53,-3.87,-3.87,-3.86
250.41,-0.07,3.80,-0.07,3.79,-3.79,-3.50,-4.50,-3.86,-3.85,-3.87
252.92,-0.09,3.76,-0.09,3.76,-3.75,-3.46,-4.47,-3.84,-3.84,-3.85
255.45,-0.12,3.72,-0.12,3.72,-3.70,-3.41,-4.43,-3.82,-3.82,-3.84
258.00,-0.16,3.67,-0.17,3.66,-3.65,-3.37,-4.39,-3.81,-3.82,-3.83
260.58,-0.23,3.60,-0.23,3.59,-3.60,-3.32,-4.33,-3.83,-3.82,-3.83
263.19,-0.28,3.52,-0.28,3.53,-3.54,-3.27,-4.28,-3.82,-3.82,-3.80
265.82,-0.34,3.45,-0.33,3.46,-3.47,-3.23,-4.21,-3.82,-3.81,-3.80
268.48,-0.37,3.41,-0.37,3.40,-3.41,-3.18,-4.13,-3.78,-3.79,-3.78
271.16,-0.41,3.35,-0.42,3.35,-3.35,-3.13,-4.05,-3.76,-3.77,-3.76
273.87,-0.46,3.29,-0.46,3.29,-3.29,-3.08,-3.97,-3.75,-3.75,-3.75
276.61,-0.50,3.23,-0.50,3.23,-3.23,-3.03,-3.88,-3.73,-3.73,-3.73
279.38,-0.54,3.18,-0.54,3.18,-3.17,-2.98,-3.78,-3.72,-3.71,-3.72
282.17,-0.58,3.14,-0.58,3.13,-3.12,-2.93,-3.69,-3.70,-3.70,-3.72
284.99,-0.62,3.07,-0.63,3.07,-3.06,-2.88,-3.58,-3.68,-3.69,-3.69
287.84,-0.69,2.99,-0.68,3.00,-3.01,-2.82,-3.48,-3.70,-3.69,-3.68
290.72,-0.73,2.93,-0.73,2.94,-2.95,-2.77,-3.37,-3.68,-3.68,-3.67
293.63,-0.76,2.89,-0.76,2.88,-2.90,-2.72,-3.26,-3.66,-3.66,-3.65
296.57,-0.79,2.83,-0.79,2.84,-2.84,-2.67,-3.14,-3.63,-3.63,-3.62
299.53,-0.82,2.79,-0.82,2.79,-2.78,-2.62,-3.03,-3.60,-3.60,-3.61
302.53,-0.85,2.75,-0.85,2.74,-2.72,-2.56,-2.91,-3.57,-3.57,-3.60
305.55,-0.89,2.67,-0.90,2.67,-2.66,-2.51,-2.80,-3.55,-3.55,-3.56
308.61,-0.94,2.60,-0.94,2.60,-2.60,-2.46,-2.68,-3.54,-3.54,-3.54
311.69,-0.99,2.52,-0.98,2.52,-2.54,-2.40,-2.56,-3.53,-3.52,-3.51
314.81,-1.02,2.45,-1.03,2.46,-2.47,-2.35,-2.44,-3.49,-3.50,-3.48
317.96,-1.06,2.40,-1.06,2.40,-2.41,-2.30,-2.32,-3.47,-3.47,-3.46
321.14,-1.09,2.34,-1.09,2.34,-2.34,-2.25,-2.20,-3.43,-3.43,-3.43
324.35,-1.12,2.29,-1.12,2.28,-2.28,-2.19,-2.08,-3.40,-3.40,-3.41
327.59,-1.16,2.22,-1.16,2.22,-2.21,-2.14,-1.97,-3.37,-3.37,-3.38
330.87,-1.20,2.15,-1.20,2.16,-2.15,-2.09,-1.85,-3.35,-3.35,-3.36
334.18,-1.25,2.09,-1.25,2.08,-2.08,-2.03,-1.73,-3.33,-3.33,-3.34
337.52,-1.30,2.01,-1.30,2.01,-2.01,-1.98,-1.61,-3.31,-3.31,-3.31
340.90,-1.35,1.93,-1.34,1.94,-1.95,-1.93,-1.50,-3.30,-3.29,-3.28
344.30,-1.38,1.87,-1.38,1.87,-1.88,-1.87,-1.38,-3.26,-3.27,-3.25
347.75,-1.41,1.82,-1.42,1.81,-1.82,-1.82,-1.27,-3.23,-3.24,-3.23
351.23,-1.45,1.75,-1.45,1.76,-1.76,-1.77,-1.15,-3.21,-3.20,-3.21
354.74,-1.48,1.70,-1.48,1.70,-1.70,-1.71,-1.04,-3.18,-3.17,-3.18
358.28,-1.51,1.65,-1.51,1.64,-1.63,-1.66,-0.93,-3.14,-3.15,-3.16
361.87,-1.55,1.58,-1.55,1.58,-1.57,-1.60,-0.82,-3.12,-3.12,-3.13
365.49,-1.60,1.51,-1.60,1.51,-1.50,-1.55,-0.71,-3.10,-3.10,-3.11
369.14,-1.66,1.43,-1.66,1.43,-1.43,-1.49,-0.60,-3.09,-3.09,-3.09
372.83,-1.71,1.36,-1.71,1.36,-1.36,-1.44,-0.49,-3.07,-3.08,-3.07
376.56,-1.77,1.28,-1.77,1.28,-1.29,-1.38,-0.38,-3.07,-3.06,-3.05
380.33,-1.82,1.20,-1.82,1.21,-1.22,-1.33,-0.27,-3.05,-3.04,-3.03
384.13,-1.86,1.16,-1.86,1.15,-1.15,-1.27,-0.16,-3.02,-3.02,-3.02
387.97,-1.91,1.10,-1.91,1.09,-1.09,-1.22,-0.06,-3.00,-3.00,-3.01
391.85,-1.96,1.04,-1.97,1.03,-1.02,-1.16,0.04,-2.98,-2.98,-3.00
395.77,-2.03,0.95,-2.03,0.95,-0.95,-1.10,0.15,-2.98,-2.98,-2.98
399.73,-2.09,0.88,-2.09,0.88,-0.88,-1.04,0.25,-2.97,-2.97,-2.97
403.72,-2.15,0.81,-2.15,0.81,-0.81,-0.98,0.35,-2.96,-2.96,-2.96
407.76,-2.20,0.75,-2.20,0.74,-0.75,-0.92,0.45,-2.95,-2.95,-2.95
411.84,-2.26,0.67,-2.26,0.68,-0.68,-0.86,0.55,-2.94,-2.94,-2.93
415.96,-2.32,0.61,-2.32,0.61,-0.62,-0.80,0.64,-2.94,-2.94,-2.93
420.12,-2.38,0.55,-2.38,0.55,-0.56,-0.74,0.73,-2.94,-2.94,-2.93
424.32,-2.43,0.50,-2.43,0.51,-0.51,-0.68,0.83,-2.94,-2.94,-2.93
428.56,-2.48,0.45,-2.48,0.45,-0.45,-0.61,0.91,-2.93,-2.93,-2.94
432.85,-2.53,0.41,-2.54,0.40,-0.40,-0.54,1.00,-2.93,-2.93,-2.94
437.18,-2.60,0.34,-2.59,0.34,-0.34,-0.48,1.08,-2.94,-2.93,-2.94
