frequency,raw
20.00,-2.94
20.20,-2.85
20.40,-2.76
20.61,-2.67
20.81,-2.58
21.02,-2.50
21.23,-2.41
21.44,-2.32
21.66,-2.24
21.87,-2.16
22.09,-2.08
22.31,-2.00
22.54,-1.93
22.76,-1.86
22.99,-1.80
23.22,-1.73
23.45,-1.65
23.69,-1.57
23.92,-1.50
24.16,-1.43
24.40,-1.38
24.65,-1.32
24.89,-1.25
25.14,-1.18
25.39,-1.11
25.65,-1.05
25.91,-0.99
26.16,-0.94
26.43,-0.89
26.69,-0.83
26.96,-0.77
27.23,-0.71
27.50,-0.65
27.77,-0.60
28.05,-0.54
28.33,-0.50
28.62,-0.45
28.90,-0.38
29.19,-0.32
29.48,-0.26
29.78,-0.22
30.08,-0.18
30.38,-0.13
30.68,-0.09
30.99,-0.04
31.30,0.01
31.61,0.06
31.93,0.10
32.24,0.14
32.57,0.18
32.89,0.22
33.22,0.25
33.55,0.30
33.89,0.33
34.23,0.36
34.57,0.41
34.92,0.45
35.27,0.50
35.62,0.56
35.97,0.60
36.33,0.63
36.70,0.66
37.06,0.68
37.43,0.71
37.81,0.75
38.19,0.79
38.57,0.84
38.95,0.88
39.34,0.93
39.74,0.97
40.14,1.01
40.54,1.03
40.94,1.05
41.35,1.08
41.76,1.10
42.18,1.12
42.60,1.14
43.03,1.14
43.46,1.15
43.90,1.16
44.33,1.17
44.78,1.18
45.23,1.19
45.68,1.21
46.13,1.24
46.60,1.27
47.06,1.30
47.53,1.34
48.01,1.37
48.49,1.40
48.97,1.43
49.46,1.46
49.96,1.48
50.46,1.50
50.96,1.51
51.47,1.50
51.99,1.49
52.51,1.48
53.03,1.46
53.56,1.46
54.10,1.46
54.64,1.48
55.18,1.50
55.74,1.52
56.29,1.54
56.86,1.57
57.42,1.60
58.00,1.62
58.58,1.65
59.16,1.68
59.76,1.70
60.35,1.73
60.96,1.75
61.57,1.77
62.18,1.78
62.80,1.79
63.43,1.79
64.07,1.78
64.71,1.77
65.35,1.77
66.01,1.77
66.67,1.77
67.33,1.77
68.01,1.77
68.69,1.77
69.37,1.77
70.07,1.77
70.77,1.77
71.48,1.76
72.19,1.76
72.91,1.76
73.64,1.76
74.38,1.75
75.12,1.75
75.87,1.74
76.63,1.74
77.40,1.74
78.17,1.73
78.95,1.73
79.74,1.73
80.54,1.72
81.35,1.72
82.16,1.72
82.98,1.72
83.81,1.72
84.65,1.71
85.50,1.71
86.35,1.72
87.22,1.72
88.09,1.73
88.97,1.72
89.86,1.72
90.76,1.70
91.66,1.68
92.58,1.66
93.51,1.64
94.44,1.61
95.39,1.58
96.34,1.55
97.30,1.50
98.28,1.47
99.26,1.45
100.25,1.42
101.25,1.40
102.27,1.38
103.29,1.36
104.32,1.34
105.37,1.34
106.42,1.34
107.48,1.34
108.56,1.35
109.64,1.36
110.74,1.36
111.85,1.37
112.97,1.36
114.10,1.36
115.24,1.35
116.39,1.33
117.55,1.30
118.73,1.27
119.92,1.25
121.12,1.22
122.33,1.18
123.55,1.15
124.79,1.11
126.03,1.08
127.29,1.04
128.57,1.01
129.85,0.99
131.15,0.97
132.46,0.96
133.79,0.96
135.12,0.97
136.48,0.98
137.84,0.98
139.22,0.98
140.61,0.97
142.02,0.94
143.44,0.91
144.87,0.89
146.32,0.85
147.78,0.82
149.26,0.79
150.75,0.75
152.26,0.72
153.78,0.69
155.32,0.65
156.88,0.63
158.44,0.61
160.03,0.59
161.63,0.59
163.24,0.59
164.88,0.60
166.53,0.60
168.19,0.60
169.87,0.58
171.57,0.56
173.29,0.53
175.02,0.51
176.77,0.47
178.54,0.44
180.32,0.40
182.13,0.37
183.95,0.34
185.79,0.31
187.65,0.29
189.52,0.27
191.42,0.25
193.33,0.23
195.27,0.23
197.22,0.23
199.19,0.25
201.18,0.25
203.19,0.26
205.23,0.24
207.28,0.23
209.35,0.21
211.44,0.17
213.56,0.15
215.69,0.12
217.85,0.09
220.03,0.05
222.23,0.02
224.45,-0.01
226.70,-0.04
228.96,-0.08
231.25,-0.10
233.57,-0.12
235.90,-0.15
238.26,-0.16
240.64,-0.17
243.05,-0.17
245.48,-0.18
247.93,-0.17
250.41,-0.18
252.92,-0.19
255.45,-0.20
258.00,-0.20
260.58,-0.21
263.19,-0.21
265.82,-0.21
268.48,-0.22
271.16,-0.22
273.87,-0.22
276.61,-0.23
279.38,-0.23
282.17,-0.24
284.99,-0.24
287.84,-0.24
290.72,-0.24
293.63,-0.24
296.57,-0.24
299.53,-0.25
302.53,-0.25
305.55,-0.25
308.61,-0.26
311.69,-0.26
314.81,-0.27
317.96,-0.27
321.14,-0.28
324.35,-0.28
327.59,-0.28
330.87,-0.29
334.18,-0.30
337.52,-0.30
340.90,-0.31
344.30,-0.31
347.75,-0.31
351.23,-0.31
354.74,-0.32
358.28,-0.31
361.87,-0.31
365.49,-0.30
369.14,-0.30
372.83,-0.30
376.56,-0.31
380.33,-0.32
384.13,-0.34
387.97,-0.36
391.85,-0.40
395.77,-0.43
399.73,-0.47
403.72,-0.50
407.76,-0.54
411.84,-0.57
415.96,-0.61
420.12,-0.63
424.32,-0.66
428.56,-0.69
432.85,-0.71
437.18,-0.72
441.55,-0.72
445.96,-0.72
450.42,-0.71
454.93,-0.71
459.48,-0.70
464.07,-0.70
468.71,-0.70
473.40,-0.69
478.13,-0.69
482.91,-0.69
487.74,-0.69
492.62,-0.70
497.55,-0.72
502.52,-0.74
507.55,-0.76
512.62,-0.79
517.75,-0.83
522.93,-0.86
528.16,-0.89
533.44,-0.92
538.77,-0.95
544.16,-0.97
549.60,-0.99
555.10,-1.02
560.65,-1.05
566.25,-1.08
571.92,-1.12
577.64,-1.14
583.41,-1.16
589.25,-1.18
595.14,-1.22
601.09,-1.24
607.10,-1.27
613.17,-1.31
619.30,-1.33
625.50,-1.35
631.75,-1.38
638.07,-1.41
644.45,-1.43
650.89,-1.46
657.40,-1.48
663.98,-1.51
670.62,-1.53
677.32,-1.55
684.10,-1.57
690.94,-1.60
697.85,-1.62
704.83,-1.66
711.87,-1.69
718.99,-1.73
726.18,-1.76
733.44,-1.80
740.78,-1.84
748.19,-1.88
755.67,-1.91
763.23,-1.94
770.86,-1.97
778.57,-1.99
786.35,-2.02
794.22,-2.04
802.16,-2.06
810.18,-2.08
818.28,-2.10
826.46,-2.10
834.73,-2.10
843.08,-2.08
851.51,-2.06
860.02,-2.05
868.62,-2.04
877.31,-2.05
886.08,-2.05
894.94,-2.06
903.89,-2.07
912.93,-2.08
922.06,-2.08
931.28,-2.08
940.59,-2.08
950.00,-2.07
959.50,-2.07
969.09,-2.04
978.78,-2.02
988.57,-1.98
998.46,-1.94
1008.44,-1.90
1018.53,-1.85
1028.71,-1.80
1039.00,-1.74
1049.39,-1.70
1059.88,-1.65
1070.48,-1.61
1081.19,-1.58
1092.00,-1.53
1102.92,-1.47
1113.95,-1.41
1125.09,-1.35
1136.34,-1.28
1147.70,-1.21
1159.18,-1.14
1170.77,-1.06
1182.48,-0.97
1194.30,-0.89
1206.25,-0.80
1218.31,-0.71
1230.49,-0.62
1242.80,-0.54
1255.22,-0.46
1267.78,-0.39
1280.45,-0.32
1293.26,-0.26
1306.19,-0.22
1319.25,-0.16
1332.45,-0.10
1345.77,-0.04
1359.23,0.03
1372.82,0.09
1386.55,0.17
1400.41,0.23
1414.42,0.30
1428.56,0.36
1442.85,0.41
1457.28,0.46
1471.85,0.51
1486.57,0.57
1501.43,0.63
1516.45,0.67
1531.61,0.73
1546.93,0.79
1562.40,0.82
1578.02,0.86
1593.80,0.89
1609.74,0.93
1625.84,0.98
1642.10,1.04
1658.52,1.10
1675.10,1.15
1691.85,1.21
1708.77,1.27
1725.86,1.33
1743.12,1.37
1760.55,1.41
1778.15,1.44
1795.94,1.45
1813.90,1.48
1832.03,1.52
1850.36,1.56
1868.86,1.60
1887.55,1.63
1906.42,1.67
1925.49,1.70
1944.74,1.73
1964.19,1.76
1983.83,1.80
2003.67,1.85
2023.71,1.90
2043.94,1.93
2064.38,1.97
2085.03,2.00
2105.88,2.04
2126.94,2.08
2148.20,2.09
2169.69,2.11
2191.38,2.13
2213.30,2.14
2235.43,2.15
2257.78,2.17
2280.36,2.19
2303.17,2.21
2326.20,2.22
2349.46,2.24
2372.95,2.26
2396.68,2.28
2420.65,2.29
2444.86,2.31
2469.31,2.33
2494.00,2.34
2518.94,2.36
2544.13,2.38
2569.57,2.41
2595.27,2.43
2621.22,2.45
2647.43,2.48
2673.90,2.50
2700.64,2.52
2727.65,2.52
2754.93,2.53
2782.48,2.54
2810.30,2.54
2838.40,2.55
2866.79,2.57
2895.46,2.59
2924.41,2.61
2953.65,2.63
2983.19,2.65
3013.02,2.66
3043.15,2.67
3073.58,2.69
3104.32,2.72
3135.36,2.74
3166.72,2.76
3198.38,2.78
3230.37,2.80
3262.67,2.81
3295.30,2.80
3328.25,2.80
3361.53,2.80
3395.15,2.80
3429.10,2.79
3463.39,2.80
3498.03,2.79
3533.01,2.79
3568.34,2.78
3604.02,2.78
3640.06,2.78
3676.46,2.78
3713.22,2.78
3750.36,2.79
3787.86,2.81
3825.74,2.84
3864.00,2.88
3902.64,2.91
3941.66,2.96
3981.08,3.02
4020.89,3.11
4061.10,3.20
4101.71,3.30
4142.73,3.44
4184.15,3.56
4226.00,3.70
4268.26,3.84
4310.94,3.99
4354.05,4.13
4397.59,4.28
4441.56,4.44
4485.98,4.61
4530.84,4.77
4576.15,4.92
4621.91,5.06
4668.13,5.20
4714.81,5.32
4761.96,5.43
4809.58,5.54
4857.67,5.62
4906.25,5.69
4955.31,5.74
5004.87,5.77
5054.91,5.79
5105.46,5.76
5156.52,5.71
5208.08,5.62
5260.16,5.52
5312.77,5.38
5365.89,5.21
5419.55,5.03
5473.75,4.81
5528.49,4.58
5583.77,4.31
5639.61,4.02
5696.00,3.70
5752.96,3.38
5810.49,3.05
5868.60,2.71
5927.28,2.38
5986.56,2.06
6046.42,1.76
6106.89,1.46
6167.96,1.19
6229.64,0.93
6291.93,0.70
6354.85,0.49
6418.40,0.33
6482.58,0.19
6547.41,0.06
6612.88,-0.03
6679.01,-0.10
6745.80,-0.16
6813.26,-0.19
6881.39,-0.20
6950.21,-0.21
7019.71,-0.18
7089.91,-0.12
7160.81,-0.05
7232.41,0.04
7304.74,0.16
7377.79,0.28
7451.56,0.41
7526.08,0.54
7601.34,0.66
7677.35,0.74
7754.13,0.81
7831.67,0.83
7909.98,0.80
7989.08,0.72
8068.98,0.56
8149.67,0.34
8231.16,0.06
8313.47,-0.28
8396.61,-0.67
8480.57,-1.10
8565.38,-1.54
8651.03,-2.00
8737.54,-2.46
8824.92,-2.90
8913.17,-3.32
9002.30,-3.69
9092.32,-4.02
9183.25,-4.30
9275.08,-4.50
9367.83,-4.63
9461.51,-4.74
9556.12,-4.80
9651.68,-4.79
9748.20,-4.73
9845.68,-4.64
9944.14,-4.50
10043.58,-4.33
10144.02,-4.16
10245.46,-3.97
10347.91,-3.80
10451.39,-3.64
10555.91,-3.50
10661.46,-3.37
10768.08,-3.26
10875.76,-3.19
10984.52,-3.15
11094.36,-3.12
11205.31,-3.12
11317.36,-3.14
11430.53,-3.17
11544.84,-3.22
11660.29,-3.27
11776.89,-3.34
11894.66,-3.38
12013.60,-3.40
12133.74,-3.40
12255.08,-3.40
12377.63,-3.38
12501.41,-3.37
12626.42,-3.38
12752.68,-3.38
12880.21,-3.41
13009.01,-3.45
13139.10,-3.52
13270.49,-3.63
13403.20,-3.76
13537.23,-3.90
13672.60,-4.06
13809.33,-4.23
13947.42,-4.41
14086.90,-4.57
14227.77,-4.75
14370.04,-4.89
14513.74,-5.03
14658.88,-5.15
14805.47,-5.27
14953.52,-5.38
15103.06,-5.51
15254.09,-5.64
15406.63,-5.77
15560.70,-5.90
15716.30,-6.02
15873.47,-6.12
16032.20,-6.22
16192.52,-6.31
16354.45,-6.37
16517.99,-6.40
16683.17,-6.38
16850.01,-6.32
17018.51,-6.20
17188.69,-6.02
17360.58,-5.78
17534.18,-5.53
17709.53,-5.30
17886.62,-5.08
18065.49,-5.01
18246.14,-4.97
18428.60,-4.95
18612.89,-4.95
18799.02,-4.97
18987.01,-5.00
19176.88,-5.08
19368.65,-5.16
19562.33,-5.27
19757.96,-5.39
19955.54,-5.54
