frequency,raw,error,smoothed,error_smoothed,equalization,parametric_eq,fixed_band_eq,equalized_raw,equalized_smoothed,target
20.00,-5.30,-9.42,-5.30,-9.42,6.00,5.82,2.71,0.70,0.70,4.12
20.20,-5.27,-9.40,-5.27,-9.40,6.00,5.83,2.79,0.73,0.73,4.13
20.40,-5.23,-9.37,-5.24,-9.38,6.00,5.85,2.87,0.77,0.76,4.14
20.61,-5.20,-9.34,-5.20,-9.35,6.00,5.86,2.95,0.80,0.80,4.14
20.81,-5.17,-9.32,-5.17,-9.32,6.00,5.87,3.03,0.83,0.83,4.15
21.02,-5.14,-9.29,-5.14,-9.29,6.00,5.89,3.12,0.86,0.86,4.15
21.23,-5.09,-9.25,-5.09,-9.25,6.00,5.90,3.21,0.91,0.91,4.16
21.44,-5.04,-9.20,-5.05,-9.20,6.00,5.91,3.30,0.96,0.95,4.16
21.66,-4.99,-9.15,-5.00,-9.16,6.00,5.92,3.40,1.01,1.00,4.16
21.87,-4.95,-9.11,-4.95,-9.11,6.00,5.94,3.50,1.05,1.05,4.16
22.09,-4.89,-9.06,-4.89,-9.06,6.00,5.95,3.60,1.11,1.11,4.17
22.31,-4.82,-8.99,-4.82,-8.99,6.00,5.96,3.70,1.18,1.18,4.17
22.54,-4.75,-8.91,-4.75,-8.91,6.00,5.97,3.81,1.25,1.25,4.16
22.76,-4.67,-8.82,-4.68,-8.83,6.00,5.98,3.91,1.33,1.32,4.15
22.99,-4.60,-8.75,-4.60,-8.74,6.00,5.99,4.03,1.40,1.40,4.15
23.22,-4.51,-8.66,-4.51,-8.65,6.00,6.00,4.14,1.49,1.49,4.15
23.45,-4.41,-8.55,-4.41,-8.55,6.00,6.01,4.26,1.59,1.59,4.14
23.69,-4.32,-8.46,-4.32,-8.45,6.00,6.01,4.37,1.68,1.68,4.14
23.92,-4.22,-8.36,-4.23,-8.37,6.00,6.02,4.50,1.78,1.77,4.14
24.16,-4.17,-8.31,-4.17,-8.31,6.00,6.03,4.62,1.83,1.83,4.14
24.40,-4.13,-8.27,-4.13,-8.27,6.00,6.04,4.74,1.87,1.87,4.14
24.65,-4.10,-8.24,-4.10,-8.24,6.00,6.04,4.87,1.90,1.90,4.13
24.89,-4.06,-8.20,-4.06,-8.19,6.00,6.05,5.00,1.94,1.94,4.13
25.14,-4.00,-8.13,-4.00,-8.13,6.00,6.06,5.13,2.00,2.00,4.13
25.39,-3.91,-8.03,-3.92,-8.04,6.00,6.06,5.26,2.09,2.08,4.12
25.65,-3.83,-7.96,-3.83,-7.95,6.00,6.07,5.39,2.17,2.17,4.12
25.91,-3.74,-7.87,-3.75,-7.87,6.00,6.07,5.53,2.26,2.25,4.12
26.16,-3.67,-7.79,-3.68,-7.80,6.00,6.07,5.66,2.33,2.32,4.12
26.43,-3.62,-7.74,-3.62,-7.74,6.00,6.08,5.79,2.38,2.38,4.12
26.69,-3.56,-7.68,-3.56,-7.68,6.00,6.08,5.92,2.44,2.44,4.12
26.96,-3.50,-7.62,-3.49,-7.61,6.00,6.08,6.05,2.50,2.51,4.12
27.23,-3.40,-7.52,-3.40,-7.52,6.00,6.08,6.18,2.60,2.60,4.12
27.50,-3.29,-7.41,-3.29,-7.41,6.00,6.09,6.30,2.71,2.71,4.12
27.77,-3.18,-7.30,-3.19,-7.30,6.00,6.09,6.42,2.82,2.81,4.12
28.05,-3.09,-7.21,-3.12,-7.23,6.00,6.09,6.54,2.91,2.88,4.12
28.33,-3.09,-7.21,-3.08,-7.20,6.00,6.09,6.65,2.91,2.92,4.12
28.62,-3.08,-7.20,-3.08,-7.20,6.00,6.09,6.75,2.92,2.92,4.12
28.90,-3.08,-7.21,-3.08,-7.20,6.00,6.09,6.85,2.92,2.92,4.12
29.19,-3.07,-7.20,-3.07,-7.20,6.00,6.09,6.94,2.93,2.93,4.12
29.48,-3.05,-7.17,-3.06,-7.19,6.00,6.08,7.02,2.95,2.94,4.12
29.78,-3.03,-7.16,-3.03,-7.16,6.00,6.08,7.09,2.97,2.97,4.13
30.08,-2.98,-7.11,-2.97,-7.10,6.00,6.08,7.16,3.02,3.03,4.13
30.38,-2.87,-7.00,-2.87,-7.00,6.00,6.08,7.21,3.13,3.13,4.13
30.68,-2.76,-6.89,-2.77,-6.89,6.00,6.07,7.25,3.24,3.23,4.13
30.99,-2.65,-6.78,-2.68,-6.81,6.00,6.07,7.28,3.35,3.32,4.13
31.30,-2.64,-6.77,-2.63,-6.76,6.00,6.06,7.30,3.36,3.37,4.13
31.61,-2.62,-6.75,-2.61,-6.73,6.00,6.06,7.31,3.38,3.39,4.12
31.93,-2.60,-6.73,-2.62,-6.74,6.00,6.05,7.31,3.40,3.38,4.12
32.24,-2.64,-6.76,-2.65,-6.77,6.00,6.05,7.30,3.36,3.35,4.11
32.57,-2.69,-6.80,-2.70,-6.81,6.00,6.04,7.28,3.31,3.30,4.11
32.89,-2.74,-6.85,-2.71,-6.82,6.00,6.04,7.25,3.26,3.29,4.11
33.22,-2.67,-6.77,-2.65,-6.76,6.00,6.03,7.21,3.33,3.35,4.10
33.55,-2.55,-6.65,-2.55,-6.65,6.00,6.02,7.16,3.45,3.45,4.10
33.89,-2.42,-6.51,-2.45,-6.54,6.00,6.01,7.10,3.58,3.55,4.08
34.23,-2.38,-6.47,-2.40,-6.48,6.00,6.00,7.04,3.62,3.60,4.08
34.57,-2.39,-6.47,-2.38,-6.46,6.00,5.99,6.97,3.61,3.62,4.08
34.92,-2.39,-6.47,-2.37,-6.45,6.00,5.98,6.89,3.61,3.63,4.08
35.27,-2.33,-6.41,-2.32,-6.40,6.00,5.97,6.81,3.67,3.68,4.08
35.62,-2.24,-6.32,-2.25,-6.33,6.00,5.96,6.73,3.76,3.75,4.07
35.97,-2.16,-6.23,-2.18,-6.25,6.00,5.95,6.65,3.84,3.82,4.07
36.33,-2.13,-6.20,-2.12,-6.20,6.01,5.94,6.56,3.88,3.88,4.07
36.70,-2.10,-6.17,-2.10,-6.17,6.01,5.93,6.47,3.90,3.91,4.07
37.06,-2.08,-6.15,-2.10,-6.17,6.00,5.91,6.38,3.91,3.90,4.07
37.43,-2.10,-6.17,-2.11,-6.18,5.99,5.90,6.29,3.89,3.88,4.06
37.81,-2.11,-6.18,-2.09,-6.16,5.99,5.89,6.21,3.88,3.90,4.07
38.19,-2.04,-6.11,-2.00,-6.07,5.98,5.87,6.12,3.94,3.98,4.07
38.57,-1.89,-5.96,-1.89,-5.96,5.97,5.86,6.03,4.08,4.08,4.07
38.95,-1.74,-5.82,-1.82,-5.89,5.94,5.84,5.95,4.20,4.12,4.07
39.34,-1.81,-5.88,-1.84,-5.91,5.91,5.82,5.87,4.10,4.07,4.07
39.74,-1.92,-5.99,-1.88,-5.95,5.88,5.81,5.79,3.96,4.00,4.07
40.14,-1.93,-6.00,-1.85,-5.91,5.85,5.79,5.71,3.92,4.00,4.06
40.54,-1.74,-5.80,-1.74,-5.80,5.83,5.77,5.64,4.08,4.08,4.06
40.94,-1.55,-5.61,-1.66,-5.71,5.80,5.76,5.57,4.24,4.14,4.06
41.35,-1.63,-5.69,-1.66,-5.71,5.77,5.74,5.50,4.14,4.11,4.05
41.76,-1.77,-5.81,-1.72,-5.76,5.74,5.72,5.44,3.97,4.03,4.04
42.18,-1.79,-5.83,-1.74,-5.78,5.71,5.70,5.38,3.92,3.97,4.04
42.60,-1.68,-5.71,-1.69,-5.72,5.69,5.68,5.32,4.00,3.99,4.03
43.03,-1.57,-5.60,-1.63,-5.66,5.66,5.66,5.27,4.09,4.03,4.03
43.46,-1.60,-5.63,-1.60,-5.62,5.64,5.64,5.22,4.04,4.04,4.02
43.90,-1.63,-5.64,-1.60,-5.61,5.62,5.61,5.18,3.99,4.02,4.01
44.33,-1.60,-5.61,-1.60,-5.60,5.60,5.59,5.14,3.99,4.00,4.00
44.78,-1.55,-5.55,-1.56,-5.56,5.56,5.57,5.10,4.01,4.00,4.00
45.23,-1.51,-5.51,-1.52,-5.51,5.52,5.54,5.07,4.01,4.01,3.99
45.68,-1.49,-5.48,-1.49,-5.48,5.49,5.52,5.04,3.99,3.99,3.99
46.13,-1.47,-5.47,-1.49,-5.48,5.45,5.50,5.01,3.98,3.95,3.99
46.60,-1.48,-5.47,-1.48,-5.47,5.42,5.47,4.99,3.93,3.94,3.99
47.06,-1.46,-5.45,-1.39,-5.39,5.39,5.44,4.97,3.93,4.00,3.99
47.53,-1.30,-5.30,-1.30,-5.30,5.36,5.42,4.96,4.06,4.06,4.00
48.01,-1.15,-5.15,-1.26,-5.26,5.32,5.39,4.95,4.17,4.06,4.00
48.49,-1.27,-5.27,-1.27,-5.27,5.29,5.36,4.94,4.01,4.02,4.00
48.97,-1.38,-5.39,-1.30,-5.31,5.24,5.34,4.94,3.86,3.94,4.01
49.46,-1.29,-5.30,-1.30,-5.31,5.21,5.31,4.94,3.92,3.91,4.01
49.96,-1.19,-5.21,-1.19,-5.21,5.18,5.28,4.94,3.99,3.99,4.02
50.46,-1.07,-5.10,-1.07,-5.09,5.16,5.25,4.94,4.09,4.10,4.02
50.96,-0.96,-5.00,-1.04,-5.07,5.15,5.22,4.95,4.19,4.11,4.04
51.47,-1.04,-5.08,-1.05,-5.08,5.13,5.19,4.96,4.09,4.08,4.04
51.99,-1.14,-5.18,-1.06,-5.09,5.10,5.16,4.97,3.96,4.04,4.04
52.51,-1.05,-5.09,-1.06,-5.10,5.06,5.12,4.98,4.00,3.99,4.04
53.03,-0.97,-5.01,-1.05,-5.10,5.02,5.09,4.99,4.05,3.97,4.04
53.56,-1.03,-5.07,-1.01,-5.05,5.00,5.06,5.00,3.96,3.99,4.04
54.10,-1.03,-5.08,-0.94,-4.99,4.97,5.02,5.01,3.94,4.03,4.05
54.64,-0.81,-4.86,-0.85,-4.90,4.94,4.99,5.03,4.12,4.09,4.05
55.18,-0.69,-4.74,-0.76,-4.81,4.90,4.96,5.04,4.21,4.14,4.05
55.74,-0.74,-4.78,-0.74,-4.79,4.86,4.92,5.05,4.12,4.12,4.04
56.29,-0.80,-4.84,-0.79,-4.83,4.82,4.88,5.06,4.02,4.03,4.04
56.86,-0.86,-4.90,-0.81,-4.85,4.79,4.85,5.06,3.92,3.97,4.04
57.42,-0.78,-4.81,-0.78,-4.80,4.75,4.81,5.07,3.97,3.97,4.03
58.00,-0.67,-4.69,-0.72,-4.74,4.71,4.77,5.07,4.04,3.99,4.01
58.58,-0.67,-4.67,-0.67,-4.67,4.67,4.73,5.07,4.00,4.01,4.00
59.16,-0.65,-4.64,-0.63,-4.62,4.62,4.70,5.06,3.97,3.99,3.99
59.76,-0.59,-4.57,-0.59,-4.56,4.56,4.66,5.05,3.97,3.97,3.97
60.35,-0.53,-4.48,-0.53,-4.48,4.50,4.62,5.04,3.97,3.96,3.95
60.96,-0.47,-4.40,-0.49,-4.42,4.44,4.58,5.02,3.96,3.95,3.92
61.57,-0.47,-4.37,-0.47,-4.37,4.38,4.53,5.00,3.90,3.91,3.90
62.18,-0.47,-4.34,-0.47,-4.33,4.32,4.49,4.97,3.85,3.86,3.86
62.80,-0.47,-4.30,-0.47,-4.30,4.28,4.45,4.94,3.81,3.80,3.83
63.43,-0.47,-4.25,-0.47,-4.26,4.24,4.41,4.90,3.77,3.77,3.78
64.07,-0.47,-4.22,-0.47,-4.21,4.21,4.36,4.85,3.74,3.74,3.75
64.71,-0.46,-4.16,-0.46,-4.16,4.19,4.32,4.81,3.72,3.73,3.70
65.35,-0.47,-4.13,-0.48,-4.14,4.17,4.27,4.75,3.69,3.68,3.66
66.01,-0.50,-4.12,-0.55,-4.17,4.16,4.23,4.69,3.65,3.61,3.62
66.67,-0.65,-4.23,-0.60,-4.19,4.17,4.18,4.63,3.51,3.56,3.58
67.33,-0.69,-4.24,-0.65,-4.19,4.19,4.14,4.57,3.50,3.55,3.55
68.01,-0.63,-4.14,-0.68,-4.20,4.23,4.09,4.49,3.60,3.55,3.51
68.69,-0.71,-4.19,-0.74,-4.22,4.28,4.04,4.42,3.57,3.54,3.48
69.37,-0.84,-4.29,-0.85,-4.30,4.33,3.99,4.34,3.48,3.48,3.45
70.07,-1.02,-4.44,-0.99,-4.41,4.37,3.94,4.26,3.35,3.39,3.42
70.77,-1.09,-4.48,-1.09,-4.48,4.42,3.89,4.18,3.33,3.33,3.39
71.48,-1.14,-4.51,-1.14,-4.50,4.46,3.84,4.10,3.32,3.33,3.36
72.19,-1.16,-4.49,-1.15,-4.47,4.49,3.79,4.01,3.33,3.35,3.33
72.91,-1.12,-4.42,-1.17,-4.47,4.50,3.74,3.93,3.38,3.33,3.30
73.64,-1.21,-4.47,-1.21,-4.47,4.49,3.69,3.84,3.28,3.28,3.26
74.38,-1.27,-4.50,-1.25,-4.47,4.45,3.64,3.75,3.17,3.20,3.23
75.12,-1.26,-4.45,-1.25,-4.43,4.38,3.58,3.66,3.12,3.13,3.19
75.87,-1.18,-4.32,-1.18,-4.32,4.30,3.53,3.57,3.11,3.12,3.14
76.63,-1.07,-4.18,-1.09,-4.19,4.20,3.47,3.48,3.12,3.11,3.11
77.40,-0.98,-4.04,-1.00,-4.05,4.07,3.42,3.40,3.09,3.08,3.06
78.17,-0.92,-3.94,-0.91,-3.93,3.93,3.36,3.31,3.01,3.02,3.02
78.95,-0.82,-3.79,-0.82,-3.79,3.78,3.30,3.22,2.95,2.96,2.97
79.74,-0.71,-3.64,-0.70,-3.63,3.61,3.24,3.14,2.90,2.92,2.93
80.54,-0.56,-3.44,-0.58,-3.46,3.45,3.18,3.05,2.89,2.88,2.88
81.35,-0.44,-3.28,-0.46,-3.30,3.31,3.12,2.97,2.86,2.85,2.84
82.16,-0.37,-3.17,-0.34,-3.14,3.17,3.06,2.89,2.80,2.83,2.80
82.98,-0.24,-3.00,-0.26,-3.02,3.05,2.99,2.81,2.81,2.79,2.76
83.81,-0.18,-2.90,-0.19,-2.91,2.94,2.93,2.73,2.76,2.75,2.71
84.65,-0.14,-2.82,-0.13,-2.81,2.84,2.86,2.65,2.69,2.71,2.68
85.50,-0.10,-2.74,-0.10,-2.74,2.74,2.79,2.58,2.64,2.64,2.64
86.35,-0.07,-2.67,-0.10,-2.70,2.65,2.72,2.50,2.57,2.54,2.59
87.22,-0.08,-2.63,-0.07,-2.62,2.56,2.65,2.43,2.48,2.49,2.55
88.09,-0.08,-2.59,-0.01,-2.52,2.49,2.58,2.36,2.40,2.48,2.51
88.97,0.12,-2.35,0.07,-2.40,2.42,2.50,2.29,2.53,2.48,2.47
89.86,0.17,-2.26,0.14,-2.29,2.35,2.42,2.23,2.51,2.48,2.42
90.76,0.15,-2.23,0.17,-2.21,2.28,2.35,2.16,2.43,2.45,2.38
91.66,0.14,-2.20,0.14,-2.20,2.21,2.27,2.10,2.35,2.35,2.34
92.58,0.13,-2.18,0.12,-2.18,2.14,2.20,2.04,2.27,2.26,2.30
93.51,0.11,-2.15,0.13,-2.13,2.08,2.12,1.98,2.19,2.22,2.26
94.44,0.16,-2.06,0.16,-2.06,2.03,2.06,1.92,2.18,2.19,2.22
95.39,0.23,-1.95,0.20,-1.98,1.97,2.00,1.86,2.20,2.17,2.18
96.34,0.24,-1.91,0.24,-1.90,1.92,1.94,1.80,2.16,2.16,2.14
97.30,0.25,-1.86,0.27,-1.83,1.86,1.89,1.75,2.11,2.13,2.10
98.28,0.30,-1.76,0.29,-1.77,1.79,1.85,1.70,2.09,2.08,2.06
99.26,0.33,-1.69,0.29,-1.73,1.73,1.81,1.65,2.06,2.02,2.02
100.25,0.28,-1.70,0.29,-1.68,1.67,1.78,1.60,1.95,1.96,1.98
101.25,0.26,-1.68,0.29,-1.65,1.62,1.74,1.55,1.88,1.91,1.94
102.27,0.32,-1.57,0.30,-1.59,1.57,1.71,1.50,1.89,1.87,1.89
103.29,0.33,-1.51,0.32,-1.52,1.53,1.67,1.46,1.86,1.85,1.84
104.32,0.33,-1.46,0.33,-1.47,1.50,1.64,1.41,1.82,1.82,1.79
105.37,0.31,-1.44,0.31,-1.44,1.46,1.60,1.37,1.77,1.77,1.75
106.42,0.28,-1.42,0.28,-1.42,1.43,1.56,1.33,1.71,1.71,1.70
107.48,0.26,-1.40,0.25,-1.40,1.40,1.52,1.29,1.65,1.65,1.65
108.56,0.23,-1.38,0.22,-1.38,1.36,1.48,1.25,1.59,1.58,1.60
109.64,0.20,-1.36,0.20,-1.36,1.33,1.44,1.21,1.52,1.52,1.55
110.74,0.18,-1.34,0.20,-1.32,1.29,1.39,1.17,1.47,1.49,1.52
111.85,0.22,-1.26,0.22,-1.26,1.26,1.35,1.14,1.47,1.47,1.48
112.97,0.27,-1.17,0.24,-1.19,1.21,1.30,1.10,1.48,1.46,1.44
114.10,0.26,-1.14,0.26,-1.14,1.17,1.26,1.06,1.43,1.43,1.40
115.24,0.26,-1.11,0.26,-1.11,1.12,1.21,1.03,1.38,1.38,1.37
116.39,0.26,-1.08,0.25,-1.09,1.07,1.16,1.00,1.33,1.32,1.33
117.55,0.26,-1.06,0.26,-1.06,1.03,1.12,0.97,1.28,1.28,1.32
118.73,0.27,-1.02,0.29,-1.00,0.99,1.07,0.93,1.26,1.27,1.29
119.92,0.32,-0.95,0.33,-0.94,0.95,1.02,0.90,1.27,1.28,1.27
121.12,0.40,-0.86,0.36,-0.89,0.91,0.98,0.87,1.31,1.28,1.25
122.33,0.39,-0.85,0.39,-0.85,0.87,0.93,0.84,1.26,1.26,1.24
123.55,0.38,-0.84,0.38,-0.84,0.83,0.89,0.82,1.21,1.22,1.22
124.79,0.39,-0.82,0.38,-0.82,0.79,0.84,0.79,1.18,1.17,1.21
126.03,0.39,-0.80,0.42,-0.78,0.75,0.79,0.76,1.14,1.17,1.19
127.29,0.47,-0.71,0.47,-0.71,0.72,0.75,0.73,1.19,1.19,1.18
128.57,0.53,-0.64,0.50,-0.67,0.69,0.70,0.71,1.21,1.18,1.16
129.85,0.53,-0.62,0.51,-0.63,0.65,0.66,0.68,1.18,1.17,1.15
131.15,0.48,-0.66,0.51,-0.62,0.62,0.62,0.66,1.10,1.14,1.14
132.46,0.52,-0.60,0.52,-0.60,0.59,0.58,0.63,1.11,1.10,1.11
133.79,0.55,-0.55,0.53,-0.57,0.56,0.53,0.61,1.11,1.09,1.10
135.12,0.55,-0.53,0.55,-0.53,0.54,0.49,0.58,1.09,1.09,1.08
136.48,0.55,-0.52,0.55,-0.51,0.52,0.45,0.56,1.07,1.07,1.07
137.84,0.56,-0.49,0.55,-0.49,0.50,0.41,0.54,1.05,1.05,1.05
139.22,0.56,-0.47,0.56,-0.47,0.48,0.37,0.51,1.03,1.03,1.03
140.61,0.56,-0.45,0.56,-0.45,0.46,0.33,0.49,1.01,1.01,1.01
142.02,0.56,-0.43,0.56,-0.43,0.44,0.30,0.47,0.99,0.99,0.99
143.44,0.56,-0.41,0.56,-0.41,0.41,0.26,0.45,0.97,0.97,0.96
144.87,0.56,-0.38,0.56,-0.38,0.38,0.23,0.43,0.94,0.94,0.94
146.32,0.56,-0.35,0.56,-0.35,0.34,0.19,0.41,0.90,0.90,0.91
147.78,0.56,-0.32,0.55,-0.32,0.29,0.16,0.38,0.85,0.85,0.87
149.26,0.56,-0.28,0.56,-0.27,0.24,0.12,0.36,0.80,0.80,0.84
150.75,0.58,-0.22,0.59,-0.20,0.18,0.09,0.34,0.76,0.77,0.79
152.26,0.63,-0.11,0.62,-0.12,0.12,0.06,0.32,0.75,0.75,0.74
153.78,0.66,-0.03,0.65,-0.03,0.06,0.03,0.30,0.72,0.71,0.68
155.32,0.66,0.04,0.65,0.02,0.01,0.00,0.28,0.67,0.66,0.62
156.88,0.62,0.05,0.62,0.05,-0.03,-0.03,0.26,0.58,0.59,0.57
158.44,0.58,0.07,0.59,0.08,-0.07,-0.05,0.24,0.51,0.52,0.51
160.03,0.56,0.10,0.56,0.11,-0.10,-0.08,0.22,0.46,0.46,0.46
161.63,0.56,0.14,0.53,0.12,-0.13,-0.11,0.20,0.43,0.40,0.41
163.24,0.50,0.13,0.50,0.13,-0.15,-0.13,0.18,0.34,0.34,0.36
164.88,0.46,0.12,0.48,0.14,-0.18,-0.15,0.16,0.27,0.29,0.33
166.53,0.48,0.17,0.48,0.18,-0.22,-0.18,0.14,0.26,0.27,0.31
168.19,0.53,0.24,0.53,0.24,-0.25,-0.20,0.12,0.28,0.28,0.29
169.87,0.59,0.31,0.58,0.30,-0.28,-0.22,0.10,0.31,0.30,0.28
171.57,0.62,0.35,0.61,0.34,-0.30,-0.24,0.08,0.32,0.31,0.27
173.29,0.63,0.35,0.63,0.35,-0.31,-0.26,0.06,0.31,0.31,0.27
175.02,0.62,0.33,0.62,0.34,-0.32,-0.28,0.04,0.30,0.30,0.29
176.77,0.62,0.32,0.62,0.32,-0.32,-0.29,0.02,0.30,0.30,0.30
178.54,0.62,0.30,0.62,0.30,-0.31,-0.31,0.00,0.31,0.31,0.32
180.32,0.62,0.28,0.62,0.28,-0.30,-0.33,-0.02,0.32,0.33,0.34
182.13,0.63,0.27,0.63,0.27,-0.28,-0.34,-0.04,0.35,0.35,0.36
183.95,0.64,0.26,0.64,0.26,-0.27,-0.36,-0.06,0.37,0.37,0.38
185.79,0.65,0.26,0.65,0.26,-0.26,-0.37,-0.08,0.38,0.38,0.39
187.65,0.66,0.26,0.66,0.27,-0.27,-0.38,-0.10,0.39,0.39,0.39
189.52,0.68,0.28,0.67,0.27,-0.27,-0.39,-0.12,0.40,0.40,0.40
191.42,0.69,0.29,0.69,0.28,-0.28,-0.40,-0.14,0.40,0.40,0.40
193.33,0.70,0.29,0.70,0.30,-0.30,-0.41,-0.16,0.40,0.40,0.41
195.27,0.72,0.31,0.72,0.31,-0.31,-0.42,-0.18,0.40,0.40,0.41
197.22,0.73,0.33,0.73,0.33,-0.33,-0.43,-0.20,0.40,0.40,0.39
199.19,0.75,0.35,0.74,0.35,-0.35,-0.44,-0.22,0.40,0.39,0.39
201.18,0.75,0.37,0.75,0.37,-0.36,-0.45,-0.24,0.38,0.39,0.38
203.19,0.76,0.39,0.76,0.38,-0.38,-0.45,-0.26,0.38,0.38,0.37
205.23,0.76,0.40,0.76,0.39,-0.39,-0.46,-0.28,0.36,0.36,0.36
207.28,0.76,0.40,0.76,0.41,-0.41,-0.46,-0.30,0.35,0.35,0.35
209.35,0.76,0.41,0.76,0.42,-0.42,-0.47,-0.32,0.34,0.34,0.34
211.44,0.76,0.43,0.76,0.43,-0.43,-0.47,-0.34,0.33,0.33,0.32
213.56,0.75,0.43,0.75,0.44,-0.44,-0.48,-0.36,0.31,0.31,0.32
215.69,0.75,0.45,0.74,0.44,-0.45,-0.48,-0.38,0.30,0.30,0.30
217.85,0.74,0.45,0.74,0.45,-0.46,-0.48,-0.40,0.28,0.28,0.29
220.03,0.74,0.47,0.74,0.46,-0.47,-0.49,-0.41,0.27,0.27,0.27
222.23,0.74,0.47,0.74,0.47,-0.48,-0.49,-0.43,0.26,0.26,0.26
224.45,0.74,0.48,0.74,0.48,-0.48,-0.49,-0.45,0.25,0.25,0.26
226.70,0.74,0.49,0.74,0.49,-0.48,-0.49,-0.46,0.25,0.25,0.25
228.96,0.74,0.49,0.75,0.50,-0.48,-0.49,-0.48,0.26,0.27,0.24
231.25,0.75,0.50,0.74,0.50,-0.48,-0.49,-0.49,0.27,0.26,0.25
233.57,0.75,0.51,0.72,0.48,-0.47,-0.49,-0.50,0.28,0.25,0.24
235.90,0.68,0.43,0.71,0.46,-0.47,-0.49,-0.52,0.21,0.24,0.25
238.26,0.69,0.44,0.69,0.44,-0.46,-0.49,-0.53,0.22,0.23,0.25
240.64,0.71,0.44,0.70,0.43,-0.46,-0.49,-0.54,0.24,0.23,0.26
243.05,0.72,0.45,0.72,0.45,-0.47,-0.49,-0.55,0.25,0.25,0.27
245.48,0.74,0.46,0.74,0.47,-0.47,-0.48,-0.55,0.27,0.27,0.27
247.93,0.77,0.49,0.77,0.49,-0.47,-0.48,-0.56,0.29,0.29,0.28
250.41,0.79,0.50,0.79,0.50,-0.48,-0.48,-0.57,0.31,0.31,0.28
252.92,0.80,0.51,0.79,0.50,-0.48,-0.48,-0.57,0.32,0.31,0.29
255.45,0.79,0.50,0.78,0.49,-0.48,-0.47,-0.57,0.31,0.29,0.28
258.00,0.74,0.46,0.75,0.47,-0.48,-0.47,-0.58,0.26,0.27,0.28
260.58,0.73,0.45,0.73,0.46,-0.47,-0.47,-0.58,0.26,0.26,0.28
263.19,0.73,0.45,0.72,0.45,-0.47,-0.47,-0.58,0.26,0.26,0.27
265.82,0.73,0.46,0.72,0.45,-0.46,-0.46,-0.57,0.27,0.27,0.27
268.48,0.72,0.45,0.72,0.46,-0.45,-0.46,-0.57,0.26,0.27,0.27
271.16,0.72,0.46,0.72,0.46,-0.45,-0.45,-0.57,0.26,0.26,0.26
273.87,0.72,0.46,0.71,0.46,-0.46,-0.45,-0.56,0.26,0.25,0.26
276.61,0.71,0.45,0.71,0.46,-0.46,-0.45,-0.56,0.24,0.25,0.26
279.38,0.71,0.46,0.71,0.45,-0.47,-0.44,-0.55,0.24,0.24,0.25
282.17,0.72,0.46,0.71,0.45,-0.46,-0.44,-0.55,0.26,0.25,0.26
284.99,0.72,0.45,0.73,0.47,-0.45,-0.43,-0.54,0.27,0.28,0.27
287.84,0.73,0.46,0.73,0.46,-0.43,-0.43,-0.53,0.30,0.30,0.26
290.72,0.74,0.47,0.71,0.44,-0.41,-0.42,-0.52,0.33,0.30,0.27
293.63,0.67,0.39,0.68,0.40,-0.39,-0.42,-0.52,0.28,0.29,0.28
296.57,0.63,0.34,0.63,0.35,-0.37,-0.42,-0.51,0.26,0.27,0.29
299.53,0.59,0.30,0.60,0.31,-0.35,-0.41,-0.50,0.24,0.25,0.28
302.53,0.59,0.30,0.59,0.30,-0.33,-0.41,-0.49,0.26,0.26,0.29
305.55,0.60,0.31,0.59,0.31,-0.32,-0.40,-0.48,0.28,0.28,0.29
308.61,0.61,0.32,0.61,0.32,-0.32,-0.40,-0.47,0.29,0.29,0.29
311.69,0.62,0.33,0.61,0.33,-0.32,-0.39,-0.46,0.30,0.29,0.28
314.81,0.62,0.35,0.62,0.34,-0.33,-0.39,-0.46,0.28,0.28,0.27
317.96,0.62,0.35,0.62,0.35,-0.35,-0.38,-0.45,0.27,0.27,0.27
321.14,0.62,0.36,0.62,0.36,-0.36,-0.38,-0.44,0.26,0.26,0.26
324.35,0.62,0.36,0.62,0.36,-0.37,-0.37,-0.43,0.25,0.25,0.26
327.59,0.62,0.37,0.62,0.38,-0.37,-0.37,-0.42,0.25,0.26,0.25
330.87,0.62,0.38,0.62,0.38,-0.36,-0.36,-0.41,0.26,0.26,0.23
334.18,0.62,0.40,0.60,0.37,-0.36,-0.36,-0.41,0.26,0.24,0.22
337.52,0.56,0.35,0.56,0.35,-0.35,-0.35,-0.40,0.20,0.21,0.21
340.90,0.52,0.31,0.53,0.32,-0.35,-0.35,-0.39,0.17,0.18,0.21
344.30,0.51,0.31,0.51,0.32,-0.34,-0.34,-0.39,0.17,0.17,0.20
347.75,0.51,0.33,0.51,0.33,-0.33,-0.34,-0.38,0.18,0.18,0.18
351.23,0.52,0.35,0.50,0.34,-0.32,-0.33,-0.37,0.19,0.18,0.17
354.74,0.50,0.34,0.48,0.33,-0.32,-0.33,-0.37,0.18,0.16,0.15
358.28,0.44,0.29,0.46,0.31,-0.32,-0.32,-0.36,0.12,0.14,0.14
361.87,0.43,0.30,0.44,0.31,-0.31,-0.32,-0.36,0.11,0.12,0.13
365.49,0.43,0.32,0.43,0.31,-0.31,-0.32,-0.35,0.12,0.12,0.11
369.14,0.44,0.34,0.42,0.32,-0.31,-0.31,-0.35,0.13,0.11,0.10
372.83,0.41,0.32,0.40,0.31,-0.30,-0.31,-0.34,0.10,0.09,0.09
376.56,0.36,0.28,0.38,0.30,-0.31,-0.30,-0.34,0.05,0.07,0.08
380.33,0.36,0.29,0.36,0.29,-0.31,-0.30,-0.34,0.05,0.05,0.07
384.13,0.37,0.31,0.36,0.30,-0.32,-0.30,-0.33,0.05,0.04,0.06
387.97,0.37,0.32,0.37,0.33,-0.33,-0.29,-0.33,0.04,0.04,0.05
391.85,0.38,0.34,0.38,0.34,-0.34,-0.29,-0.33,0.04,0.04,0.03
395.77,0.38,0.35,0.38,0.35,-0.35,-0.28,-0.32,0.03,0.02,0.02
399.73,0.38,0.36,0.38,0.36,-0.36,-0.28,-0.32,0.01,0.01,0.01
403.72,0.37,0.37,0.38,0.38,-0.37,-0.28,-0.32,-0.00,0.01,0.00
407.76,0.37,0.39,0.37,0.38,-0.38,-0.27,-0.32,-0.01,-0.01,-0.02
411.84,0.37,0.40,0.34,0.36,-0.37,-0.27,-0.32,-0.00,-0.03,-0.03
415.96,0.29,0.33,0.31,0.35,-0.35,-0.27,-0.32,-0.06,-0.04,-0.04
420.12,0.25,0.29,0.28,0.32,-0.31,-0.26,-0.31,-0.06,-0.03,-0.04
424.32,0.27,0.32,0.25,0.30,-0.27,-0.26,-0.31,0.00,-0.02,-0.05
428.56,0.22,0.27,0.20,0.25,-0.22,-0.26,-0.31,-0.00,-0.02,-0.05
432.85,0.14,0.18,0.12,0.17,-0.17,-0.26,-0.31,-0.03,-0.04,-0.04
437.18,0.02,0.05,0.04,0.08,-0.11,-0.25,-0.31,-0.09,-0.06,-0.03
441.55,-0.02,-0.01,-0.00,0.01,-0.05,-0.25,-0.31,-0.07,-0.05,-0.01
445.96,0.01,0.00,-0.01,-0.02,0.01,-0.25,-0.31,0.01,-0.01,0.01
450.42,0.01,-0.03,0.01,-0.03,0.06,-0.25,-0.31,0.07,0.07,0.04
454.93,0.01,-0.07,0.01,-0.06,0.10,-0.24,-0.31,0.11,0.11,0.08
459.48,0.02,-0.10,-0.01,-0.12,0.12,-0.24,-0.31,0.14,0.11,0.11
464.07,-0.03,-0.18,-0.02,-0.17,0.13,-0.24,-0.31,0.10,0.12,0.14
468.71,-0.01,-0.20,0.01,-0.17,0.13,-0.24,-0.31,0.12,0.14,0.18
473.40,0.07,-0.16,0.08,-0.14,0.12,-0.24,-0.30,0.19,0.20,0.22
478.13,0.20,-0.07,0.17,-0.09,0.10,-0.24,-0.30,0.29,0.27,0.26
482.91,0.26,-0.04,0.24,-0.05,0.06,-0.24,-0.30,0.32,0.30,0.29
487.74,0.29,-0.04,0.30,-0.02,0.02,-0.24,-0.30,0.31,0.33,0.32
492.62,0.34,-0.00,0.37,0.02,-0.02,-0.24,-0.30,0.32,0.35,0.34
497.55,0.46,0.10,0.44,0.07,-0.06,-0.24,-0.30,0.39,0.37,0.36
502.52,0.52,0.15,0.49,0.12,-0.10,-0.24,-0.29,0.42,0.39,0.37
507.55,0.51,0.14,0.52,0.15,-0.13,-0.24,-0.29,0.37,0.39,0.37
512.62,0.52,0.16,0.52,0.16,-0.16,-0.24,-0.29,0.36,0.36,0.36
517.75,0.52,0.18,0.52,0.17,-0.19,-0.24,-0.29,0.33,0.33,0.34
522.93,0.52,0.20,0.52,0.20,-0.21,-0.25,-0.28,0.30,0.30,0.32
528.16,0.51,0.23,0.51,0.23,-0.24,-0.25,-0.28,0.27,0.27,0.28
533.44,0.50,0.27,0.49,0.26,-0.26,-0.25,-0.28,0.24,0.24,0.23
