frequency,raw,error,smoothed,error_smoothed,equalization,parametric_eq,fixed_band_eq,equalized_raw,equalized_smoothed,target
20.00,15.10,9.41,15.10,9.41,-9.42,-9.35,-5.02,5.68,5.68,5.69
20.20,15.16,9.47,15.16,9.47,-9.47,-9.41,-5.15,5.69,5.69,5.69
20.40,15.21,9.51,15.21,9.52,-9.52,-9.46,-5.28,5.69,5.69,5.70
20.61,15.26,9.56,15.26,9.57,-9.56,-9.51,-5.42,5.70,5.70,5.69
20.81,15.31,9.61,15.31,9.61,-9.61,-9.56,-5.56,5.70,5.70,5.69
21.02,15.36,9.66,15.36,9.66,-9.65,-9.60,-5.71,5.71,5.70,5.69
21.23,15.40,9.69,15.40,9.70,-9.70,-9.65,-5.86,5.70,5.71,5.70
21.44,15.45,9.74,15.45,9.74,-9.74,-9.70,-6.01,5.71,5.71,5.71
21.66,15.49,9.78,15.49,9.78,-9.78,-9.75,-6.17,5.71,5.71,5.71
21.87,15.54,9.82,15.54,9.82,-9.82,-9.79,-6.33,5.72,5.71,5.72
22.09,15.58,9.87,15.58,9.86,-9.86,-9.84,-6.50,5.72,5.72,5.71
22.31,15.62,9.90,15.62,9.91,-9.90,-9.88,-6.67,5.71,5.72,5.72
22.54,15.67,9.96,15.67,9.95,-9.95,-9.92,-6.85,5.72,5.72,5.71
22.76,15.71,9.99,15.71,9.99,-9.99,-9.97,-7.03,5.72,5.72,5.72
22.99,15.75,10.03,15.75,10.03,-10.04,-10.01,-7.21,5.71,5.71,5.72
23.22,15.79,10.08,15.79,10.07,-10.08,-10.05,-7.40,5.71,5.71,5.71
23.45,15.83,10.12,15.83,10.12,-10.12,-10.09,-7.59,5.71,5.71,5.71
23.69,15.87,10.16,15.87,10.16,-10.16,-10.13,-7.79,5.71,5.71,5.71
23.92,15.91,10.20,15.91,10.20,-10.19,-10.17,-8.00,5.72,5.71,5.71
24.16,15.95,10.24,15.94,10.23,-10.23,-10.20,-8.21,5.72,5.71,5.71
24.40,15.97,10.25,15.98,10.26,-10.27,-10.24,-8.42,5.70,5.71,5.72
24.65,16.01,10.29,16.01,10.29,-10.30,-10.28,-8.64,5.70,5.71,5.72
24.89,16.05,10.33,16.04,10.33,-10.34,-10.31,-8.86,5.71,5.71,5.71
25.14,16.08,10.37,16.08,10.38,-10.37,-10.35,-9.08,5.71,5.71,5.70
25.39,16.12,10.42,16.12,10.41,-10.41,-10.38,-9.31,5.71,5.71,5.70
25.65,16.15,10.45,16.15,10.45,-10.44,-10.42,-9.54,5.71,5.71,5.70
25.91,16.18,10.48,16.18,10.47,-10.47,-10.45,-9.78,5.70,5.71,5.70
26.16,16.21,10.50,16.21,10.50,-10.51,-10.48,-10.02,5.70,5.70,5.71
26.43,16.24,10.53,16.24,10.53,-10.54,-10.51,-10.25,5.70,5.70,5.71
26.69,16.27,10.57,16.27,10.57,-10.57,-10.54,-10.49,5.70,5.70,5.70
26.96,16.30,10.60,16.30,10.60,-10.60,-10.57,-10.73,5.70,5.70,5.70
27.23,16.33,10.63,16.32,10.63,-10.63,-10.60,-10.97,5.70,5.70,5.70
27.50,16.35,10.65,16.35,10.65,-10.65,-10.63,-11.21,5.69,5.70,5.70
27.77,16.38,10.67,16.38,10.68,-10.68,-10.65,-11.44,5.70,5.70,5.70
28.05,16.41,10.71,16.40,10.71,-10.71,-10.68,-11.67,5.70,5.70,5.70
28.33,16.43,10.74,16.43,10.73,-10.73,-10.71,-11.89,5.70,5.70,5.69
28.62,16.45,10.76,16.45,10.75,-10.75,-10.73,-12.10,5.69,5.70,5.69
28.90,16.47,10.77,16.47,10.77,-10.78,-10.76,-12.30,5.69,5.69,5.70
29.19,16.49,10.79,16.49,10.80,-10.80,-10.78,-12.49,5.69,5.69,5.70
29.48,16.51,10.82,16.51,10.82,-10.82,-10.80,-12.66,5.69,5.69,5.69
29.78,16.53,10.84,16.53,10.84,-10.84,-10.83,-12.82,5.69,5.69,5.68
30.08,16.54,10.85,16.54,10.86,-10.85,-10.85,-12.96,5.69,5.69,5.69
30.38,16.56,10.88,16.56,10.87,-10.87,-10.87,-13.08,5.69,5.69,5.68
30.68,16.57,10.88,16.57,10.88,-10.88,-10.89,-13.18,5.68,5.69,5.69
30.99,16.59,10.90,16.59,10.90,-10.90,-10.91,-13.25,5.69,5.69,5.69
31.30,16.60,10.91,16.60,10.91,-10.91,-10.93,-13.31,5.69,5.69,5.69
31.61,16.61,10.91,16.61,10.92,-10.92,-10.95,-13.34,5.68,5.69,5.69
31.93,16.62,10.94,16.62,10.93,-10.93,-10.97,-13.35,5.68,5.69,5.68
32.24,16.64,10.95,16.64,10.95,-10.95,-10.98,-13.33,5.69,5.69,5.69
32.57,16.65,10.96,16.65,10.96,-10.96,-11.00,-13.30,5.69,5.69,5.69
32.89,16.66,10.97,16.66,10.97,-10.97,-11.02,-13.25,5.69,5.69,5.69
33.22,16.66,10.98,16.66,10.97,-10.98,-11.03,-13.18,5.68,5.68,5.68
33.55,16.66,10.98,16.66,10.98,-10.99,-11.05,-13.10,5.67,5.68,5.68
33.89,16.67,10.99,16.67,10.99,-11.00,-11.06,-13.01,5.67,5.67,5.68
34.23,16.68,11.01,16.67,11.01,-11.01,-11.07,-12.90,5.67,5.67,5.67
34.57,16.68,11.03,16.68,11.02,-11.02,-11.09,-12.78,5.66,5.66,5.65
34.92,16.68,11.04,16.68,11.04,-11.04,-11.10,-12.66,5.64,5.64,5.64
35.27,16.68,11.04,16.68,11.05,-11.05,-11.11,-12.53,5.63,5.63,5.64
35.62,16.68,11.07,16.68,11.07,-11.07,-11.12,-12.40,5.61,5.61,5.60
35.97,16.68,11.09,16.67,11.09,-11.09,-11.14,-12.27,5.59,5.59,5.59
36.33,16.67,11.10,16.67,11.11,-11.11,-11.15,-12.13,5.56,5.57,5.57
36.70,16.67,11.13,16.67,11.13,-11.12,-11.16,-12.00,5.54,5.55,5.54
37.06,16.67,11.15,16.66,11.15,-11.14,-11.17,-11.87,5.53,5.52,5.52
37.43,16.66,11.16,16.66,11.16,-11.16,-11.17,-11.74,5.50,5.50,5.50
37.81,16.65,11.18,16.65,11.17,-11.17,-11.18,-11.62,5.47,5.48,5.47
38.19,16.64,11.18,16.64,11.18,-11.19,-11.19,-11.50,5.45,5.45,5.46
38.57,16.63,11.20,16.63,11.20,-11.20,-11.20,-11.38,5.43,5.43,5.43
38.95,16.62,11.21,16.62,11.21,-11.21,-11.20,-11.27,5.41,5.41,5.41
39.34,16.61,11.22,16.61,11.23,-11.22,-11.21,-11.16,5.39,5.39,5.38
39.74,16.60,11.24,16.59,11.23,-11.23,-11.22,-11.07,5.37,5.37,5.36
40.14,16.58,11.23,16.58,11.24,-11.23,-11.22,-10.97,5.34,5.35,5.34
40.54,16.56,11.23,16.56,11.24,-11.24,-11.23,-10.89,5.32,5.32,5.33
40.94,16.55,11.24,16.55,11.24,-11.24,-11.23,-10.81,5.31,5.31,5.30
41.35,16.53,11.24,16.53,11.24,-11.24,-11.23,-10.74,5.29,5.29,5.29
41.76,16.51,11.25,16.50,11.24,-11.24,-11.24,-10.67,5.27,5.26,5.26
42.18,16.48,11.23,16.48,11.24,-11.24,-11.24,-10.62,5.24,5.24,5.25
42.60,16.45,11.23,16.45,11.23,-11.24,-11.24,-10.57,5.21,5.22,5.22
43.03,16.44,11.24,16.43,11.23,-11.23,-11.24,-10.53,5.21,5.20,5.20
43.46,16.41,11.23,16.41,11.23,-11.23,-11.24,-10.49,5.18,5.18,5.18
43.90,16.39,11.23,16.39,11.23,-11.22,-11.24,-10.46,5.17,5.16,5.16
44.33,16.36,11.23,16.36,11.22,-11.22,-11.24,-10.44,5.14,5.14,5.13
44.78,16.33,11.21,16.33,11.21,-11.22,-11.24,-10.43,5.11,5.11,5.11
45.23,16.31,11.20,16.30,11.21,-11.22,-11.24,-10.43,5.09,5.09,5.11
45.68,16.28,11.21,16.28,11.21,-11.21,-11.24,-10.43,5.06,5.07,5.07
46.13,16.26,11.22,16.26,11.22,-11.22,-11.24,-10.44,5.04,5.04,5.04
46.60,16.24,11.23,16.24,11.22,-11.22,-11.24,-10.46,5.02,5.02,5.01
47.06,16.22,11.23,16.22,11.23,-11.23,-11.23,-10.48,4.99,4.99,4.99
47.53,16.19,11.23,16.19,11.24,-11.24,-11.23,-10.51,4.95,4.95,4.96
48.01,16.17,11.26,16.17,11.25,-11.25,-11.23,-10.55,4.92,4.91,4.91
48.49,16.14,11.26,16.14,11.26,-11.26,-11.22,-10.59,4.87,4.88,4.88
48.97,16.12,11.28,16.12,11.28,-11.28,-11.22,-10.64,4.84,4.84,4.84
49.46,16.10,11.29,16.09,11.29,-11.29,-11.21,-10.70,4.81,4.80,4.81
49.96,16.07,11.32,16.07,11.31,-11.30,-11.20,-10.76,4.76,4.76,4.75
50.46,16.04,11.32,16.04,11.32,-11.31,-11.20,-10.83,4.72,4.73,4.72
50.96,16.01,11.32,16.01,11.33,-11.32,-11.19,-10.90,4.69,4.69,4.69
51.47,15.98,11.33,15.98,11.33,-11.33,-11.18,-10.98,4.65,4.65,4.65
51.99,15.94,11.33,15.94,11.33,-11.33,-11.17,-11.06,4.61,4.61,4.61
52.51,15.91,11.33,15.90,11.32,-11.33,-11.16,-11.14,4.58,4.57,4.58
53.03,15.86,11.32,15.86,11.32,-11.33,-11.15,-11.23,4.53,4.53,4.54
53.56,15.81,11.31,15.82,11.32,-11.32,-11.14,-11.31,4.49,4.50,4.50
54.10,15.78,11.33,15.77,11.31,-11.31,-11.13,-11.40,4.47,4.46,4.45
54.64,15.72,11.30,15.72,11.31,-11.31,-11.12,-11.49,4.41,4.42,4.42
55.18,15.68,11.30,15.68,11.30,-11.29,-11.11,-11.58,4.38,4.38,4.38
55.74,15.63,11.28,15.63,11.28,-11.28,-11.10,-11.67,4.35,4.35,4.34
56.29,15.59,11.27,15.58,11.26,-11.27,-11.09,-11.75,4.32,4.32,4.32
56.86,15.53,11.23,15.54,11.25,-11.24,-11.07,-11.83,4.28,4.29,4.30
57.42,15.49,11.24,15.49,11.23,-11.22,-11.06,-11.90,4.27,4.26,4.25
58.00,15.44,11.22,15.43,11.21,-11.20,-11.04,-11.97,4.24,4.23,4.22
58.58,15.38,11.18,15.38,11.18,-11.18,-11.03,-12.03,4.20,4.20,4.20
59.16,15.32,11.15,15.32,11.15,-11.16,-11.01,-12.08,4.16,4.16,4.17
59.76,15.26,11.12,15.26,11.12,-11.14,-11.00,-12.12,4.12,4.12,4.14
60.35,15.21,11.12,15.21,11.11,-11.12,-10.98,-12.15,4.08,4.08,4.09
60.96,15.15,11.10,15.15,11.11,-11.11,-10.96,-12.16,4.04,4.04,4.05
61.57,15.09,11.10,15.09,11.10,-11.09,-10.94,-12.17,3.99,3.99,3.98
62.18,15.02,11.09,15.02,11.09,-11.08,-10.93,-12.16,3.94,3.94,3.93
62.80,14.96,11.07,14.96,11.08,-11.06,-10.91,-12.14,3.89,3.89,3.89
63.43,14.90,11.06,14.90,11.05,-11.05,-10.89,-12.11,3.85,3.85,3.84
64.07,14.84,11.03,14.83,11.03,-11.03,-10.87,-12.06,3.81,3.81,3.81
64.71,14.77,11.00,14.77,11.00,-11.01,-10.84,-12.00,3.76,3.76,3.77
65.35,14.70,10.98,14.70,10.98,-10.98,-10.82,-11.93,3.72,3.72,3.72
66.01,14.64,10.96,14.64,10.95,-10.95,-10.80,-11.84,3.68,3.68,3.68
66.67,14.58,10.92,14.57,10.92,-10.93,-10.78,-11.75,3.65,3.64,3.65
67.33,14.50,10.89,14.51,10.90,-10.90,-10.75,-11.64,3.60,3.61,3.60
68.01,14.44,10.87,14.44,10.87,-10.87,-10.73,-11.53,3.57,3.57,3.56
68.69,14.38,10.86,14.37,10.84,-10.84,-10.71,-11.41,3.54,3.53,3.52
69.37,14.30,10.81,14.30,10.81,-10.81,-10.68,-11.29,3.48,3.49,3.49
70.07,14.23,10.77,14.23,10.78,-10.78,-10.65,-11.16,3.44,3.45,3.46
70.77,14.17,10.75,14.16,10.75,-10.76,-10.63,-11.03,3.41,3.41,3.41
71.48,14.10,10.73,14.10,10.73,-10.73,-10.60,-10.89,3.37,3.37,3.37
72.19,14.02,10.69,14.02,10.70,-10.70,-10.57,-10.75,3.32,3.32,3.32
72.91,13.95,10.67,13.95,10.67,-10.67,-10.55,-10.62,3.28,3.28,3.28
73.64,13.87,10.64,13.87,10.64,-10.64,-10.52,-10.48,3.23,3.23,3.23
74.38,13.80,10.61,13.80,10.60,-10.60,-10.49,-10.34,3.20,3.19,3.19
75.12,13.72,10.57,13.72,10.57,-10.57,-10.46,-10.21,3.15,3.15,3.15
75.87,13.65,10.52,13.65,10.53,-10.53,-10.43,-10.08,3.12,3.12,3.12
76.63,13.57,10.49,13.57,10.48,-10.48,-10.39,-9.95,3.08,3.09,3.08
77.40,13.50,10.44,13.50,10.44,-10.44,-10.36,-9.83,3.06,3.06,3.06
78.17,13.42,10.40,13.42,10.39,-10.39,-10.33,-9.71,3.03,3.03,3.02
78.95,13.34,10.34,13.34,10.34,-10.34,-10.30,-9.59,2.99,3.00,3.00
79.74,13.26,10.29,13.26,10.29,-10.29,-10.26,-9.48,2.96,2.96,2.97
80.54,13.18,10.24,13.18,10.24,-10.24,-10.23,-9.38,2.93,2.93,2.94
81.35,13.10,10.20,13.10,10.19,-10.19,-10.19,-9.28,2.90,2.90,2.90
82.16,13.02,10.13,13.02,10.14,-10.14,-10.16,-9.18,2.88,2.88,2.88
82.98,12.94,10.09,12.94,10.09,-10.09,-10.12,-9.09,2.85,2.85,2.85
83.81,12.86,10.04,12.86,10.04,-10.04,-10.09,-9.01,2.82,2.82,2.82
84.65,12.78,10.00,12.78,9.99,-9.99,-10.05,-8.93,2.79,2.79,2.78
85.50,12.69,9.94,12.69,9.94,-9.94,-10.01,-8.86,2.75,2.76,2.75
86.35,12.61,9.89,12.61,9.89,-9.88,-9.97,-8.80,2.72,2.72,2.72
87.22,12.52,9.82,12.52,9.83,-9.83,-9.94,-8.74,2.69,2.69,2.70
88.09,12.44,9.78,12.44,9.77,-9.78,-9.90,-8.69,2.66,2.66,2.66
88.97,12.35,9.71,12.35,9.72,-9.72,-9.86,-8.64,2.62,2.63,2.64
89.86,12.27,9.68,12.27,9.67,-9.67,-9.82,-8.61,2.60,2.60,2.59
90.76,12.19,9.62,12.18,9.62,-9.62,-9.78,-8.57,2.57,2.57,2.57
91.66,12.10,9.57,12.10,9.57,-9.56,-9.73,-8.55,2.54,2.54,2.53
92.58,12.01,9.51,12.01,9.51,-9.51,-9.69,-8.52,2.50,2.50,2.50
93.51,11.93,9.46,11.92,9.46,-9.46,-9.65,-8.51,2.47,2.47,2.47
94.44,11.84,9.40,11.84,9.40,-9.41,-9.61,-8.50,2.43,2.43,2.44
95.39,11.75,9.35,11.75,9.35,-9.36,-9.56,-8.50,2.39,2.39,2.39
96.34,11.66,9.31,11.66,9.31,-9.31,-9.52,-8.50,2.35,2.35,2.35
97.30,11.57,9.26,11.57,9.26,-9.26,-9.47,-8.50,2.31,2.31,2.31
98.28,11.49,9.22,11.48,9.22,-9.21,-9.43,-8.52,2.28,2.27,2.27
99.26,11.39,9.17,11.39,9.17,-9.16,-9.38,-8.53,2.23,2.23,2.22
100.25,11.31,9.13,11.30,9.12,-9.11,-9.34,-8.55,2.20,2.19,2.18
101.25,11.21,9.05,11.21,9.06,-9.06,-9.29,-8.58,2.15,2.15,2.15
102.27,11.12,9.00,11.12,9.00,-9.01,-9.25,-8.61,2.11,2.11,2.12
103.29,11.03,8.95,11.03,8.95,-8.95,-9.20,-8.64,2.07,2.07,2.08
104.32,10.94,8.90,10.94,8.90,-8.90,-9.15,-8.67,2.04,2.04,2.04
105.37,10.85,8.85,10.85,8.84,-8.84,-9.10,-8.71,2.01,2.01,2.00
106.42,10.76,8.78,10.76,8.79,-8.79,-9.05,-8.75,1.97,1.97,1.97
107.48,10.67,8.74,10.67,8.74,-8.73,-9.01,-8.78,1.94,1.94,1.93
108.56,10.58,8.68,10.57,8.68,-8.68,-8.96,-8.82,1.90,1.90,1.90
109.64,10.48,8.62,10.48,8.62,-8.62,-8.91,-8.86,1.86,1.86,1.86
110.74,10.39,8.56,10.39,8.57,-8.57,-8.86,-8.90,1.82,1.82,1.82
111.85,10.31,8.52,10.30,8.52,-8.52,-8.81,-8.94,1.79,1.78,1.79
112.97,10.21,8.47,10.21,8.47,-8.47,-8.76,-8.97,1.74,1.74,1.74
114.10,10.12,8.42,10.12,8.42,-8.42,-8.71,-9.00,1.70,1.69,1.70
115.24,10.02,8.37,10.02,8.38,-8.38,-8.65,-9.03,1.64,1.64,1.65
116.39,9.93,8.34,9.93,8.34,-8.34,-8.60,-9.05,1.59,1.59,1.59
117.55,9.84,8.30,9.83,8.30,-8.29,-8.55,-9.06,1.54,1.54,1.54
118.73,9.74,8.26,9.74,8.26,-8.25,-8.50,-9.07,1.49,1.49,1.48
119.92,9.64,8.21,9.64,8.21,-8.21,-8.44,-9.07,1.43,1.43,1.43
121.12,9.55,8.17,9.54,8.17,-8.17,-8.39,-9.07,1.38,1.37,1.38
122.33,9.45,8.13,9.45,8.13,-8.13,-8.34,-9.05,1.32,1.32,1.32
123.55,9.35,8.08,9.35,8.09,-8.09,-8.29,-9.03,1.26,1.26,1.27
124.79,9.26,8.06,9.25,8.05,-8.05,-8.23,-9.00,1.21,1.20,1.20
126.03,9.15,8.01,9.15,8.01,-8.01,-8.18,-8.96,1.13,1.14,1.14
127.29,9.06,7.98,9.06,7.98,-7.98,-8.12,-8.91,1.08,1.08,1.08
128.57,8.96,7.94,8.96,7.94,-7.94,-8.07,-8.86,1.02,1.02,1.02
129.85,8.86,7.90,8.86,7.90,-7.90,-8.01,-8.79,0.96,0.96,0.96
131.15,8.77,7.87,8.76,7.86,-7.86,-7.96,-8.72,0.91,0.91,0.90
132.46,8.67,7.82,8.67,7.82,-7.82,-7.90,-8.64,0.85,0.85,0.85
133.79,8.58,7.77,8.58,7.77,-7.77,-7.85,-8.55,0.81,0.81,0.80
135.12,8.49,7.73,8.49,7.72,-7.73,-7.79,-8.46,0.76,0.76,0.76
136.48,8.40,7.67,8.40,7.68,-7.68,-7.74,-8.36,0.72,0.72,0.73
137.84,8.32,7.63,8.31,7.63,-7.63,-7.68,-8.26,0.69,0.68,0.69
139.22,8.23,7.59,8.23,7.58,-7.58,-7.62,-8.15,0.65,0.65,0.64
140.61,8.14,7.52,8.15,7.53,-7.53,-7.57,-8.04,0.61,0.62,0.62
142.02,8.07,7.48,8.06,7.48,-7.47,-7.51,-7.92,0.59,0.59,0.59
143.44,7.99,7.43,7.98,7.42,-7.42,-7.45,-7.81,0.57,0.56,0.55
144.87,7.90,7.36,7.90,7.37,-7.37,-7.40,-7.69,0.53,0.53,0.53
146.32,7.82,7.31,7.82,7.32,-7.32,-7.34,-7.57,0.50,0.50,0.50
147.78,7.75,7.27,7.74,7.27,-7.27,-7.28,-7.45,0.48,0.47,0.47
149.26,7.67,7.22,7.67,7.22,-7.22,-7.22,-7.33,0.44,0.44,0.45
150.75,7.59,7.18,7.59,7.18,-7.18,-7.17,-7.22,0.41,0.42,0.41
152.26,7.53,7.14,7.52,7.14,-7.14,-7.11,-7.10,0.39,0.39,0.39
153.78,7.45,7.09,7.45,7.09,-7.10,-7.05,-6.99,0.35,0.36,0.36
155.32,7.39,7.06,7.38,7.05,-7.06,-6.99,-6.87,0.33,0.33,0.33
156.88,7.31,7.01,7.31,7.02,-7.02,-6.94,-6.77,0.29,0.29,0.30
158.44,7.24,6.98,7.24,6.98,-6.98,-6.88,-6.66,0.25,0.26,0.25
160.03,7.18,6.96,7.17,6.95,-6.95,-6.82,-6.56,0.23,0.22,0.22
161.63,7.10,6.91,7.10,6.91,-6.91,-6.76,-6.46,0.19,0.19,0.19
163.24,7.02,6.87,7.02,6.88,-6.87,-6.70,-6.36,0.14,0.15,0.15
164.88,6.95,6.84,6.95,6.83,-6.83,-6.65,-6.27,0.12,0.11,0.11
166.53,6.87,6.80,6.87,6.80,-6.79,-6.59,-6.18,0.08,0.08,0.07
168.19,6.79,6.75,6.79,6.75,-6.74,-6.53,-6.10,0.04,0.04,0.04
169.87,6.71,6.70,6.71,6.70,-6.70,-6.47,-6.02,0.01,0.01,0.00
171.57,6.62,6.64,6.62,6.65,-6.65,-6.41,-5.94,-0.03,-0.03,-0.02
173.29,6.54,6.60,6.54,6.60,-6.60,-6.35,-5.87,-0.06,-0.06,-0.06
175.02,6.45,6.54,6.45,6.54,-6.55,-6.30,-5.80,-0.10,-0.10,-0.09
176.77,6.37,6.50,6.37,6.50,-6.50,-6.24,-5.74,-0.13,-0.13,-0.13
178.54,6.29,6.44,6.29,6.45,-6.45,-6.18,-5.68,-0.16,-0.16,-0.15
180.32,6.21,6.40,6.20,6.40,-6.40,-6.12,-5.63,-0.19,-0.19,-0.20
182.13,6.12,6.35,6.12,6.35,-6.34,-6.06,-5.58,-0.22,-0.22,-0.23
183.95,6.03,6.29,6.03,6.29,-6.29,-6.01,-5.53,-0.26,-0.26,-0.26
185.79,5.95,6.24,5.95,6.24,-6.24,-5.95,-5.49,-0.29,-0.29,-0.29
187.65,5.87,6.19,5.86,6.18,-6.19,-5.89,-5.45,-0.32,-0.32,-0.32
189.52,5.77,6.13,5.78,6.13,-6.13,-5.83,-5.41,-0.36,-0.36,-0.36
191.42,5.69,6.07,5.69,6.07,-6.08,-5.77,-5.38,-0.39,-0.39,-0.38
193.33,5.60,6.02,5.60,6.02,-6.02,-5.72,-5.35,-0.42,-0.42,-0.42
195.27,5.51,5.97,5.51,5.97,-5.97,-5.66,-5.33,-0.46,-0.45,-0.46
197.22,5.43,5.92,5.42,5.92,-5.91,-5.60,-5.31,-0.48,-0.49,-0.49
199.19,5.34,5.86,5.34,5.86,-5.85,-5.54,-5.29,-0.52,-0.52,-0.52
201.18,5.25,5.80,5.25,5.80,-5.80,-5.49,-5.27,-0.55,-0.55,-0.55
203.19,5.17,5.74,5.17,5.74,-5.74,-5.43,-5.26,-0.57,-0.58,-0.57
205.23,5.08,5.68,5.08,5.68,-5.69,-5.37,-5.25,-0.61,-0.60,-0.60
207.28,5.01,5.63,5.00,5.63,-5.63,-5.31,-5.24,-0.62,-0.63,-0.62
209.35,4.92,5.58,4.92,5.57,-5.57,-5.26,-5.23,-0.66,-0.65,-0.66
211.44,4.84,5.52,4.84,5.52,-5.52,-5.20,-5.23,-0.68,-0.68,-0.68
213.56,4.76,5.46,4.76,5.46,-5.46,-5.14,-5.22,-0.70,-0.70,-0.70
215.69,4.68,5.40,4.67,5.40,-5.40,-5.09,-5.22,-0.73,-0.73,-0.73
217.85,4.59,5.34,4.59,5.35,-5.34,-5.03,-5.21,-0.76,-0.75,-0.75
220.03,4.51,5.29,4.51,5.29,-5.28,-4.97,-5.21,-0.78,-0.78,-0.78
222.23,4.43,5.23,4.42,5.23,-5.22,-4.92,-5.20,-0.80,-0.80,-0.80
224.45,4.34,5.16,4.34,5.17,-5.16,-4.86,-5.20,-0.82,-0.82,-0.82
226.70,4.26,5.10,4.26,5.10,-5.10,-4.81,-5.19,-0.84,-0.84,-0.84
228.96,4.18,5.03,4.18,5.03,-5.04,-4.75,-5.18,-0.86,-0.86,-0.85
231.25,4.10,4.97,4.10,4.97,-4.98,-4.69,-5.17,-0.88,-0.88,-0.87
233.57,4.02,4.91,4.02,4.92,-4.92,-4.64,-5.15,-0.90,-0.90,-0.89
235.90,3.94,4.86,3.94,4.86,-4.86,-4.58,-5.14,-0.92,-0.92,-0.92
238.26,3.87,4.81,3.87,4.80,-4.80,-4.53,-5.12,-0.93,-0.93,-0.94
240.64,3.79,4.73,3.79,4.74,-4.74,-4.47,-5.09,-0.95,-0.95,-0.94
243.05,3.72,4.68,3.71,4.68,-4.68,-4.42,-5.06,-0.96,-0.96,-0.96
245.48,3.64,4.62,3.64,4.61,-4.61,-4.37,-5.03,-0.97,-0.97,-0.98
247.93,3.56,4.55,3.56,4.55,-4.55,-4.31,-4.99,-0.99,-0.99,-0.99
250.41,3.49,4.49,3.48,4.49,-4.49,-4.26,-4.95,-1.00,-1.00,-1.00
252.92,3.41,4.42,3.41,4.42,-4.42,-4.20,-4.91,-1.01,-1.02,-1.01
255.45,3.33,4.35,3.33,4.35,-4.36,-4.15,-4.86,-1.03,-1.03,-1.03
258.00,3.26,4.29,3.26,4.29,-4.30,-4.10,-4.80,-1.04,-1.04,-1.03
260.58,3.19,4.23,3.19,4.23,-4.24,-4.04,-4.74,-1.05,-1.04,-1.04
263.19,3.13,4.18,3.12,4.18,-4.17,-3.99,-4.68,-1.05,-1.05,-1.06
265.82,3.06,4.12,3.06,4.12,-4.11,-3.94,-4.61,-1.06,-1.06,-1.06
268.48,2.98,4.06,2.98,4.06,-4.05,-3.88,-4.54,-1.08,-1.07,-1.08
271.16,2.91,3.99,2.91,3.99,-3.99,-3.83,-4.47,-1.09,-1.09,-1.08
273.87,2.83,3.93,2.83,3.93,-3.93,-3.78,-4.39,-1.11,-1.10,-1.10
276.61,2.77,3.88,2.76,3.87,-3.87,-3.73,-4.31,-1.10,-1.11,-1.11
279.38,2.69,3.82,2.69,3.82,-3.81,-3.68,-4.23,-1.12,-1.12,-1.13
282.17,2.62,3.75,2.62,3.75,-3.75,-3.62,-4.14,-1.13,-1.13,-1.13
284.99,2.55,3.69,2.55,3.68,-3.69,-3.57,-4.06,-1.14,-1.14,-1.14
287.84,2.48,3.61,2.48,3.62,-3.63,-3.52,-3.97,-1.15,-1.15,-1.13
290.72,2.42,3.57,2.42,3.56,-3.57,-3.47,-3.88,-1.15,-1.15,-1.16
293.63,2.35,3.51,2.35,3.51,-3.51,-3.42,-3.79,-1.16,-1.15,-1.16
296.57,2.29,3.45,2.28,3.45,-3.44,-3.37,-3.70,-1.16,-1.16,-1.16
299.53,2.22,3.39,2.22,3.39,-3.38,-3.32,-3.61,-1.16,-1.16,-1.17
302.53,2.15,3.32,2.15,3.32,-3.32,-3.27,-3.51,-1.17,-1.17,-1.17
305.55,2.09,3.26,2.08,3.26,-3.26,-3.22,-3.42,-1.17,-1.18,-1.17
308.61,2.02,3.19,2.02,3.19,-3.20,-3.17,-3.33,-1.18,-1.18,-1.17
311.69,1.96,3.13,1.96,3.13,-3.13,-3.12,-3.24,-1.17,-1.17,-1.17
314.81,1.90,3.07,1.90,3.07,-3.07,-3.07,-3.15,-1.17,-1.17,-1.17
317.96,1.84,3.02,1.84,3.01,-3.01,-3.02,-3.07,-1.17,-1.17,-1.18
321.14,1.78,2.95,1.77,2.95,-2.94,-2.97,-2.98,-1.17,-1.17,-1.17
324.35,1.71,2.88,1.71,2.88,-2.88,-2.93,-2.89,-1.17,-1.17,-1.17
327.59,1.65,2.80,1.65,2.82,-2.82,-2.88,-2.81,-1.17,-1.17,-1.16
330.87,1.59,2.76,1.59,2.76,-2.75,-2.83,-2.72,-1.17,-1.16,-1.17
334.18,1.54,2.71,1.53,2.70,-2.69,-2.78,-2.64,-1.15,-1.16,-1.17
337.52,1.47,2.63,1.47,2.64,-2.63,-2.73,-2.56,-1.16,-1.16,-1.16
340.90,1.41,2.56,1.41,2.57,-2.57,-2.69,-2.48,-1.16,-1.16,-1.15
344.30,1.35,2.50,1.35,2.50,-2.51,-2.64,-2.40,-1.16,-1.16,-1.16
347.75,1.29,2.44,1.29,2.44,-2.45,-2.59,-2.33,-1.16,-1.16,-1.15
351.23,1.24,2.40,1.24,2.39,-2.39,-2.54,-2.25,-1.15,-1.15,-1.16
354.74,1.19,2.33,1.18,2.34,-2.33,-2.50,-2.18,-1.15,-1.15,-1.14
358.28,1.13,2.28,1.13,2.28,-2.28,-2.45,-2.11,-1.15,-1.15,-1.15
361.87,1.08,2.23,1.07,2.22,-2.23,-2.40,-2.04,-1.15,-1.15,-1.16
365.49,1.02,2.17,1.02,2.17,-2.17,-2.36,-1.97,-1.15,-1.15,-1.15
369.14,0.96,2.11,0.96,2.12,-2.12,-2.31,-1.91,-1.16,-1.15,-1.15
372.83,0.92,2.07,0.91,2.07,-2.07,-2.26,-1.84,-1.15,-1.15,-1.15
376.56,0.86,2.02,0.86,2.02,-2.01,-2.22,-1.78,-1.15,-1.15,-1.16
380.33,0.81,1.96,0.81,1.96,-1.96,-2.17,-1.72,-1.15,-1.15,-1.15
384.13,0.75,1.90,0.75,1.90,-1.90,-2.12,-1.66,-1.15,-1.15,-1.16
387.97,0.70,1.84,0.70,1.85,-1.85,-2.08,-1.60,-1.15,-1.15,-1.15
391.85,0.64,1.79,0.64,1.79,-1.79,-2.03,-1.54,-1.16,-1.15,-1.15
395.77,0.60,1.75,0.60,1.74,-1.74,-1.99,-1.48,-1.14,-1.15,-1.15
399.73,0.55,1.69,0.55,1.69,-1.69,-1.94,-1.43,-1.14,-1.14,-1.14
403.72,0.50,1.63,0.50,1.63,-1.63,-1.90,-1.37,-1.14,-1.14,-1.13
407.76,0.45,1.58,0.45,1.58,-1.58,-1.85,-1.32,-1.13,-1.13,-1.13
411.84,0.40,1.53,0.40,1.53,-1.53,-1.80,-1.27,-1.13,-1.13,-1.13
415.96,0.36,1.48,0.35,1.49,-1.48,-1.76,-1.22,-1.12,-1.13,-1.12
420.12,0.30,1.43,0.30,1.44,-1.43,-1.71,-1.17,-1.13,-1.13,-1.14
424.32,0.26,1.39,0.26,1.38,-1.39,-1.67,-1.12,-1.13,-1.13,-1.14
428.56,0.21,1.33,0.21,1.33,-1.34,-1.62,-1.07,-1.13,-1.13,-1.12
432.85,0.17,1.29,0.17,1.29,-1.29,-1.57,-1.03,-1.12,-1.13,-1.12
437.18,0.12,1.25,0.12,1.24,-1.25,-1.53,-0.98,-1.13,-1.13,-1.13
441.55,0.08,1.21,0.07,1.20,-1.20,-1.48,-0.94,-1.12,-1.13,-1.13
