frequency,raw
20.00,-2.70
20.20,-2.67
20.40,-2.63
20.61,-2.61
20.81,-2.57
21.02,-2.55
21.23,-2.51
21.44,-2.49
21.66,-2.46
21.87,-2.44
22.09,-2.41
22.31,-2.39
22.54,-2.36
22.76,-2.34
22.99,-2.32
23.22,-2.30
23.45,-2.28
23.69,-2.26
23.92,-2.24
24.16,-2.22
24.40,-2.21
24.65,-2.19
24.89,-2.17
25.14,-2.16
25.39,-2.14
25.65,-2.14
25.91,-2.13
26.16,-2.12
26.43,-2.11
26.69,-2.10
26.96,-2.09
27.23,-2.09
27.50,-2.08
27.77,-2.08
28.05,-2.08
28.33,-2.08
28.62,-2.08
28.90,-2.08
29.19,-2.08
29.48,-2.09
29.78,-2.09
30.08,-2.09
30.38,-2.11
30.68,-2.13
30.99,-2.14
31.30,-2.16
31.61,-2.18
31.93,-2.20
32.24,-2.21
32.57,-2.23
32.89,-2.26
33.22,-2.28
33.55,-2.31
33.89,-2.33
34.23,-2.37
34.57,-2.39
34.92,-2.42
35.27,-2.44
35.62,-2.47
35.97,-2.50
36.33,-2.53
36.70,-2.56
37.06,-2.57
37.43,-2.59
37.81,-2.61
38.19,-2.63
38.57,-2.65
38.95,-2.66
39.34,-2.67
39.74,-2.68
40.14,-2.68
40.54,-2.68
40.94,-2.68
41.35,-2.67
41.76,-2.67
42.18,-2.67
42.60,-2.67
43.03,-2.66
43.46,-2.65
43.90,-2.64
44.33,-2.63
44.78,-2.62
45.23,-2.60
45.68,-2.58
46.13,-2.56
46.60,-2.54
47.06,-2.51
47.53,-2.48
48.01,-2.46
48.49,-2.44
48.97,-2.41
49.46,-2.39
49.96,-2.36
50.46,-2.34
50.96,-2.32
51.47,-2.31
51.99,-2.31
52.51,-2.30
53.03,-2.29
53.56,-2.28
54.10,-2.26
54.64,-2.24
55.18,-2.22
55.74,-2.20
56.29,-2.18
56.86,-2.16
57.42,-2.14
58.00,-2.12
58.58,-2.09
59.16,-2.06
59.76,-2.03
60.35,-2.01
60.96,-1.99
61.57,-1.98
62.18,-1.96
62.80,-1.95
63.43,-1.92
64.07,-1.90
64.71,-1.88
65.35,-1.84
66.01,-1.81
66.67,-1.78
67.33,-1.74
68.01,-1.71
68.69,-1.68
69.37,-1.66
70.07,-1.63
70.77,-1.61
71.48,-1.60
72.19,-1.57
72.91,-1.55
73.64,-1.54
74.38,-1.52
75.12,-1.50
75.87,-1.49
76.63,-1.49
77.40,-1.49
78.17,-1.48
78.95,-1.49
79.74,-1.51
80.54,-1.53
81.35,-1.54
82.16,-1.55
82.98,-1.56
83.81,-1.56
84.65,-1.57
85.50,-1.58
86.35,-1.59
87.22,-1.60
88.09,-1.61
88.97,-1.63
89.86,-1.64
90.76,-1.65
91.66,-1.66
92.58,-1.67
93.51,-1.69
94.44,-1.70
95.39,-1.71
96.34,-1.72
97.30,-1.74
98.28,-1.75
99.26,-1.76
100.25,-1.77
101.25,-1.78
102.27,-1.79
103.29,-1.79
104.32,-1.80
105.37,-1.80
106.42,-1.80
107.48,-1.81
108.56,-1.80
109.64,-1.81
110.74,-1.82
111.85,-1.83
112.97,-1.82
114.10,-1.80
115.24,-1.79
116.39,-1.76
117.55,-1.73
118.73,-1.70
119.92,-1.65
121.12,-1.61
122.33,-1.58
123.55,-1.55
124.79,-1.51
126.03,-1.47
127.29,-1.45
128.57,-1.43
129.85,-1.41
131.15,-1.40
132.46,-1.40
133.79,-1.40
135.12,-1.40
136.48,-1.40
137.84,-1.40
139.22,-1.40
140.61,-1.41
142.02,-1.44
143.44,-1.45
144.87,-1.49
146.32,-1.50
147.78,-1.54
149.26,-1.57
150.75,-1.59
152.26,-1.63
153.78,-1.66
155.32,-1.67
156.88,-1.71
158.44,-1.72
160.03,-1.73
161.63,-1.72
163.24,-1.71
164.88,-1.69
166.53,-1.68
168.19,-1.66
169.87,-1.65
171.57,-1.64
173.29,-1.63
175.02,-1.61
176.77,-1.60
178.54,-1.58
180.32,-1.56
182.13,-1.55
183.95,-1.53
185.79,-1.51
187.65,-1.49
189.52,-1.47
191.42,-1.45
193.33,-1.44
195.27,-1.42
197.22,-1.39
199.19,-1.37
201.18,-1.35
203.19,-1.33
205.23,-1.31
207.28,-1.28
209.35,-1.26
211.44,-1.23
213.56,-1.20
215.69,-1.18
217.85,-1.15
220.03,-1.12
222.23,-1.10
224.45,-1.07
226.70,-1.05
228.96,-1.03
231.25,-1.01
233.57,-0.99
235.90,-0.98
238.26,-0.96
240.64,-0.95
243.05,-0.94
245.48,-0.92
247.93,-0.90
250.41,-0.89
252.92,-0.89
255.45,-0.88
258.00,-0.88
260.58,-0.89
263.19,-0.90
265.82,-0.93
268.48,-0.95
271.16,-0.99
273.87,-1.05
276.61,-1.09
279.38,-1.16
282.17,-1.24
284.99,-1.33
287.84,-1.45
290.72,-1.57
293.63,-1.68
296.57,-1.78
299.53,-1.90
302.53,-2.03
305.55,-2.17
308.61,-2.30
311.69,-2.43
314.81,-2.52
317.96,-2.63
321.14,-2.74
324.35,-2.87
327.59,-2.98
330.87,-3.06
334.18,-3.13
337.52,-3.18
340.90,-3.22
344.30,-3.24
347.75,-3.24
351.23,-3.23
354.74,-3.22
358.28,-3.20
361.87,-3.16
365.49,-3.11
369.14,-3.05
372.83,-2.99
376.56,-2.92
380.33,-2.85
384.13,-2.79
387.97,-2.74
391.85,-2.69
395.77,-2.64
399.73,-2.59
403.72,-2.53
407.76,-2.46
411.84,-2.40
415.96,-2.35
420.12,-2.29
424.32,-2.22
428.56,-2.17
432.85,-2.12
437.18,-2.05
441.55,-1.98
445.96,-1.93
450.42,-1.87
454.93,-1.81
459.48,-1.75
464.07,-1.70
468.71,-1.64
473.40,-1.57
478.13,-1.51
482.91,-1.45
487.74,-1.40
492.62,-1.35
497.55,-1.32
502.52,-1.29
507.55,-1.25
512.62,-1.22
517.75,-1.17
522.93,-1.13
528.16,-1.08
533.44,-1.04
538.77,-0.98
544.16,-0.94
549.60,-0.89
555.10,-0.83
560.65,-0.76
566.25,-0.71
571.92,-0.65
577.64,-0.59
583.41,-0.55
589.25,-0.50
595.14,-0.46
601.09,-0.44
607.10,-0.42
613.17,-0.40
619.30,-0.39
625.50,-0.38
631.75,-0.37
638.07,-0.38
644.45,-0.38
650.89,-0.38
657.40,-0.39
663.98,-0.42
670.62,-0.46
677.32,-0.50
684.10,-0.55
690.94,-0.63
697.85,-0.71
704.83,-0.79
711.87,-0.88
718.99,-0.98
726.18,-1.08
733.44,-1.18
740.78,-1.27
748.19,-1.36
755.67,-1.47
763.23,-1.56
770.86,-1.63
778.57,-1.72
786.35,-1.78
794.22,-1.85
802.16,-1.89
810.18,-1.93
818.28,-1.94
826.46,-1.95
834.73,-1.92
843.08,-1.90
851.51,-1.86
860.02,-1.82
868.62,-1.77
877.31,-1.70
886.08,-1.61
894.94,-1.53
903.89,-1.45
912.93,-1.38
922.06,-1.29
931.28,-1.20
940.59,-1.12
950.00,-1.03
959.50,-0.95
969.09,-0.88
978.78,-0.79
988.57,-0.70
998.46,-0.63
1008.44,-0.56
1018.53,-0.49
1028.71,-0.42
1039.00,-0.37
1049.39,-0.31
1059.88,-0.25
1070.48,-0.23
1081.19,-0.20
1092.00,-0.19
1102.92,-0.18
1113.95,-0.17
1125.09,-0.15
1136.34,-0.15
1147.70,-0.16
1159.18,-0.17
1170.77,-0.19
1182.48,-0.20
1194.30,-0.21
1206.25,-0.22
1218.31,-0.21
1230.49,-0.20
1242.80,-0.18
1255.22,-0.15
1267.78,-0.13
1280.45,-0.09
1293.26,-0.08
1306.19,-0.06
1319.25,-0.04
1332.45,-0.01
1345.77,0.03
1359.23,0.07
1372.82,0.12
1386.55,0.16
1400.41,0.19
1414.42,0.23
1428.56,0.28
1442.85,0.31
1457.28,0.36
1471.85,0.41
1486.57,0.44
1501.43,0.48
1516.45,0.50
1531.61,0.52
1546.93,0.52
1562.40,0.52
1578.02,0.52
1593.80,0.51
1609.74,0.50
1625.84,0.51
1642.10,0.51
1658.52,0.52
1675.10,0.52
1691.85,0.53
1708.77,0.54
1725.86,0.56
1743.12,0.57
1760.55,0.58
1778.15,0.60
1795.94,0.62
1813.90,0.63
1832.03,0.63
1850.36,0.64
1868.86,0.65
1887.55,0.65
1906.42,0.69
1925.49,0.72
1944.74,0.75
1964.19,0.78
1983.83,0.81
2003.67,0.84
2023.71,0.87
2043.94,0.90
2064.38,0.94
2085.03,0.99
2105.88,1.05
2126.94,1.11
2148.20,1.21
2169.69,1.29
2191.38,1.39
2213.30,1.50
2235.43,1.62
2257.78,1.77
2280.36,1.93
2303.17,2.09
2326.20,2.26
2349.46,2.43
2372.95,2.58
2396.68,2.75
2420.65,2.89
2444.86,3.04
2469.31,3.19
2494.00,3.31
2518.94,3.44
2544.13,3.59
2569.57,3.72
2595.27,3.84
2621.22,3.96
2647.43,4.07
2673.90,4.17
2700.64,4.28
2727.65,4.39
2754.93,4.49
2782.48,4.58
2810.30,4.66
2838.40,4.76
2866.79,4.84
2895.46,4.91
2924.41,4.99
2953.65,5.05
2983.19,5.12
3013.02,5.16
3043.15,5.19
3073.58,5.21
3104.32,5.22
3135.36,5.22
3166.72,5.19
3198.38,5.18
3230.37,5.14
3262.67,5.09
3295.30,5.02
3328.25,4.95
3361.53,4.86
3395.15,4.77
3429.10,4.69
3463.39,4.59
3498.03,4.52
3533.01,4.46
3568.34,4.41
3604.02,4.34
3640.06,4.27
3676.46,4.22
3713.22,4.16
3750.36,4.10
3787.86,4.06
3825.74,4.03
3864.00,4.00
3902.64,3.97
3941.66,3.95
3981.08,3.91
4020.89,3.88
4061.10,3.85
4101.71,3.81
4142.73,3.79
4184.15,3.78
4226.00,3.77
4268.26,3.79
4310.94,3.80
4354.05,3.82
4397.59,3.82
4441.56,3.83
4485.98,3.84
4530.84,3.85
4576.15,3.87
4621.91,3.89
4668.13,3.90
4714.81,3.90
4761.96,3.89
4809.58,3.90
4857.67,3.88
4906.25,3.87
4955.31,3.86
5004.87,3.84
5054.91,3.85
5105.46,3.86
5156.52,3.90
5208.08,3.93
5260.16,3.96
5312.77,4.01
5365.89,4.07
5419.55,4.13
5473.75,4.22
5528.49,4.29
5583.77,4.37
5639.61,4.44
5696.00,4.50
5752.96,4.54
5810.49,4.56
5868.60,4.57
5927.28,4.55
5986.56,4.49
6046.42,4.43
6106.89,4.33
6167.96,4.23
6229.64,4.11
6291.93,3.95
6354.85,3.81
6418.40,3.66
6482.58,3.53
6547.41,3.40
6612.88,3.28
6679.01,3.16
6745.80,3.04
6813.26,2.91
6881.39,2.79
6950.21,2.68
7019.71,2.56
7089.91,2.46
7160.81,2.35
7232.41,2.23
7304.74,2.11
7377.79,1.98
7451.56,1.85
7526.08,1.70
7601.34,1.55
7677.35,1.39
7754.13,1.21
7831.67,1.04
7909.98,0.87
7989.08,0.66
8068.98,0.44
8149.67,0.21
8231.16,-0.04
8313.47,-0.30
8396.61,-0.57
8480.57,-0.87
8565.38,-1.17
8651.03,-1.49
8737.54,-1.79
8824.92,-2.09
8913.17,-2.41
9002.30,-2.72
9092.32,-3.03
9183.25,-3.35
9275.08,-3.65
9367.83,-3.94
9461.51,-4.17
9556.12,-4.37
9651.68,-4.52
9748.20,-4.61
9845.68,-4.65
9944.14,-4.65
10043.58,-4.61
10144.02,-4.56
10245.46,-4.48
10347.91,-4.42
10451.39,-4.35
10555.91,-4.27
10661.46,-4.20
10768.08,-4.16
10875.76,-4.15
10984.52,-4.16
11094.36,-4.18
11205.31,-4.23
11317.36,-4.28
11430.53,-4.30
11544.84,-4.30
11660.29,-4.30
11776.89,-4.26
11894.66,-4.22
12013.60,-4.18
12133.74,-4.13
12255.08,-4.11
12377.63,-4.14
12501.41,-4.18
12626.42,-4.27
12752.68,-4.40
12880.21,-4.61
13009.01,-4.87
13139.10,-5.21
13270.49,-5.62
13403.20,-6.11
13537.23,-6.65
13672.60,-7.30
13809.33,-8.01
13947.42,-8.79
14086.90,-9.62
14227.77,-10.47
14370.04,-11.33
14513.74,-12.16
14658.88,-12.96
14805.47,-13.70
14953.52,-14.36
15103.06,-14.92
15254.09,-15.38
15406.63,-15.75
15560.70,-16.04
15716.30,-16.28
15873.47,-16.45
16032.20,-16.61
16192.52,-16.73
16354.45,-16.85
16517.99,-17.01
16683.17,-17.19
16850.01,-17.40
17018.51,-17.64
17188.69,-17.88
17360.58,-18.14
17534.18,-18.41
17709.53,-18.66
17886.62,-18.89
18065.49,-18.96
18246.14,-19.08
18428.60,-19.20
18612.89,-19.30
18799.02,-19.41
18987.01,-19.49
19176.88,-19.56
19368.65,-19.61
19562.33,-19.64
19757.96,-19.67
19955.54,-19.68
