frequency,raw,error,smoothed,error_smoothed,equalization,parametric_eq,fixed_band_eq,equalized_raw,equalized_smoothed,target
20.00,4.45,-0.70,4.45,-0.70,0.70,0.11,-1.15,5.15,5.15,5.15
20.20,4.52,-0.61,4.51,-0.61,0.61,0.04,-1.18,5.13,5.12,5.13
20.40,4.58,-0.52,4.58,-0.52,0.52,-0.05,-1.22,5.09,5.10,5.09
20.61,4.65,-0.43,4.65,-0.42,0.42,-0.14,-1.25,5.07,5.07,5.08
20.81,4.74,-0.32,4.73,-0.32,0.32,-0.23,-1.29,5.06,5.05,5.05
21.02,4.81,-0.22,4.81,-0.21,0.22,-0.32,-1.33,5.02,5.03,5.02
21.23,4.90,-0.11,4.90,-0.10,0.11,-0.41,-1.37,5.01,5.01,5.00
21.44,4.99,0.01,4.99,0.00,-0.00,-0.51,-1.41,4.99,4.99,4.98
21.66,5.08,0.11,5.08,0.11,-0.11,-0.60,-1.45,4.96,4.96,4.96
21.87,5.17,0.23,5.17,0.23,-0.23,-0.69,-1.49,4.94,4.94,4.94
22.09,5.27,0.35,5.27,0.35,-0.35,-0.79,-1.54,4.92,4.91,4.92
22.31,5.37,0.47,5.37,0.47,-0.48,-0.88,-1.58,4.89,4.90,4.90
22.54,5.48,0.60,5.48,0.60,-0.60,-0.96,-1.63,4.87,4.88,4.87
22.76,5.59,0.74,5.58,0.73,-0.73,-1.05,-1.68,4.86,4.86,4.85
22.99,5.69,0.86,5.69,0.86,-0.86,-1.14,-1.72,4.83,4.84,4.83
23.22,5.80,0.99,5.80,0.99,-0.98,-1.22,-1.77,4.81,4.82,4.81
23.45,5.91,1.11,5.91,1.11,-1.11,-1.30,-1.83,4.80,4.80,4.80
23.69,6.02,1.24,6.02,1.23,-1.23,-1.38,-1.88,4.78,4.78,4.78
23.92,6.12,1.35,6.12,1.35,-1.35,-1.45,-1.93,4.77,4.77,4.77
24.16,6.23,1.48,6.22,1.47,-1.47,-1.53,-1.99,4.76,4.75,4.75
24.40,6.32,1.58,6.32,1.58,-1.58,-1.60,-2.04,4.74,4.74,4.74
24.65,6.42,1.69,6.42,1.69,-1.69,-1.67,-2.10,4.72,4.72,4.73
24.89,6.51,1.80,6.51,1.80,-1.80,-1.74,-2.15,4.71,4.71,4.71
25.14,6.61,1.91,6.61,1.91,-1.91,-1.81,-2.21,4.70,4.70,4.70
25.39,6.70,2.01,6.70,2.01,-2.01,-1.87,-2.27,4.69,4.69,4.69
25.65,6.78,2.10,6.78,2.11,-2.11,-1.94,-2.33,4.67,4.68,4.68
25.91,6.87,2.20,6.87,2.20,-2.20,-2.00,-2.38,4.66,4.66,4.67
26.16,6.95,2.29,6.95,2.29,-2.30,-2.06,-2.44,4.65,4.65,4.66
26.43,7.03,2.39,7.03,2.39,-2.39,-2.12,-2.50,4.64,4.64,4.64
26.69,7.10,2.47,7.10,2.48,-2.48,-2.18,-2.56,4.62,4.63,4.62
26.96,7.18,2.56,7.17,2.56,-2.56,-2.24,-2.62,4.62,4.62,4.61
27.23,7.25,2.64,7.25,2.64,-2.64,-2.29,-2.67,4.61,4.61,4.60
27.50,7.31,2.72,7.31,2.72,-2.72,-2.35,-2.73,4.59,4.60,4.59
27.77,7.38,2.79,7.38,2.79,-2.79,-2.40,-2.79,4.59,4.59,4.59
28.05,7.44,2.86,7.44,2.86,-2.86,-2.45,-2.84,4.58,4.58,4.58
28.33,7.50,2.93,7.50,2.93,-2.92,-2.51,-2.89,4.57,4.58,4.57
28.62,7.56,2.99,7.55,2.99,-2.99,-2.56,-2.94,4.57,4.57,4.57
28.90,7.61,3.05,7.61,3.05,-3.05,-2.61,-2.99,4.56,4.56,4.56
29.19,7.65,3.09,7.66,3.10,-3.10,-2.66,-3.04,4.55,4.56,4.56
29.48,7.71,3.16,7.70,3.15,-3.15,-2.71,-3.08,4.55,4.55,4.55
29.78,7.75,3.20,7.75,3.20,-3.20,-2.76,-3.12,4.54,4.54,4.55
30.08,7.79,3.25,7.79,3.25,-3.25,-2.81,-3.16,4.54,4.54,4.53
30.38,7.83,3.29,7.83,3.30,-3.30,-2.85,-3.19,4.53,4.53,4.53
30.68,7.87,3.35,7.86,3.34,-3.34,-2.90,-3.22,4.53,4.52,4.52
30.99,7.90,3.39,7.90,3.38,-3.38,-2.95,-3.25,4.51,4.52,4.51
31.30,7.93,3.42,7.93,3.43,-3.42,-2.99,-3.28,4.50,4.51,4.51
31.61,7.97,3.47,7.96,3.46,-3.46,-3.04,-3.30,4.51,4.50,4.50
31.93,7.99,3.50,7.99,3.50,-3.50,-3.08,-3.32,4.49,4.49,4.49
32.24,8.02,3.53,8.02,3.54,-3.54,-3.13,-3.34,4.48,4.48,4.49
32.57,8.05,3.57,8.05,3.57,-3.57,-3.17,-3.35,4.47,4.47,4.48
32.89,8.07,3.61,8.07,3.61,-3.61,-3.22,-3.36,4.46,4.46,4.46
33.22,8.10,3.65,8.10,3.64,-3.64,-3.26,-3.37,4.45,4.45,4.45
33.55,8.12,3.68,8.12,3.68,-3.68,-3.30,-3.38,4.44,4.44,4.44
33.89,8.14,3.71,8.14,3.71,-3.71,-3.34,-3.38,4.43,4.43,4.43
34.23,8.16,3.74,8.16,3.74,-3.74,-3.38,-3.39,4.42,4.42,4.42
34.57,8.19,3.77,8.18,3.77,-3.77,-3.43,-3.39,4.42,4.41,4.42
34.92,8.20,3.79,8.20,3.80,-3.80,-3.47,-3.39,4.40,4.41,4.40
35.27,8.22,3.83,8.22,3.82,-3.82,-3.51,-3.39,4.40,4.40,4.39
35.62,8.24,3.85,8.24,3.85,-3.85,-3.55,-3.39,4.39,4.39,4.39
35.97,8.25,3.87,8.25,3.87,-3.87,-3.59,-3.38,4.38,4.38,4.38
36.33,8.27,3.89,8.27,3.89,-3.90,-3.62,-3.38,4.37,4.37,4.38
36.70,8.28,3.92,8.28,3.92,-3.92,-3.66,-3.38,4.36,4.36,4.36
37.06,8.30,3.95,8.30,3.94,-3.94,-3.70,-3.38,4.35,4.35,4.35
37.43,8.32,3.97,8.32,3.97,-3.97,-3.74,-3.38,4.35,4.35,4.35
37.81,8.33,3.99,8.33,3.99,-3.99,-3.78,-3.38,4.34,4.34,4.34
38.19,8.35,4.02,8.35,4.01,-4.01,-3.81,-3.38,4.33,4.33,4.33
38.57,8.36,4.04,8.36,4.04,-4.04,-3.85,-3.38,4.32,4.32,4.32
38.95,8.37,4.05,8.37,4.06,-4.06,-3.88,-3.39,4.31,4.31,4.32
39.34,8.39,4.08,8.39,4.08,-4.08,-3.92,-3.39,4.31,4.30,4.30
39.74,8.40,4.10,8.40,4.10,-4.10,-3.95,-3.40,4.29,4.30,4.30
40.14,8.42,4.13,8.42,4.13,-4.13,-3.99,-3.41,4.29,4.29,4.29
40.54,8.43,4.14,8.43,4.15,-4.15,-4.02,-3.42,4.28,4.28,4.28
40.94,8.45,4.18,8.44,4.17,-4.17,-4.05,-3.44,4.28,4.27,4.27
41.35,8.45,4.18,8.46,4.19,-4.19,-4.09,-3.46,4.26,4.27,4.27
41.76,8.47,4.21,8.47,4.21,-4.21,-4.12,-3.47,4.26,4.26,4.25
42.18,8.48,4.23,8.47,4.23,-4.23,-4.15,-3.50,4.25,4.25,4.25
42.60,8.48,4.24,8.48,4.25,-4.25,-4.18,-3.52,4.23,4.24,4.24
43.03,8.49,4.26,8.49,4.26,-4.26,-4.21,-3.55,4.23,4.23,4.23
43.46,8.50,4.28,8.50,4.28,-4.28,-4.24,-3.58,4.22,4.22,4.22
43.90,8.51,4.30,8.50,4.29,-4.29,-4.27,-3.61,4.22,4.21,4.21
44.33,8.51,4.30,8.51,4.31,-4.30,-4.29,-3.65,4.20,4.20,4.21
44.78,8.51,4.32,8.51,4.32,-4.32,-4.32,-3.69,4.19,4.20,4.19
45.23,8.52,4.33,8.52,4.33,-4.33,-4.35,-3.73,4.19,4.19,4.19
45.68,8.52,4.34,8.52,4.34,-4.34,-4.37,-3.77,4.18,4.18,4.18
46.13,8.52,4.34,8.52,4.34,-4.34,-4.40,-3.82,4.18,4.18,4.18
46.60,8.52,4.35,8.52,4.35,-4.35,-4.42,-3.87,4.17,4.17,4.17
47.06,8.52,4.35,8.52,4.35,-4.35,-4.45,-3.92,4.17,4.17,4.17
47.53,8.52,4.36,8.51,4.36,-4.35,-4.47,-3.98,4.16,4.16,4.16
48.01,8.51,4.36,8.51,4.36,-4.36,-4.49,-4.04,4.15,4.15,4.15
48.49,8.50,4.35,8.50,4.36,-4.36,-4.51,-4.10,4.14,4.15,4.15
48.97,8.50,4.36,8.49,4.35,-4.36,-4.53,-4.16,4.14,4.14,4.14
49.46,8.49,4.36,8.49,4.36,-4.36,-4.55,-4.22,4.13,4.13,4.13
49.96,8.48,4.35,8.48,4.36,-4.36,-4.57,-4.29,4.12,4.13,4.13
50.46,8.48,4.36,8.47,4.36,-4.35,-4.59,-4.36,4.12,4.12,4.12
50.96,8.47,4.36,8.46,4.35,-4.35,-4.61,-4.42,4.12,4.11,4.11
51.47,8.45,4.35,8.45,4.35,-4.35,-4.62,-4.49,4.10,4.10,4.10
51.99,8.44,4.35,8.44,4.35,-4.35,-4.64,-4.56,4.09,4.09,4.09
52.51,8.43,4.34,8.43,4.35,-4.35,-4.65,-4.63,4.08,4.08,4.08
53.03,8.43,4.35,8.43,4.35,-4.35,-4.67,-4.71,4.08,4.08,4.08
53.56,8.42,4.35,8.42,4.36,-4.35,-4.68,-4.78,4.07,4.07,4.07
54.10,8.42,4.36,8.41,4.36,-4.35,-4.69,-4.84,4.07,4.06,4.06
54.64,8.40,4.35,8.40,4.36,-4.35,-4.70,-4.91,4.04,4.05,4.05
55.18,8.39,4.35,8.39,4.35,-4.36,-4.72,-4.98,4.03,4.03,4.04
55.74,8.38,4.35,8.38,4.35,-4.36,-4.72,-5.04,4.02,4.02,4.02
56.29,8.37,4.36,8.37,4.36,-4.36,-4.73,-5.10,4.01,4.01,4.01
56.86,8.37,4.37,8.37,4.36,-4.36,-4.74,-5.16,4.01,4.00,4.00
57.42,8.36,4.37,8.36,4.36,-4.36,-4.75,-5.21,4.00,3.99,3.99
58.00,8.35,4.36,8.35,4.37,-4.36,-4.75,-5.26,3.98,3.99,3.99
58.58,8.34,4.36,8.34,4.37,-4.37,-4.76,-5.30,3.97,3.97,3.97
59.16,8.34,4.38,8.33,4.37,-4.37,-4.76,-5.34,3.97,3.96,3.96
59.76,8.32,4.37,8.32,4.37,-4.37,-4.77,-5.37,3.94,3.95,3.95
60.35,8.32,4.37,8.32,4.38,-4.38,-4.77,-5.40,3.94,3.94,3.94
60.96,8.31,4.38,8.31,4.38,-4.38,-4.77,-5.42,3.93,3.93,3.93
61.57,8.30,4.38,8.30,4.39,-4.39,-4.77,-5.43,3.91,3.92,3.91
62.18,8.30,4.40,8.30,4.40,-4.39,-4.77,-5.44,3.91,3.90,3.90
62.80,8.29,4.41,8.29,4.40,-4.40,-4.77,-5.43,3.89,3.89,3.88
63.43,8.28,4.40,8.28,4.41,-4.41,-4.77,-5.42,3.87,3.87,3.88
64.07,8.27,4.41,8.27,4.41,-4.41,-4.77,-5.41,3.85,3.86,3.86
64.71,8.27,4.43,8.27,4.42,-4.42,-4.76,-5.39,3.84,3.84,3.84
65.35,8.26,4.43,8.26,4.43,-4.43,-4.76,-5.36,3.82,3.82,3.82
66.01,8.25,4.44,8.25,4.44,-4.44,-4.76,-5.32,3.80,3.81,3.81
66.67,8.24,4.45,8.24,4.46,-4.46,-4.75,-5.28,3.78,3.79,3.79
67.33,8.24,4.47,8.24,4.47,-4.47,-4.75,-5.23,3.77,3.77,3.77
68.01,8.23,4.48,8.23,4.48,-4.48,-4.74,-5.18,3.75,3.75,3.75
68.69,8.22,4.49,8.22,4.49,-4.49,-4.73,-5.12,3.73,3.73,3.73
69.37,8.21,4.50,8.21,4.50,-4.51,-4.73,-5.06,3.70,3.70,3.70
70.07,8.20,4.52,8.20,4.52,-4.52,-4.72,-5.00,3.68,3.68,3.68
70.77,8.20,4.54,8.19,4.53,-4.53,-4.71,-4.93,3.67,3.66,3.66
71.48,8.19,4.55,8.19,4.55,-4.55,-4.70,-4.86,3.64,3.64,3.64
72.19,8.17,4.55,8.18,4.56,-4.56,-4.69,-4.78,3.61,3.61,3.61
72.91,8.17,4.58,8.16,4.58,-4.58,-4.69,-4.71,3.59,3.58,3.59
73.64,8.15,4.59,8.15,4.59,-4.59,-4.68,-4.64,3.55,3.56,3.55
74.38,8.14,4.61,8.14,4.61,-4.61,-4.67,-4.56,3.53,3.53,3.53
75.12,8.13,4.62,8.13,4.63,-4.63,-4.66,-4.48,3.50,3.50,3.50
75.87,8.12,4.65,8.12,4.64,-4.64,-4.65,-4.41,3.47,3.47,3.47
76.63,8.10,4.66,8.10,4.66,-4.66,-4.64,-4.33,3.44,3.44,3.44
77.40,8.08,4.68,8.08,4.68,-4.68,-4.63,-4.26,3.40,3.40,3.40
78.17,8.06,4.69,8.06,4.69,-4.70,-4.63,-4.19,3.36,3.36,3.36
78.95,8.04,4.71,8.04,4.71,-4.71,-4.62,-4.11,3.32,3.32,3.32
79.74,8.02,4.73,8.02,4.73,-4.73,-4.61,-4.04,3.29,3.29,3.29
80.54,7.99,4.74,7.99,4.75,-4.75,-4.60,-3.97,3.24,3.24,3.24
81.35,7.97,4.76,7.97,4.76,-4.76,-4.60,-3.91,3.21,3.20,3.20
82.16,7.94,4.78,7.94,4.78,-4.78,-4.59,-3.84,3.16,3.16,3.16
82.98,7.91,4.79,7.91,4.79,-4.79,-4.59,-3.78,3.12,3.12,3.12
83.81,7.88,4.80,7.87,4.80,-4.80,-4.59,-3.72,3.08,3.08,3.08
84.65,7.83,4.80,7.84,4.81,-4.80,-4.58,-3.67,3.03,3.03,3.03
85.50,7.80,4.82,7.79,4.81,-4.81,-4.58,-3.61,2.99,2.99,2.98
86.35,7.75,4.80,7.75,4.80,-4.81,-4.58,-3.56,2.94,2.94,2.95
87.22,7.70,4.79,7.70,4.80,-4.80,-4.58,-3.51,2.90,2.90,2.90
88.09,7.66,4.80,7.65,4.79,-4.79,-4.58,-3.46,2.86,2.86,2.86
88.97,7.60,4.78,7.60,4.78,-4.78,-4.58,-3.42,2.82,2.82,2.81
89.86,7.54,4.77,7.54,4.77,-4.77,-4.58,-3.38,2.77,2.77,2.77
90.76,7.48,4.75,7.48,4.75,-4.75,-4.58,-3.34,2.73,2.73,2.73
91.66,7.42,4.73,7.42,4.73,-4.73,-4.59,-3.30,2.69,2.69,2.69
92.58,7.35,4.70,7.35,4.70,-4.70,-4.59,-3.27,2.64,2.65,2.65
93.51,7.28,4.68,7.28,4.68,-4.67,-4.59,-3.24,2.60,2.61,2.60
94.44,7.21,4.64,7.21,4.64,-4.64,-4.58,-3.21,2.57,2.56,2.56
95.39,7.13,4.61,7.13,4.61,-4.61,-4.58,-3.18,2.52,2.52,2.52
96.34,7.04,4.56,7.04,4.57,-4.57,-4.57,-3.16,2.47,2.48,2.48
97.30,6.96,4.53,6.96,4.52,-4.53,-4.56,-3.14,2.43,2.43,2.43
98.28,6.87,4.48,6.87,4.48,-4.48,-4.55,-3.12,2.39,2.39,2.39
99.26,6.78,4.44,6.78,4.44,-4.44,-4.53,-3.10,2.34,2.34,2.34
100.25,6.68,4.39,6.68,4.39,-4.39,-4.50,-3.08,2.29,2.29,2.29
101.25,6.58,4.33,6.58,4.34,-4.34,-4.47,-3.07,2.24,2.24,2.24
102.27,6.48,4.28,6.48,4.28,-4.28,-4.43,-3.06,2.20,2.20,2.19
103.29,6.38,4.23,6.38,4.23,-4.23,-4.38,-3.04,2.15,2.15,2.14
104.32,6.27,4.17,6.27,4.17,-4.17,-4.32,-3.03,2.10,2.10,2.10
105.37,6.16,4.11,6.16,4.11,-4.11,-4.26,-3.02,2.05,2.05,2.05
106.42,6.04,4.04,6.04,4.04,-4.05,-4.19,-3.02,1.99,1.99,2.00
107.48,5.93,3.98,5.93,3.98,-3.98,-4.12,-3.01,1.94,1.94,1.95
108.56,5.81,3.91,5.81,3.91,-3.92,-4.04,-3.00,1.89,1.90,1.90
109.64,5.70,3.85,5.70,3.85,-3.85,-3.95,-2.99,1.85,1.85,1.85
110.74,5.58,3.78,5.58,3.78,-3.78,-3.86,-2.98,1.80,1.80,1.80
111.85,5.46,3.71,5.46,3.70,-3.70,-3.77,-2.97,1.76,1.75,1.75
112.97,5.33,3.63,5.33,3.63,-3.63,-3.67,-2.96,1.70,1.70,1.70
114.10,5.20,3.55,5.20,3.55,-3.55,-3.57,-2.95,1.65,1.65,1.65
115.24,5.08,3.47,5.08,3.47,-3.47,-3.47,-2.94,1.61,1.60,1.61
116.39,4.95,3.39,4.95,3.39,-3.39,-3.37,-2.93,1.56,1.56,1.56
117.55,4.82,3.31,4.82,3.31,-3.31,-3.27,-2.92,1.51,1.51,1.51
118.73,4.69,3.23,4.69,3.22,-3.22,-3.16,-2.90,1.47,1.47,1.46
119.92,4.56,3.13,4.56,3.14,-3.13,-3.06,-2.88,1.42,1.42,1.43
121.12,4.43,3.05,4.43,3.05,-3.05,-2.96,-2.86,1.38,1.38,1.38
122.33,4.29,2.95,4.29,2.95,-2.95,-2.86,-2.84,1.33,1.34,1.34
123.55,4.16,2.86,4.16,2.86,-2.86,-2.76,-2.81,1.30,1.30,1.30
124.79,4.03,2.77,4.03,2.77,-2.77,-2.66,-2.78,1.26,1.26,1.26
126.03,3.89,2.67,3.89,2.67,-2.67,-2.56,-2.75,1.22,1.22,1.22
127.29,3.76,2.58,3.76,2.58,-2.58,-2.46,-2.72,1.18,1.18,1.18
128.57,3.62,2.47,3.62,2.48,-2.48,-2.37,-2.68,1.14,1.14,1.15
129.85,3.49,2.38,3.49,2.38,-2.38,-2.27,-2.65,1.11,1.11,1.10
131.15,3.35,2.28,3.35,2.28,-2.27,-2.18,-2.60,1.07,1.07,1.07
132.46,3.21,2.17,3.21,2.17,-2.17,-2.08,-2.56,1.04,1.04,1.04
133.79,3.07,2.06,3.07,2.06,-2.06,-1.99,-2.52,1.01,1.00,1.01
135.12,2.93,1.95,2.93,1.95,-1.95,-1.90,-2.47,0.97,0.97,0.97
136.48,2.79,1.85,2.79,1.84,-1.85,-1.81,-2.42,0.94,0.94,0.94
137.84,2.66,1.73,2.65,1.74,-1.74,-1.72,-2.37,0.92,0.92,0.92
139.22,2.52,1.62,2.52,1.63,-1.63,-1.62,-2.31,0.89,0.89,0.89
140.61,2.39,1.52,2.39,1.52,-1.52,-1.53,-2.26,0.87,0.87,0.86
142.02,2.26,1.41,2.26,1.41,-1.41,-1.44,-2.20,0.85,0.85,0.85
143.44,2.13,1.30,2.13,1.30,-1.30,-1.35,-2.15,0.82,0.82,0.83
144.87,2.00,1.20,2.00,1.20,-1.20,-1.26,-2.09,0.80,0.80,0.80
146.32,1.88,1.09,1.88,1.09,-1.09,-1.17,-2.03,0.78,0.78,0.78
147.78,1.76,0.99,1.76,0.99,-0.99,-1.07,-1.97,0.77,0.76,0.77
149.26,1.64,0.90,1.64,0.89,-0.89,-0.98,-1.91,0.75,0.75,0.74
150.75,1.52,0.79,1.52,0.79,-0.79,-0.89,-1.85,0.73,0.73,0.73
152.26,1.41,0.70,1.41,0.69,-0.69,-0.79,-1.79,0.71,0.71,0.71
153.78,1.30,0.60,1.30,0.60,-0.60,-0.70,-1.73,0.70,0.70,0.70
155.32,1.19,0.50,1.19,0.50,-0.50,-0.60,-1.67,0.68,0.69,0.69
156.88,1.09,0.42,1.09,0.42,-0.41,-0.51,-1.61,0.67,0.67,0.67
158.44,0.99,0.33,0.99,0.33,-0.33,-0.42,-1.55,0.66,0.66,0.66
160.03,0.90,0.25,0.89,0.24,-0.24,-0.33,-1.49,0.65,0.65,0.65
161.63,0.80,0.16,0.80,0.16,-0.17,-0.24,-1.44,0.63,0.64,0.64
163.24,0.72,0.09,0.72,0.09,-0.09,-0.15,-1.38,0.63,0.63,0.63
164.88,0.64,0.02,0.64,0.02,-0.02,-0.06,-1.32,0.62,0.62,0.62
166.53,0.57,-0.04,0.57,-0.04,0.04,0.02,-1.26,0.61,0.61,0.61
168.19,0.50,-0.10,0.50,-0.10,0.10,0.10,-1.21,0.60,0.60,0.60
169.87,0.43,-0.16,0.43,-0.16,0.16,0.17,-1.15,0.59,0.59,0.59
171.57,0.37,-0.21,0.37,-0.21,0.21,0.23,-1.09,0.58,0.58,0.58
173.29,0.31,-0.26,0.31,-0.26,0.26,0.29,-1.04,0.57,0.57,0.57
175.02,0.26,-0.30,0.26,-0.30,0.30,0.34,-0.99,0.56,0.56,0.56
176.77,0.21,-0.34,0.21,-0.34,0.34,0.38,-0.93,0.55,0.55,0.55
178.54,0.17,-0.37,0.17,-0.37,0.37,0.42,-0.88,0.54,0.54,0.54
180.32,0.13,-0.40,0.13,-0.40,0.39,0.45,-0.83,0.52,0.52,0.52
182.13,0.10,-0.41,0.10,-0.42,0.41,0.47,-0.78,0.51,0.51,0.51
183.95,0.06,-0.44,0.07,-0.43,0.43,0.48,-0.73,0.49,0.50,0.50
185.79,0.05,-0.43,0.04,-0.44,0.44,0.49,-0.68,0.49,0.48,0.48
187.65,0.02,-0.45,0.02,-0.45,0.45,0.48,-0.63,0.47,0.47,0.47
189.52,-0.00,-0.46,0.00,-0.45,0.46,0.48,-0.58,0.45,0.46,0.46
191.42,-0.01,-0.45,-0.01,-0.46,0.46,0.47,-0.53,0.44,0.44,0.44
193.33,-0.02,-0.45,-0.02,-0.45,0.45,0.46,-0.48,0.43,0.43,0.43
195.27,-0.03,-0.45,-0.03,-0.45,0.45,0.44,-0.44,0.42,0.42,0.42
197.22,-0.04,-0.44,-0.04,-0.44,0.44,0.42,-0.39,0.40,0.40,0.40
199.19,-0.04,-0.43,-0.04,-0.43,0.43,0.40,-0.35,0.39,0.39,0.39
201.18,-0.04,-0.41,-0.04,-0.41,0.41,0.38,-0.30,0.37,0.37,0.37
203.19,-0.04,-0.40,-0.04,-0.40,0.40,0.36,-0.26,0.35,0.35,0.36
205.23,-0.04,-0.38,-0.04,-0.38,0.38,0.34,-0.21,0.33,0.34,0.34
207.28,-0.03,-0.36,-0.03,-0.36,0.35,0.32,-0.17,0.32,0.32,0.33
209.35,-0.02,-0.33,-0.02,-0.33,0.33,0.30,-0.13,0.31,0.31,0.31
211.44,-0.01,-0.30,-0.01,-0.30,0.31,0.28,-0.09,0.29,0.29,0.29
213.56,-0.00,-0.28,-0.00,-0.28,0.28,0.26,-0.05,0.28,0.28,0.28
215.69,0.01,-0.25,0.01,-0.26,0.25,0.24,-0.01,0.26,0.26,0.26
217.85,0.02,-0.24,0.02,-0.23,0.23,0.23,0.03,0.25,0.25,0.25
220.03,0.04,-0.20,0.04,-0.20,0.20,0.21,0.06,0.24,0.24,0.24
222.23,0.06,-0.17,0.05,-0.18,0.18,0.19,0.10,0.24,0.23,0.23
224.45,0.07,-0.15,0.07,-0.15,0.16,0.18,0.13,0.23,0.23,0.22
226.70,0.08,-0.14,0.08,-0.13,0.14,0.16,0.17,0.21,0.22,0.22
228.96,0.10,-0.11,0.09,-0.12,0.12,0.15,0.20,0.22,0.21,0.21
231.25,0.10,-0.10,0.10,-0.10,0.10,0.13,0.23,0.20,0.20,0.20
233.57,0.12,-0.09,0.12,-0.09,0.08,0.12,0.26,0.20,0.20,0.21
235.90,0.13,-0.07,0.13,-0.07,0.07,0.11,0.29,0.20,0.20,0.20
238.26,0.15,-0.06,0.15,-0.06,0.06,0.10,0.31,0.21,0.20,0.20
240.64,0.16,-0.05,0.16,-0.04,0.04,0.08,0.34,0.20,0.21,0.21
243.05,0.19,-0.01,0.18,-0.03,0.03,0.07,0.36,0.22,0.21,0.20
245.48,0.19,-0.02,0.19,-0.02,0.01,0.06,0.38,0.20,0.21,0.21
247.93,0.21,-0.00,0.21,0.00,-0.00,0.05,0.40,0.20,0.21,0.21
250.41,0.24,0.02,0.23,0.02,-0.02,0.04,0.42,0.22,0.21,0.22
252.92,0.26,0.04,0.25,0.04,-0.04,0.03,0.44,0.22,0.22,0.21
255.45,0.27,0.05,0.27,0.05,-0.05,0.02,0.46,0.22,0.22,0.22
258.00,0.29,0.06,0.29,0.07,-0.07,0.01,0.47,0.22,0.22,0.23
260.58,0.31,0.09,0.30,0.08,-0.08,-0.00,0.48,0.23,0.22,0.22
263.19,0.31,0.09,0.31,0.09,-0.09,-0.01,0.49,0.22,0.22,0.22
265.82,0.32,0.10,0.32,0.10,-0.09,-0.02,0.50,0.22,0.22,0.22
268.48,0.32,0.10,0.32,0.10,-0.10,-0.03,0.51,0.22,0.22,0.22
271.16,0.32,0.10,0.32,0.10,-0.10,-0.04,0.52,0.22,0.22,0.22
273.87,0.31,0.10,0.31,0.09,-0.09,-0.04,0.53,0.22,0.22,0.21
276.61,0.30,0.08,0.30,0.08,-0.08,-0.05,0.53,0.22,0.22,0.22
279.38,0.29,0.07,0.29,0.07,-0.07,-0.06,0.54,0.21,0.21,0.22
282.17,0.28,0.07,0.28,0.06,-0.06,-0.06,0.54,0.21,0.21,0.21
284.99,0.27,0.05,0.27,0.05,-0.05,-0.06,0.54,0.21,0.21,0.22
287.84,0.26,0.04,0.26,0.04,-0.04,-0.07,0.55,0.21,0.22,0.22
290.72,0.26,0.03,0.25,0.03,-0.04,-0.07,0.55,0.22,0.22,0.22
293.63,0.25,0.03,0.25,0.03,-0.03,-0.07,0.55,0.22,0.22,0.22
296.57,0.25,0.02,0.25,0.02,-0.02,-0.07,0.55,0.23,0.23,0.23
299.53,0.25,0.02,0.25,0.02,-0.01,-0.07,0.55,0.23,0.23,0.23
302.53,0.25,0.01,0.25,0.01,-0.01,-0.06,0.55,0.24,0.24,0.24
305.55,0.24,-0.00,0.24,0.00,-0.00,-0.06,0.55,0.24,0.24,0.24
308.61,0.25,-0.00,0.24,-0.01,0.01,-0.05,0.55,0.26,0.25,0.25
311.69,0.24,-0.02,0.24,-0.02,0.02,-0.05,0.55,0.25,0.26,0.26
314.81,0.25,-0.02,0.24,-0.02,0.03,-0.04,0.56,0.27,0.27,0.27
317.96,0.24,-0.04,0.24,-0.03,0.04,-0.03,0.56,0.27,0.28,0.27
321.14,0.24,-0.04,0.24,-0.04,0.05,-0.02,0.56,0.28,0.28,0.28
324.35,0.24,-0.05,0.23,-0.06,0.05,-0.00,0.56,0.29,0.29,0.29
327.59,0.23,-0.07,0.23,-0.07,0.06,0.01,0.56,0.29,0.29,0.30
330.87,0.23,-0.07,0.23,-0.07,0.07,0.03,0.56,0.30,0.30,0.30
334.18,0.23,-0.08,0.23,-0.07,0.07,0.05,0.57,0.30,0.30,0.31
337.52,0.24,-0.07,0.23,-0.08,0.07,0.07,0.57,0.31,0.30,0.31
340.90,0.23,-0.09,0.23,-0.08,0.07,0.09,0.57,0.30,0.30,0.31
344.30,0.23,-0.08,0.23,-0.08,0.07,0.11,0.58,0.30,0.31,0.31
347.75,0.23,-0.08,0.24,-0.08,0.08,0.13,0.58,0.31,0.32,0.31
351.23,0.24,-0.07,0.23,-0.08,0.10,0.15,0.59,0.34,0.33,0.31
354.74,0.22,-0.09,0.21,-0.10,0.12,0.18,0.59,0.34,0.33,0.31
358.28,0.16,-0.14,0.16,-0.14,0.16,0.20,0.60,0.31,0.32,0.30
361.87,0.10,-0.20,0.10,-0.19,0.20,0.23,0.60,0.29,0.30,0.30
365.49,0.05,-0.25,0.04,-0.25,0.24,0.25,0.61,0.29,0.29,0.30
369.14,-0.01,-0.31,-0.01,-0.30,0.29,0.28,0.62,0.28,0.28,0.29
372.83,-0.06,-0.35,-0.06,-0.36,0.35,0.31,0.63,0.28,0.29,0.29
376.56,-0.10,-0.40,-0.11,-0.40,0.40,0.34,0.64,0.30,0.29,0.30
380.33,-0.15,-0.45,-0.15,-0.45,0.45,0.36,0.64,0.30,0.30,0.30
384.13,-0.19,-0.49,-0.19,-0.50,0.49,0.39,0.65,0.30,0.30,0.30
387.97,-0.23,-0.54,-0.23,-0.54,0.54,0.42,0.66,0.30,0.31,0.31
391.85,-0.26,-0.57,-0.26,-0.57,0.57,0.45,0.67,0.31,0.31,0.31
395.77,-0.29,-0.61,-0.29,-0.61,0.61,0.47,0.68,0.32,0.32,0.32
399.73,-0.31,-0.64,-0.32,-0.64,0.64,0.50,0.70,0.33,0.33,0.33
403.72,-0.34,-0.67,-0.34,-0.67,0.67,0.53,0.71,0.33,0.33,0.33
407.76,-0.36,-0.70,-0.36,-0.70,0.69,0.55,0.72,0.33,0.33,0.34
411.84,-0.38,-0.73,-0.38,-0.72,0.72,0.58,0.73,0.33,0.34,0.35
415.96,-0.38,-0.74,-0.39,-0.74,0.73,0.61,0.74,0.35,0.35,0.35
420.12,-0.39,-0.75,-0.39,-0.75,0.75,0.63,0.75,0.36,0.36,0.35
424.32,-0.39,-0.75,-0.39,-0.75,0.76,0.66,0.77,0.37,0.37,0.36
428.56,-0.39,-0.76,-0.39,-0.77,0.77,0.68,0.78,0.38,0.38,0.37
432.85,-0.39,-0.77,-0.39,-0.77,0.78,0.70,0.79,0.39,0.39,0.38
437.18,-0.39,-0.78,-0.39,-0.78,0.78,0.73,0.80,0.39,0.39,0.39
441.55,-0.38,-0.78,-0.39,-0.79,0.78,0.75,0.82,0.40,0.39,0.40
445.96,-0.38,-0.79,-0.37,-0.78,0.78,0.77,0.83,0.39,0.40,0.41
450.42,-0.35,-0.77,-0.35,-0.77,0.77,0.79,0.84,0.42,0.41,0.42
454.93,-0.33,-0.76,-0.33,-0.76,0.76,0.81,0.85,0.43,0.43,0.43
459.48,-0.30,-0.74,-0.30,-0.74,0.75,0.83,0.86,0.45,0.44,0.44
464.07,-0.28,-0.73,-0.28,-0.73,0.73,0.85,0.87,0.45,0.45,0.45
468.71,-0.26,-0.72,-0.26,-0.72,0.72,0.87,0.88,0.46,0.46,0.46
473.40,-0.24,-0.71,-0.24,-0.71,0.71,0.89,0.89,0.47,0.47,0.47
478.13,-0.22,-0.70,-0.22,-0.70,0.71,0.90,0.90,0.48,0.48,0.48
482.91,-0.21,-0.71,-0.21,-0.70,0.70,0.92,0.91,0.49,0.50,0.50
487.74,-0.19,-0.70,-0.19,-0.70,0.70,0.94,0.91,0.51,0.51,0.51
492.62,-0.18,-0.71,-0.18,-0.71,0.71,0.95,0.92,0.53,0.53,0.53
497.55,-0.17,-0.71,-0.17,-0.71,0.71,0.97,0.93,0.54,0.54,0.54
502.52,-0.17,-0.73,-0.17,-0.73,0.72,0.98,0.93,0.55,0.56,0.56
507.55,-0.16,-0.74,-0.16,-0.74,0.74,0.99,0.93,0.57,0.57,0.58
512.62,-0.16,-0.76,-0.16,-0.75,0.75,1.01,0.94,0.59,0.59,0.60
517.75,-0.15,-0.76,-0.16,-0.77,0.77,1.02,0.94,0.61,0.61,0.61
522.93,-0.16,-0.79,-0.16,-0.78,0.78,1.03,0.94,0.62,0.63,0.63
528.16,-0.16,-0.81,-0.16,-0.80,0.80,1.04,0.94,0.64,0.64,0.64
533.44,-0.16,-0.82,-0.17,-0.82,0.82,1.05,0.94,0.66,0.66,0.65
538.77,-0.17,-0.85,-0.17,-0.84,0.84,1.06,0.94,0.67,0.67,0.67
544.16,-0.18,-0.87,-0.18,-0.86,0.87,1.07,0.94,0.68,0.69,0.68
