frequency,raw,error,smoothed,error_smoothed,equalization,parametric_eq,fixed_band_eq,equalized_raw,equalized_smoothed,target
20.00,-8.98,-13.51,-8.99,-13.52,6.00,6.42,2.84,-2.98,-2.99,4.53
20.20,-8.95,-13.48,-8.94,-13.47,6.00,6.42,2.92,-2.95,-2.94,4.53
20.40,-8.89,-13.42,-8.89,-13.42,6.00,6.42,3.00,-2.89,-2.89,4.53
20.61,-8.84,-13.37,-8.85,-13.38,6.00,6.41,3.09,-2.84,-2.85,4.53
20.81,-8.81,-13.34,-8.81,-13.34,6.00,6.41,3.17,-2.81,-2.81,4.53
21.02,-8.77,-13.30,-8.78,-13.30,6.00,6.41,3.27,-2.77,-2.78,4.53
21.23,-8.74,-13.27,-8.73,-13.26,6.00,6.41,3.36,-2.74,-2.73,4.53
21.44,-8.66,-13.19,-8.66,-13.19,6.00,6.40,3.45,-2.66,-2.66,4.53
21.66,-8.56,-13.09,-8.57,-13.10,6.00,6.40,3.55,-2.56,-2.57,4.53
21.87,-8.47,-13.00,-8.47,-12.99,6.00,6.40,3.65,-2.47,-2.47,4.53
22.09,-8.36,-12.89,-8.36,-12.89,6.00,6.40,3.76,-2.36,-2.36,4.53
22.31,-8.25,-12.78,-8.25,-12.78,6.00,6.39,3.86,-2.25,-2.25,4.53
22.54,-8.14,-12.67,-8.14,-12.67,6.00,6.39,3.97,-2.14,-2.14,4.53
22.76,-8.03,-12.56,-8.03,-12.56,6.00,6.39,4.08,-2.03,-2.03,4.52
22.99,-7.92,-12.45,-7.91,-12.44,6.00,6.39,4.20,-1.92,-1.91,4.52
23.22,-7.80,-12.33,-7.80,-12.33,6.00,6.38,4.32,-1.80,-1.80,4.52
23.45,-7.68,-12.20,-7.70,-12.22,6.00,6.38,4.44,-1.68,-1.70,4.52
23.69,-7.61,-12.14,-7.60,-12.12,6.00,6.38,4.56,-1.61,-1.60,4.52
23.92,-7.51,-12.03,-7.51,-12.03,6.00,6.37,4.69,-1.51,-1.51,4.52
24.16,-7.41,-11.93,-7.42,-11.94,6.00,6.37,4.81,-1.41,-1.42,4.52
24.40,-7.34,-11.86,-7.33,-11.85,6.00,6.37,4.94,-1.34,-1.33,4.52
24.65,-7.25,-11.77,-7.25,-11.77,6.00,6.37,5.08,-1.25,-1.25,4.52
24.89,-7.17,-11.69,-7.18,-11.70,6.00,6.36,5.21,-1.17,-1.18,4.52
25.14,-7.09,-11.61,-7.09,-11.61,6.00,6.36,5.35,-1.09,-1.09,4.52
25.39,-7.00,-11.52,-6.99,-11.51,6.00,6.35,5.48,-1.00,-0.99,4.52
25.65,-6.87,-11.39,-6.88,-11.40,6.00,6.35,5.62,-0.87,-0.88,4.52
25.91,-6.76,-11.28,-6.76,-11.28,6.00,6.35,5.76,-0.76,-0.76,4.52
26.16,-6.63,-11.15,-6.63,-11.15,6.00,6.34,5.90,-0.63,-0.63,4.52
26.43,-6.51,-11.03,-6.50,-11.02,6.00,6.34,6.03,-0.51,-0.50,4.52
26.69,-6.36,-10.88,-6.37,-10.89,6.00,6.34,6.17,-0.36,-0.37,4.52
26.96,-6.25,-10.77,-6.25,-10.76,6.00,6.33,6.31,-0.25,-0.25,4.51
27.23,-6.12,-10.64,-6.12,-10.64,6.00,6.33,6.44,-0.12,-0.12,4.51
27.50,-6.00,-10.51,-6.01,-10.52,6.00,6.32,6.57,-0.00,-0.01,4.51
27.77,-5.90,-10.41,-5.89,-10.40,6.00,6.32,6.70,0.10,0.11,4.51
28.05,-5.77,-10.28,-5.78,-10.29,6.00,6.31,6.82,0.23,0.22,4.51
28.33,-5.66,-10.17,-5.67,-10.18,6.00,6.31,6.93,0.34,0.33,4.51
28.62,-5.57,-10.08,-5.57,-10.07,6.00,6.30,7.05,0.43,0.43,4.51
28.90,-5.47,-9.98,-5.47,-9.98,6.00,6.30,7.15,0.53,0.53,4.51
29.19,-5.38,-9.89,-5.38,-9.89,6.00,6.29,7.24,0.62,0.62,4.51
29.48,-5.29,-9.80,-5.30,-9.80,6.00,6.29,7.33,0.71,0.70,4.51
29.78,-5.21,-9.72,-5.22,-9.72,6.00,6.28,7.41,0.79,0.78,4.50
30.08,-5.15,-9.66,-5.14,-9.64,6.00,6.28,7.47,0.85,0.86,4.50
30.38,-5.06,-9.57,-5.07,-9.57,6.00,6.27,7.53,0.94,0.93,4.50
30.68,-5.00,-9.50,-5.00,-9.50,6.00,6.26,7.57,1.00,1.00,4.50
30.99,-4.94,-9.44,-4.94,-9.44,6.00,6.26,7.61,1.06,1.06,4.50
31.30,-4.87,-9.37,-4.88,-9.38,6.00,6.25,7.63,1.13,1.12,4.50
31.61,-4.82,-9.32,-4.82,-9.31,6.00,6.24,7.64,1.18,1.18,4.50
31.93,-4.75,-9.25,-4.76,-9.25,6.00,6.24,7.64,1.25,1.24,4.50
32.24,-4.69,-9.18,-4.69,-9.19,6.00,6.23,7.63,1.31,1.31,4.49
32.57,-4.63,-9.12,-4.63,-9.12,6.00,6.22,7.61,1.37,1.37,4.49
32.89,-4.55,-9.04,-4.55,-9.05,6.00,6.22,7.58,1.45,1.45,4.49
33.22,-4.48,-8.97,-4.48,-8.97,6.00,6.21,7.53,1.52,1.52,4.49
33.55,-4.39,-8.88,-4.40,-8.88,6.00,6.20,7.48,1.61,1.60,4.49
33.89,-4.31,-8.80,-4.30,-8.79,6.00,6.19,7.42,1.69,1.70,4.49
34.23,-4.20,-8.69,-4.20,-8.68,6.00,6.18,7.36,1.80,1.80,4.48
34.57,-4.09,-8.57,-4.10,-8.58,6.00,6.17,7.28,1.91,1.90,4.48
34.92,-3.99,-8.47,-4.00,-8.48,6.00,6.16,7.21,2.01,2.00,4.48
35.27,-3.92,-8.40,-3.92,-8.39,6.00,6.15,7.12,2.08,2.08,4.48
35.62,-3.84,-8.32,-3.84,-8.32,6.00,6.15,7.03,2.16,2.16,4.47
35.97,-3.77,-8.24,-3.77,-8.24,6.00,6.14,6.94,2.23,2.23,4.47
36.33,-3.70,-8.17,-3.70,-8.17,6.00,6.12,6.85,2.30,2.30,4.47
36.70,-3.64,-8.11,-3.64,-8.11,6.00,6.11,6.76,2.36,2.36,4.47
37.06,-3.58,-8.05,-3.58,-8.04,6.00,6.10,6.66,2.42,2.42,4.46
37.43,-3.51,-7.97,-3.52,-7.98,6.00,6.09,6.57,2.49,2.48,4.46
37.81,-3.46,-7.92,-3.46,-7.92,6.00,6.08,6.48,2.54,2.54,4.46
38.19,-3.40,-7.86,-3.39,-7.85,6.00,6.07,6.38,2.60,2.61,4.46
38.57,-3.31,-7.77,-3.32,-7.77,6.00,6.06,6.29,2.69,2.68,4.45
38.95,-3.25,-7.70,-3.24,-7.69,6.00,6.04,6.20,2.75,2.76,4.45
39.34,-3.15,-7.60,-3.16,-7.61,6.00,6.03,6.12,2.85,2.84,4.45
39.74,-3.08,-7.53,-3.08,-7.52,6.00,6.02,6.03,2.92,2.92,4.44
40.14,-2.99,-7.43,-3.00,-7.44,6.00,6.00,5.95,3.01,3.00,4.44
40.54,-2.91,-7.35,-2.91,-7.35,6.00,5.99,5.87,3.09,3.09,4.44
40.94,-2.84,-7.27,-2.83,-7.26,6.00,5.97,5.80,3.16,3.17,4.43
41.35,-2.73,-7.16,-2.75,-7.17,6.00,5.96,5.73,3.27,3.25,4.43
41.76,-2.67,-7.10,-2.67,-7.09,6.00,5.94,5.66,3.33,3.33,4.42
42.18,-2.59,-7.01,-2.59,-7.01,6.00,5.92,5.59,3.41,3.41,4.42
42.60,-2.53,-6.95,-2.53,-6.94,6.00,5.91,5.53,3.47,3.47,4.42
43.03,-2.46,-6.87,-2.46,-6.87,6.00,5.89,5.48,3.54,3.54,4.41
43.46,-2.40,-6.81,-2.41,-6.81,6.00,5.87,5.43,3.60,3.59,4.41
43.90,-2.35,-6.75,-2.35,-6.76,6.00,5.85,5.38,3.65,3.65,4.40
44.33,-2.31,-6.71,-2.31,-6.70,6.00,5.83,5.33,3.69,3.69,4.40
44.78,-2.26,-6.65,-2.26,-6.65,6.00,5.81,5.30,3.74,3.74,4.39
45.23,-2.21,-6.60,-2.21,-6.60,6.00,5.79,5.26,3.79,3.79,4.39
45.68,-2.17,-6.55,-2.17,-6.55,6.00,5.77,5.23,3.83,3.83,4.38
46.13,-2.14,-6.52,-2.14,-6.51,6.00,5.75,5.20,3.86,3.86,4.38
46.60,-2.11,-6.48,-2.11,-6.48,6.00,5.72,5.18,3.89,3.89,4.37
47.06,-2.09,-6.45,-2.09,-6.46,6.00,5.70,5.16,3.91,3.91,4.36
47.53,-2.09,-6.45,-2.08,-6.44,6.00,5.68,5.14,3.91,3.92,4.36
48.01,-2.07,-6.42,-2.08,-6.43,6.00,5.65,5.13,3.93,3.92,4.35
48.49,-2.10,-6.44,-2.11,-6.45,6.00,5.62,5.12,3.90,3.89,4.34
48.97,-2.15,-6.49,-2.14,-6.48,6.00,5.60,5.11,3.85,3.86,4.34
49.46,-2.19,-6.52,-2.19,-6.52,6.00,5.57,5.11,3.81,3.81,4.33
49.96,-2.24,-6.56,-2.24,-6.56,6.00,5.54,5.11,3.76,3.76,4.32
50.46,-2.27,-6.58,-2.28,-6.59,6.00,5.51,5.11,3.73,3.72,4.31
50.96,-2.33,-6.64,-2.32,-6.63,6.00,5.48,5.11,3.67,3.68,4.31
51.47,-2.36,-6.66,-2.37,-6.66,6.00,5.45,5.12,3.64,3.63,4.30
51.99,-2.41,-6.70,-2.41,-6.70,6.00,5.41,5.12,3.59,3.59,4.29
52.51,-2.44,-6.72,-2.44,-6.72,6.00,5.38,5.13,3.56,3.56,4.28
53.03,-2.48,-6.75,-2.48,-6.75,6.00,5.34,5.14,3.52,3.52,4.27
53.56,-2.51,-6.77,-2.51,-6.77,6.00,5.31,5.15,3.49,3.49,4.26
54.10,-2.54,-6.79,-2.54,-6.79,6.00,5.27,5.16,3.46,3.46,4.25
54.64,-2.56,-6.80,-2.56,-6.80,6.00,5.23,5.17,3.44,3.44,4.24
55.18,-2.56,-6.79,-2.56,-6.79,6.00,5.19,5.17,3.44,3.44,4.23
55.74,-2.56,-6.78,-2.56,-6.78,6.00,5.15,5.18,3.44,3.44,4.22
56.29,-2.56,-6.77,-2.57,-6.77,6.00,5.10,5.18,3.44,3.43,4.21
56.86,-2.56,-6.76,-2.56,-6.76,6.00,5.06,5.19,3.44,3.44,4.19
57.42,-2.55,-6.73,-2.54,-6.72,6.00,5.01,5.18,3.45,3.46,4.18
58.00,-2.50,-6.67,-2.50,-6.67,6.01,4.96,5.18,3.51,3.51,4.17
58.58,-2.44,-6.60,-2.45,-6.61,6.02,4.91,5.17,3.58,3.57,4.16
59.16,-2.39,-6.53,-2.39,-6.53,6.03,4.86,5.15,3.64,3.65,4.14
59.76,-2.31,-6.44,-2.31,-6.44,6.03,4.81,5.14,3.72,3.72,4.13
60.35,-2.21,-6.33,-2.21,-6.32,6.01,4.76,5.11,3.80,3.80,4.11
60.96,-2.08,-6.18,-2.09,-6.19,5.97,4.70,5.08,3.89,3.88,4.10
61.57,-1.95,-6.04,-1.95,-6.03,5.90,4.64,5.05,3.95,3.95,4.09
62.18,-1.79,-5.86,-1.79,-5.86,5.80,4.58,5.01,4.01,4.01,4.07
62.80,-1.63,-5.68,-1.63,-5.69,5.67,4.52,4.96,4.04,4.04,4.05
63.43,-1.46,-5.50,-1.46,-5.50,5.51,4.45,4.90,4.05,4.05,4.04
64.07,-1.30,-5.32,-1.29,-5.31,5.33,4.39,4.85,4.03,4.04,4.02
64.71,-1.10,-5.10,-1.11,-5.11,5.14,4.32,4.78,4.04,4.03,4.00
65.35,-0.93,-4.91,-0.93,-4.91,4.93,4.25,4.71,4.00,4.00,3.98
66.01,-0.74,-4.71,-0.75,-4.71,4.73,4.17,4.63,3.98,3.98,3.97
66.67,-0.58,-4.53,-0.58,-4.53,4.53,4.10,4.55,3.95,3.95,3.95
67.33,-0.41,-4.34,-0.41,-4.34,4.34,4.02,4.46,3.93,3.93,3.93
68.01,-0.25,-4.16,-0.25,-4.15,4.15,3.94,4.37,3.90,3.91,3.91
68.69,-0.08,-3.97,-0.08,-3.97,3.97,3.85,4.27,3.89,3.89,3.89
69.37,0.08,-3.79,0.07,-3.79,3.79,3.77,4.17,3.87,3.87,3.86
70.07,0.22,-3.63,0.23,-3.62,3.62,3.68,4.07,3.84,3.84,3.84
70.77,0.38,-3.44,0.37,-3.45,3.45,3.59,3.96,3.82,3.82,3.82
71.48,0.51,-3.29,0.52,-3.28,3.28,3.49,3.85,3.78,3.79,3.80
72.19,0.66,-3.12,0.66,-3.11,3.11,3.39,3.74,3.77,3.77,3.77
72.91,0.82,-2.93,0.80,-2.95,2.95,3.29,3.62,3.77,3.75,3.75
73.64,0.93,-2.80,0.94,-2.78,2.79,3.19,3.51,3.72,3.73,3.73
74.38,1.08,-2.62,1.07,-2.63,2.64,3.08,3.39,3.72,3.71,3.70
75.12,1.19,-2.49,1.19,-2.48,2.48,2.98,3.27,3.67,3.68,3.68
75.87,1.32,-2.33,1.31,-2.33,2.33,2.86,3.15,3.65,3.65,3.65
76.63,1.43,-2.19,1.43,-2.20,2.18,2.75,3.03,3.61,3.61,3.62
77.40,1.54,-2.06,1.55,-2.05,2.04,2.63,2.91,3.58,3.59,3.59
78.17,1.67,-1.90,1.67,-1.90,1.89,2.51,2.79,3.56,3.56,3.57
78.95,1.80,-1.74,1.79,-1.75,1.75,2.38,2.66,3.55,3.54,3.54
79.74,1.91,-1.60,1.91,-1.60,1.61,2.26,2.54,3.51,3.52,3.51
80.54,2.02,-1.46,2.02,-1.46,1.47,2.13,2.42,3.48,3.49,3.48
81.35,2.13,-1.32,2.12,-1.32,1.33,2.00,2.30,3.46,3.45,3.45
82.16,2.22,-1.20,2.23,-1.19,1.19,1.86,2.19,3.41,3.42,3.42
82.98,2.33,-1.06,2.32,-1.07,1.06,1.73,2.07,3.39,3.38,3.39
83.81,2.41,-0.95,2.41,-0.94,0.94,1.59,1.95,3.35,3.35,3.36
84.65,2.50,-0.83,2.51,-0.82,0.81,1.45,1.83,3.31,3.32,3.32
85.50,2.61,-0.68,2.59,-0.70,0.70,1.31,1.72,3.30,3.29,3.29
86.35,2.67,-0.59,2.68,-0.58,0.58,1.16,1.60,3.25,3.26,3.26
87.22,2.75,-0.48,2.75,-0.47,0.48,1.02,1.49,3.23,3.23,3.22
88.09,2.82,-0.37,2.82,-0.37,0.38,0.88,1.37,3.20,3.20,3.19
88.97,2.88,-0.28,2.88,-0.28,0.29,0.73,1.26,3.17,3.17,3.16
89.86,2.93,-0.19,2.92,-0.20,0.21,0.59,1.15,3.14,3.13,3.12
90.76,2.95,-0.14,2.95,-0.13,0.13,0.45,1.04,3.08,3.09,3.09
91.66,2.99,-0.06,2.98,-0.07,0.07,0.31,0.93,3.05,3.05,3.05
92.58,2.99,-0.03,3.00,-0.01,0.00,0.18,0.82,2.99,3.00,3.01
93.51,3.04,0.06,3.03,0.05,-0.06,0.05,0.71,2.98,2.97,2.98
94.44,3.04,0.10,3.05,0.11,-0.12,-0.08,0.60,2.92,2.93,2.94
95.39,3.09,0.18,3.08,0.18,-0.17,-0.20,0.50,2.91,2.91,2.90
96.34,3.10,0.23,3.10,0.24,-0.23,-0.32,0.39,2.87,2.87,2.87
97.30,3.13,0.30,3.12,0.29,-0.29,-0.43,0.29,2.84,2.83,2.83
98.28,3.13,0.34,3.13,0.34,-0.35,-0.53,0.18,2.78,2.78,2.79
99.26,3.13,0.37,3.15,0.39,-0.40,-0.63,0.08,2.73,2.75,2.75
100.25,3.18,0.46,3.16,0.45,-0.45,-0.72,-0.02,2.73,2.71,2.72
101.25,3.18,0.50,3.18,0.50,-0.49,-0.80,-0.12,2.68,2.68,2.68
102.27,3.18,0.54,3.19,0.55,-0.53,-0.87,-0.21,2.64,2.65,2.64
103.29,3.18,0.58,3.18,0.58,-0.57,-0.93,-0.31,2.61,2.61,2.60
104.32,3.18,0.62,3.17,0.61,-0.61,-0.98,-0.40,2.57,2.56,2.56
105.37,3.16,0.63,3.16,0.63,-0.64,-1.03,-0.49,2.52,2.52,2.52
106.42,3.13,0.64,3.14,0.66,-0.66,-1.06,-0.58,2.46,2.48,2.49
107.48,3.13,0.68,3.13,0.68,-0.69,-1.08,-0.67,2.44,2.44,2.45
108.56,3.13,0.72,3.11,0.70,-0.71,-1.10,-0.75,2.42,2.40,2.41
109.64,3.09,0.72,3.11,0.73,-0.73,-1.11,-0.83,2.36,2.38,2.37
110.74,3.09,0.76,3.08,0.75,-0.74,-1.11,-0.91,2.35,2.34,2.33
111.85,3.07,0.77,3.06,0.76,-0.75,-1.10,-0.98,2.32,2.30,2.30
112.97,3.02,0.76,3.03,0.77,-0.76,-1.09,-1.05,2.26,2.27,2.26
114.10,2.99,0.77,2.99,0.77,-0.76,-1.07,-1.11,2.23,2.22,2.22
115.24,2.95,0.77,2.94,0.76,-0.77,-1.04,-1.17,2.18,2.18,2.18
116.39,2.90,0.75,2.91,0.76,-0.77,-1.02,-1.23,2.13,2.14,2.15
117.55,2.87,0.76,2.87,0.76,-0.77,-0.98,-1.28,2.10,2.10,2.11
118.73,2.84,0.77,2.84,0.77,-0.78,-0.95,-1.32,2.06,2.06,2.07
119.92,2.81,0.77,2.81,0.78,-0.78,-0.91,-1.36,2.03,2.03,2.04
121.12,2.81,0.81,2.80,0.79,-0.79,-0.87,-1.39,2.02,2.00,2.00
122.33,2.76,0.79,2.77,0.81,-0.80,-0.83,-1.42,1.95,1.97,1.97
123.55,2.76,0.83,2.75,0.82,-0.81,-0.78,-1.44,1.94,1.93,1.93
124.79,2.71,0.81,2.72,0.83,-0.82,-0.74,-1.45,1.89,1.90,1.90
126.03,2.70,0.84,2.69,0.83,-0.83,-0.69,-1.46,1.87,1.87,1.86
127.29,2.67,0.84,2.66,0.83,-0.83,-0.65,-1.46,1.84,1.83,1.83
128.57,2.61,0.81,2.62,0.82,-0.82,-0.60,-1.46,1.79,1.80,1.79
129.85,2.58,0.82,2.58,0.81,-0.82,-0.56,-1.44,1.76,1.76,1.76
131.15,2.53,0.80,2.53,0.80,-0.81,-0.51,-1.43,1.72,1.72,1.73
132.46,2.50,0.80,2.49,0.79,-0.80,-0.47,-1.40,1.70,1.69,1.70
133.79,2.44,0.77,2.45,0.78,-0.79,-0.42,-1.38,1.65,1.66,1.67
135.12,2.41,0.77,2.40,0.77,-0.77,-0.38,-1.34,1.63,1.63,1.64
136.48,2.36,0.75,2.36,0.76,-0.76,-0.34,-1.31,1.60,1.60,1.60
137.84,2.32,0.74,2.32,0.74,-0.74,-0.30,-1.26,1.58,1.58,1.58
139.22,2.27,0.72,2.27,0.72,-0.71,-0.26,-1.22,1.55,1.55,1.55
140.61,2.22,0.70,2.21,0.69,-0.68,-0.22,-1.17,1.54,1.53,1.52
142.02,2.14,0.65,2.14,0.65,-0.65,-0.18,-1.11,1.49,1.50,1.49
143.44,2.06,0.60,2.06,0.60,-0.60,-0.14,-1.05,1.46,1.46,1.46
144.87,1.99,0.55,1.98,0.55,-0.55,-0.11,-0.99,1.44,1.43,1.43
146.32,1.90,0.49,1.90,0.49,-0.49,-0.07,-0.93,1.40,1.41,1.41
147.78,1.82,0.44,1.82,0.43,-0.43,-0.03,-0.86,1.38,1.38,1.38
149.26,1.72,0.36,1.72,0.37,-0.37,0.00,-0.80,1.35,1.35,1.36
150.75,1.65,0.32,1.64,0.31,-0.31,0.03,-0.73,1.34,1.33,1.33
152.26,1.54,0.23,1.55,0.24,-0.25,0.07,-0.65,1.29,1.30,1.31
153.78,1.48,0.19,1.47,0.18,-0.18,0.10,-0.58,1.30,1.29,1.28
155.32,1.37,0.11,1.38,0.12,-0.12,0.13,-0.50,1.25,1.26,1.26
156.88,1.31,0.07,1.30,0.06,-0.06,0.17,-0.43,1.25,1.24,1.24
158.44,1.20,-0.02,1.21,-0.01,0.01,0.20,-0.35,1.20,1.21,1.22
160.03,1.14,-0.06,1.13,-0.07,0.07,0.23,-0.27,1.21,1.19,1.20
161.63,1.03,-0.15,1.04,-0.13,0.13,0.26,-0.19,1.16,1.17,1.17
163.24,0.97,-0.19,0.97,-0.19,0.19,0.30,-0.11,1.16,1.16,1.15
164.88,0.90,-0.24,0.89,-0.25,0.25,0.33,-0.03,1.15,1.13,1.13
166.53,0.80,-0.32,0.81,-0.31,0.31,0.36,0.05,1.11,1.12,1.12
168.19,0.73,-0.37,0.73,-0.37,0.37,0.39,0.13,1.10,1.10,1.10
169.87,0.65,-0.43,0.65,-0.43,0.42,0.43,0.21,1.07,1.08,1.08
171.57,0.59,-0.47,0.58,-0.48,0.48,0.46,0.29,1.07,1.06,1.06
173.29,0.51,-0.54,0.51,-0.54,0.54,0.50,0.37,1.04,1.04,1.04
175.02,0.43,-0.60,0.43,-0.59,0.59,0.53,0.46,1.02,1.02,1.03
176.77,0.36,-0.65,0.36,-0.65,0.64,0.57,0.54,1.00,1.00,1.01
178.54,0.30,-0.70,0.30,-0.70,0.70,0.61,0.62,1.00,0.99,1.00
180.32,0.23,-0.75,0.23,-0.75,0.75,0.65,0.71,0.98,0.98,0.98
182.13,0.17,-0.80,0.16,-0.80,0.81,0.69,0.79,0.98,0.97,0.96
183.95,0.09,-0.86,0.09,-0.86,0.86,0.73,0.88,0.95,0.95,0.95
185.79,0.01,-0.93,0.01,-0.92,0.92,0.77,0.96,0.93,0.94,0.94
187.65,-0.06,-0.98,-0.06,-0.99,0.99,0.82,1.05,0.92,0.92,0.92
189.52,-0.14,-1.05,-0.14,-1.05,1.05,0.87,1.13,0.91,0.91,0.91
191.42,-0.22,-1.12,-0.22,-1.12,1.12,0.91,1.22,0.90,0.90,0.90
193.33,-0.30,-1.19,-0.31,-1.19,1.19,0.97,1.30,0.89,0.89,0.88
195.27,-0.39,-1.26,-0.39,-1.26,1.27,1.02,1.39,0.88,0.88,0.87
197.22,-0.48,-1.34,-0.48,-1.34,1.34,1.07,1.47,0.86,0.86,0.86
199.19,-0.56,-1.41,-0.57,-1.42,1.42,1.13,1.56,0.86,0.85,0.85
201.18,-0.67,-1.51,-0.66,-1.50,1.50,1.19,1.64,0.82,0.84,0.84
203.19,-0.73,-1.56,-0.75,-1.58,1.57,1.25,1.72,0.84,0.83,0.83
205.23,-0.84,-1.66,-0.83,-1.65,1.65,1.32,1.81,0.81,0.82,0.82
207.28,-0.91,-1.72,-0.91,-1.72,1.72,1.39,1.89,0.81,0.81,0.81
209.35,-0.99,-1.79,-1.00,-1.80,1.79,1.46,1.97,0.80,0.80,0.80
211.44,-1.07,-1.86,-1.07,-1.86,1.86,1.54,2.05,0.79,0.79,0.79
213.56,-1.15,-1.93,-1.15,-1.93,1.93,1.62,2.13,0.77,0.78,0.78
215.69,-1.22,-1.99,-1.22,-1.99,1.99,1.70,2.21,0.77,0.77,0.77
217.85,-1.28,-2.05,-1.28,-2.05,2.05,1.79,2.28,0.77,0.76,0.76
220.03,-1.34,-2.10,-1.35,-2.10,2.10,1.88,2.35,0.76,0.76,0.76
222.23,-1.41,-2.16,-1.41,-2.16,2.16,1.97,2.42,0.75,0.75,0.75
224.45,-1.47,-2.21,-1.47,-2.21,2.22,2.07,2.49,0.74,0.74,0.74
226.70,-1.53,-2.27,-1.54,-2.27,2.27,2.17,2.55,0.74,0.73,0.73
228.96,-1.60,-2.33,-1.60,-2.33,2.32,2.27,2.62,0.72,0.73,0.73
231.25,-1.66,-2.38,-1.66,-2.38,2.38,2.37,2.67,0.72,0.72,0.72
233.57,-1.72,-2.44,-1.72,-2.44,2.43,2.48,2.73,0.71,0.71,0.71
235.90,-1.78,-2.49,-1.78,-2.49,2.49,2.58,2.77,0.71,0.71,0.71
238.26,-1.83,-2.53,-1.84,-2.54,2.54,2.69,2.82,0.71,0.70,0.70
240.64,-1.90,-2.60,-1.90,-2.60,2.60,2.80,2.86,0.70,0.70,0.70
243.05,-1.97,-2.66,-1.96,-2.65,2.65,2.91,2.89,0.68,0.69,0.69
245.48,-2.02,-2.71,-2.03,-2.71,2.71,3.01,2.92,0.69,0.68,0.68
247.93,-2.08,-2.76,-2.09,-2.77,2.77,3.11,2.95,0.68,0.68,0.68
250.41,-2.15,-2.83,-2.15,-2.82,2.82,3.20,2.97,0.67,0.68,0.67
252.92,-2.21,-2.88,-2.21,-2.88,2.88,3.28,2.98,0.67,0.67,0.67
255.45,-2.27,-2.94,-2.27,-2.94,2.94,3.36,2.99,0.67,0.67,0.66
258.00,-2.34,-3.00,-2.34,-3.00,3.00,3.42,3.00,0.66,0.66,0.66
260.58,-2.40,-3.06,-2.40,-3.06,3.06,3.48,3.00,0.66,0.65,0.66
263.19,-2.47,-3.12,-2.47,-3.12,3.12,3.52,2.99,0.65,0.65,0.65
265.82,-2.53,-3.18,-2.53,-3.18,3.18,3.55,2.98,0.65,0.65,0.65
268.48,-2.59,-3.24,-2.60,-3.24,3.24,3.56,2.97,0.65,0.65,0.64
271.16,-2.66,-3.30,-2.66,-3.30,3.30,3.56,2.96,0.64,0.65,0.64
273.87,-2.72,-3.36,-2.72,-3.36,3.37,3.55,2.94,0.64,0.64,0.64
276.61,-2.78,-3.41,-2.79,-3.42,3.43,3.53,2.91,0.64,0.64,0.63
279.38,-2.86,-3.49,-2.85,-3.48,3.49,3.49,2.89,0.62,0.63,0.63
282.17,-2.91,-3.54,-2.91,-3.54,3.54,3.44,2.86,0.63,0.63,0.63
284.99,-2.96,-3.58,-2.96,-3.58,3.59,3.39,2.83,0.63,0.63,0.62
287.84,-2.99,-3.61,-3.00,-3.62,3.62,3.32,2.79,0.63,0.62,0.62
290.72,-3.02,-3.64,-3.03,-3.65,3.65,3.25,2.76,0.63,0.62,0.62
293.63,-3.07,-3.69,-3.05,-3.66,3.66,3.18,2.72,0.58,0.61,0.61
296.57,-3.03,-3.64,-3.04,-3.65,3.64,3.10,2.69,0.61,0.60,0.61
299.53,-3.00,-3.61,-3.00,-3.61,3.61,3.02,2.65,0.61,0.61,0.61
302.53,-2.94,-3.55,-2.94,-3.54,3.55,2.94,2.61,0.61,0.61,0.61
305.55,-2.85,-3.46,-2.86,-3.46,3.46,2.86,2.58,0.61,0.60,0.60
308.61,-2.75,-3.35,-2.75,-3.35,3.33,2.78,2.54,0.58,0.58,0.60
311.69,-2.60,-3.20,-2.60,-3.20,3.16,2.71,2.50,0.56,0.56,0.60
314.81,-2.42,-3.02,-2.42,-3.01,2.97,2.63,2.47,0.54,0.55,0.60
317.96,-2.19,-2.79,-2.19,-2.78,2.74,2.56,2.43,0.55,0.55,0.59
321.14,-1.92,-2.51,-1.93,-2.52,2.49,2.49,2.40,0.57,0.56,0.59
324.35,-1.65,-2.24,-1.65,-2.24,2.23,2.42,2.36,0.58,0.58,0.59
327.59,-1.37,-1.96,-1.37,-1.96,1.97,2.36,2.33,0.60,0.60,0.59
330.87,-1.11,-1.70,-1.12,-1.71,1.74,2.31,2.30,0.63,0.62,0.59
334.18,-0.90,-1.49,-0.90,-1.49,1.54,2.25,2.27,0.64,0.63,0.59
337.52,-0.74,-1.33,-0.74,-1.32,1.38,2.20,2.24,0.64,0.65,0.58
340.90,-0.63,-1.21,-0.63,-1.21,1.28,2.15,2.22,0.64,0.64,0.58
344.30,-0.57,-1.15,-0.60,-1.18,1.22,2.11,2.19,0.65,0.62,0.58
347.75,-0.62,-1.20,-0.61,-1.19,1.21,2.07,2.17,0.58,0.59,0.58
351.23,-0.68,-1.26,-0.67,-1.25,1.23,2.03,2.15,0.55,0.56,0.58
354.74,-0.74,-1.32,-0.74,-1.32,1.29,2.00,2.13,0.55,0.55,0.58
358.28,-0.81,-1.39,-0.81,-1.39,1.37,1.97,2.11,0.56,0.56,0.57
361.87,-0.89,-1.47,-0.89,-1.47,1.46,1.94,2.09,0.57,0.57,0.57
365.49,-0.98,-1.55,-0.98,-1.55,1.55,1.92,2.08,0.57,0.57,0.57
369.14,-1.06,-1.63,-1.07,-1.64,1.63,1.90,2.06,0.57,0.56,0.57
372.83,-1.16,-1.73,-1.16,-1.73,1.70,1.88,2.05,0.54,0.55,0.57
376.56,-1.23,-1.80,-1.22,-1.79,1.77,1.86,2.04,0.54,0.55,0.57
380.33,-1.27,-1.84,-1.27,-1.84,1.83,1.85,2.03,0.56,0.56,0.57
384.13,-1.30,-1.87,-1.31,-1.88,1.88,1.84,2.03,0.58,0.57,0.57
387.97,-1.34,-1.91,-1.34,-1.91,1.92,1.83,2.02,0.58,0.57,0.57
391.85,-1.39,-1.96,-1.38,-1.94,1.95,1.82,2.02,0.56,0.57,0.56
395.77,-1.40,-1.97,-1.41,-1.98,1.98,1.81,2.02,0.58,0.57,0.56
399.73,-1.44,-2.00,-1.44,-2.00,2.00,1.81,2.01,0.56,0.56,0.56
403.72,-1.46,-2.02,-1.46,-2.02,2.02,1.81,2.01,0.56,0.57,0.56
407.76,-1.48,-2.04,-1.48,-2.04,2.04,1.81,2.01,0.56,0.56,0.56
411.84,-1.48,-2.04,-1.50,-2.06,2.06,1.81,2.02,0.58,0.56,0.56
415.96,-1.53,-2.09,-1.52,-2.08,2.07,1.81,2.02,0.54,0.55,0.56
420.12,-1.53,-2.09,-1.53,-2.09,2.08,1.81,2.02,0.55,0.56,0.56
424.32,-1.53,-2.09,-1.54,-2.10,2.10,1.81,2.02,0.56,0.56,0.56
428.56,-1.53,-2.09,-1.54,-2.09,2.11,1.82,2.03,0.57,0.57,0.56
432.85,-1.55,-2.11,-1.55,-2.10,2.11,1.83,2.03,0.56,0.57,0.56
437.18,-1.55,-2.11,-1.56,-2.12,2.12,1.83,2.04,0.57,0.56,0.56
441.55,-1.58,-2.14,-1.58,-2.13,2.12,1.84,2.04,0.54,0.55,0.56
445.96,-1.58,-2.14,-1.58,-2.13,2.12,1.85,2.05,0.54,0.54,0.55
450.42,-1.58,-2.14,-1.57,-2.13,2.12,1.85,2.05,0.54,0.55,0.55
454.93,-1.55,-2.11,-1.56,-2.12,2.12,1.86,2.05,0.57,0.56,0.55
459.48,-1.55,-2.10,-1.55,-2.11,2.11,1.87,2.06,0.56,0.56,0.55
464.07,-1.55,-2.10,-1.54,-2.10,2.10,1.88,2.06,0.55,0.56,0.55
468.71,-1.53,-2.08,-1.54,-2.09,2.09,1.89,2.06,0.55,0.55,0.55
473.40,-1.53,-2.08,-1.52,-2.07,2.07,1.90,2.06,0.54,0.55,0.55
478.13,-1.50,-2.05,-1.51,-2.06,2.05,1.91,2.06,0.55,0.55,0.55
482.91,-1.48,-2.03,-1.49,-2.04,2.04,1.92,2.05,0.56,0.55,0.55
487.74,-1.48,-2.03,-1.47,-2.02,2.02,1.92,2.05,0.54,0.56,0.55
492.62,-1.44,-1.99,-1.45,-2.00,2.01,1.93,2.04,0.57,0.56,0.55
497.55,-1.44,-1.99,-1.44,-1.99,2.00,1.94,2.04,0.56,0.56,0.55
502.52,-1.44,-1.99,-1.44,-1.99,2.00,1.94,2.03,0.56,0.56,0.55
507.55,-1.44,-1.99,-1.44,-1.99,1.99,1.95,2.02,0.55,0.55,0.55
512.62,-1.44,-1.99,-1.44,-1.99,1.99,1.96,2.01,0.54,0.54,0.55
517.75,-1.44,-1.99,-1.44,-1.99,1.98,1.96,1.99,0.54,0.54,0.55
