frequency,raw,error,smoothed,error_smoothed,equalization,parametric_eq,fixed_band_eq,equalized_raw,equalized_smoothed,target
20.00,1.34,1.65,1.34,1.65,-1.65,-1.16,-0.66,-0.31,-0.31,-0.31
20.20,1.37,1.69,1.36,1.68,-1.68,-1.16,-0.68,-0.31,-0.32,-0.32
20.40,1.38,1.70,1.38,1.71,-1.71,-1.16,-0.70,-0.33,-0.32,-0.32
20.61,1.41,1.74,1.41,1.73,-1.73,-1.16,-0.72,-0.33,-0.33,-0.33
20.81,1.43,1.76,1.43,1.76,-1.76,-1.16,-0.74,-0.34,-0.34,-0.33
21.02,1.45,1.78,1.45,1.79,-1.79,-1.16,-0.77,-0.35,-0.35,-0.33
21.23,1.47,1.82,1.47,1.82,-1.83,-1.16,-0.79,-0.36,-0.36,-0.35
21.44,1.49,1.86,1.48,1.86,-1.86,-1.16,-0.81,-0.37,-0.37,-0.37
21.66,1.50,1.89,1.50,1.90,-1.89,-1.15,-0.84,-0.39,-0.39,-0.39
21.87,1.51,1.93,1.51,1.93,-1.93,-1.15,-0.86,-0.42,-0.42,-0.42
22.09,1.52,1.96,1.52,1.96,-1.96,-1.15,-0.89,-0.44,-0.44,-0.44
22.31,1.53,1.99,1.53,1.99,-2.00,-1.15,-0.92,-0.47,-0.47,-0.47
22.54,1.53,2.02,1.53,2.03,-2.03,-1.15,-0.94,-0.50,-0.50,-0.49
22.76,1.54,2.06,1.53,2.06,-2.06,-1.15,-0.97,-0.52,-0.53,-0.53
22.99,1.54,2.09,1.54,2.09,-2.09,-1.15,-1.00,-0.55,-0.55,-0.56
23.22,1.53,2.11,1.54,2.12,-2.11,-1.15,-1.03,-0.59,-0.58,-0.59
23.45,1.54,2.14,1.53,2.14,-2.13,-1.15,-1.06,-0.60,-0.60,-0.61
23.69,1.53,2.15,1.53,2.16,-2.15,-1.15,-1.09,-0.62,-0.62,-0.63
23.92,1.52,2.17,1.52,2.16,-2.16,-1.15,-1.12,-0.64,-0.64,-0.65
24.16,1.51,2.17,1.50,2.17,-2.17,-1.15,-1.15,-0.66,-0.66,-0.66
24.40,1.49,2.17,1.49,2.17,-2.17,-1.15,-1.18,-0.69,-0.69,-0.68
24.65,1.47,2.17,1.47,2.17,-2.18,-1.15,-1.21,-0.71,-0.70,-0.70
24.89,1.46,2.18,1.45,2.18,-2.18,-1.15,-1.25,-0.72,-0.72,-0.72
25.14,1.44,2.18,1.44,2.18,-2.18,-1.15,-1.28,-0.74,-0.74,-0.74
25.39,1.42,2.18,1.42,2.18,-2.18,-1.15,-1.31,-0.76,-0.76,-0.76
25.65,1.40,2.17,1.40,2.18,-2.18,-1.14,-1.34,-0.78,-0.78,-0.77
25.91,1.38,2.18,1.38,2.18,-2.17,-1.14,-1.38,-0.79,-0.79,-0.80
26.16,1.36,2.17,1.35,2.17,-2.17,-1.14,-1.41,-0.81,-0.81,-0.81
26.43,1.33,2.16,1.33,2.16,-2.16,-1.14,-1.44,-0.83,-0.83,-0.83
26.69,1.30,2.14,1.30,2.15,-2.15,-1.14,-1.47,-0.85,-0.85,-0.85
26.96,1.27,2.13,1.27,2.13,-2.13,-1.14,-1.50,-0.87,-0.87,-0.87
27.23,1.24,2.11,1.23,2.11,-2.12,-1.14,-1.53,-0.88,-0.89,-0.88
27.50,1.20,2.10,1.20,2.10,-2.10,-1.14,-1.56,-0.91,-0.90,-0.90
27.77,1.17,2.09,1.17,2.08,-2.09,-1.13,-1.59,-0.92,-0.92,-0.92
28.05,1.14,2.07,1.13,2.07,-2.07,-1.13,-1.62,-0.93,-0.93,-0.93
28.33,1.10,2.06,1.10,2.05,-2.04,-1.13,-1.64,-0.95,-0.94,-0.96
28.62,1.06,2.03,1.06,2.03,-2.02,-1.13,-1.66,-0.96,-0.96,-0.97
28.90,1.02,1.99,1.01,1.99,-1.99,-1.13,-1.69,-0.97,-0.98,-0.97
29.19,0.97,1.96,0.97,1.96,-1.96,-1.13,-1.71,-1.00,-0.99,-0.99
29.48,0.93,1.92,0.93,1.93,-1.93,-1.12,-1.72,-1.01,-1.00,-0.99
29.78,0.89,1.90,0.88,1.90,-1.90,-1.12,-1.74,-1.01,-1.02,-1.02
30.08,0.84,1.87,0.84,1.87,-1.87,-1.12,-1.75,-1.03,-1.03,-1.03
30.38,0.79,1.84,0.79,1.84,-1.84,-1.12,-1.76,-1.05,-1.05,-1.05
30.68,0.75,1.82,0.74,1.81,-1.81,-1.11,-1.77,-1.06,-1.07,-1.07
30.99,0.70,1.79,0.70,1.78,-1.78,-1.11,-1.77,-1.08,-1.09,-1.09
31.30,0.65,1.75,0.65,1.75,-1.76,-1.11,-1.78,-1.11,-1.10,-1.10
31.61,0.61,1.72,0.60,1.73,-1.73,-1.10,-1.78,-1.12,-1.12,-1.11
31.93,0.56,1.70,0.56,1.70,-1.70,-1.10,-1.77,-1.14,-1.14,-1.14
32.24,0.51,1.67,0.51,1.67,-1.67,-1.10,-1.77,-1.16,-1.16,-1.17
32.57,0.46,1.65,0.46,1.64,-1.64,-1.09,-1.76,-1.18,-1.18,-1.19
32.89,0.41,1.61,0.41,1.61,-1.61,-1.09,-1.75,-1.21,-1.20,-1.20
33.22,0.36,1.59,0.36,1.58,-1.58,-1.08,-1.74,-1.23,-1.22,-1.23
33.55,0.31,1.55,0.30,1.55,-1.55,-1.08,-1.72,-1.24,-1.25,-1.24
33.89,0.25,1.52,0.25,1.52,-1.52,-1.07,-1.70,-1.27,-1.27,-1.28
34.23,0.19,1.48,0.19,1.48,-1.49,-1.06,-1.69,-1.30,-1.29,-1.29
34.57,0.14,1.46,0.14,1.45,-1.45,-1.06,-1.66,-1.31,-1.32,-1.32
34.92,0.08,1.42,0.08,1.42,-1.42,-1.05,-1.64,-1.34,-1.34,-1.34
35.27,0.03,1.38,0.02,1.38,-1.38,-1.04,-1.62,-1.35,-1.36,-1.35
35.62,-0.03,1.34,-0.03,1.35,-1.35,-1.03,-1.59,-1.38,-1.38,-1.38
35.97,-0.09,1.32,-0.09,1.31,-1.31,-1.02,-1.57,-1.40,-1.40,-1.41
36.33,-0.14,1.28,-0.15,1.28,-1.28,-1.01,-1.54,-1.42,-1.42,-1.42
36.70,-0.21,1.23,-0.21,1.24,-1.24,-1.00,-1.51,-1.45,-1.45,-1.44
37.06,-0.27,1.20,-0.27,1.20,-1.20,-0.99,-1.48,-1.47,-1.47,-1.48
37.43,-0.33,1.16,-0.33,1.16,-1.16,-0.98,-1.45,-1.49,-1.49,-1.49
37.81,-0.39,1.12,-0.39,1.12,-1.12,-0.97,-1.42,-1.51,-1.51,-1.51
38.19,-0.45,1.08,-0.46,1.07,-1.07,-0.95,-1.39,-1.53,-1.53,-1.53
38.57,-0.52,1.02,-0.52,1.03,-1.03,-0.93,-1.37,-1.55,-1.55,-1.55
38.95,-0.59,0.98,-0.59,0.98,-0.98,-0.92,-1.34,-1.58,-1.58,-1.57
39.34,-0.66,0.93,-0.66,0.93,-0.94,-0.90,-1.31,-1.60,-1.60,-1.59
39.74,-0.73,0.89,-0.73,0.89,-0.89,-0.87,-1.28,-1.62,-1.62,-1.63
40.14,-0.80,0.84,-0.80,0.84,-0.84,-0.85,-1.25,-1.64,-1.64,-1.64
40.54,-0.88,0.78,-0.88,0.78,-0.78,-0.83,-1.22,-1.66,-1.66,-1.66
40.94,-0.95,0.72,-0.95,0.73,-0.72,-0.80,-1.19,-1.68,-1.68,-1.68
41.35,-1.03,0.67,-1.03,0.67,-0.66,-0.77,-1.17,-1.70,-1.70,-1.70
41.76,-1.11,0.60,-1.11,0.60,-0.60,-0.73,-1.14,-1.71,-1.71,-1.72
42.18,-1.19,0.54,-1.20,0.54,-0.54,-0.69,-1.11,-1.73,-1.73,-1.73
42.60,-1.28,0.47,-1.28,0.46,-0.47,-0.65,-1.09,-1.75,-1.75,-1.75
43.03,-1.37,0.39,-1.37,0.39,-0.40,-0.61,-1.06,-1.77,-1.77,-1.76
43.46,-1.47,0.31,-1.46,0.32,-0.33,-0.56,-1.04,-1.80,-1.79,-1.78
43.90,-1.55,0.27,-1.56,0.25,-0.25,-0.50,-1.02,-1.81,-1.81,-1.82
44.33,-1.65,0.19,-1.66,0.18,-0.18,-0.44,-0.99,-1.83,-1.83,-1.84
44.78,-1.76,0.10,-1.76,0.11,-0.10,-0.38,-0.97,-1.86,-1.85,-1.86
45.23,-1.86,0.02,-1.86,0.02,-0.02,-0.31,-0.95,-1.88,-1.88,-1.88
45.68,-1.96,-0.06,-1.96,-0.06,0.07,-0.23,-0.93,-1.89,-1.90,-1.90
46.13,-2.06,-0.14,-2.07,-0.15,0.15,-0.15,-0.91,-1.91,-1.91,-1.92
46.60,-2.17,-0.24,-2.17,-0.24,0.24,-0.07,-0.89,-1.93,-1.93,-1.93
47.06,-2.27,-0.33,-2.27,-0.32,0.32,0.02,-0.87,-1.95,-1.95,-1.95
47.53,-2.36,-0.40,-2.37,-0.40,0.40,0.11,-0.86,-1.96,-1.97,-1.96
48.01,-2.46,-0.48,-2.46,-0.48,0.47,0.19,-0.84,-1.99,-1.99,-1.98
48.49,-2.54,-0.54,-2.55,-0.54,0.54,0.28,-0.83,-2.01,-2.01,-2.01
48.97,-2.63,-0.60,-2.63,-0.59,0.59,0.35,-0.81,-2.04,-2.04,-2.03
49.46,-2.69,-0.63,-2.69,-0.63,0.63,0.41,-0.80,-2.06,-2.06,-2.06
49.96,-2.75,-0.66,-2.75,-0.67,0.66,0.46,-0.78,-2.09,-2.09,-2.09
50.46,-2.79,-0.69,-2.79,-0.68,0.68,0.49,-0.77,-2.11,-2.11,-2.11
50.96,-2.82,-0.70,-2.82,-0.69,0.69,0.50,-0.76,-2.13,-2.13,-2.13
51.47,-2.83,-0.68,-2.84,-0.69,0.68,0.48,-0.75,-2.15,-2.15,-2.15
51.99,-2.84,-0.67,-2.84,-0.67,0.66,0.45,-0.74,-2.18,-2.17,-2.17
52.51,-2.82,-0.64,-2.83,-0.64,0.63,0.40,-0.73,-2.19,-2.19,-2.18
53.03,-2.80,-0.60,-2.80,-0.60,0.59,0.33,-0.72,-2.21,-2.21,-2.20
53.56,-2.76,-0.53,-2.76,-0.54,0.53,0.25,-0.71,-2.23,-2.23,-2.23
54.10,-2.71,-0.46,-2.72,-0.47,0.47,0.16,-0.71,-2.25,-2.25,-2.25
54.64,-2.66,-0.39,-2.66,-0.39,0.39,0.06,-0.70,-2.27,-2.27,-2.27
55.18,-2.60,-0.31,-2.60,-0.31,0.31,-0.03,-0.70,-2.29,-2.29,-2.29
55.74,-2.53,-0.22,-2.53,-0.22,0.22,-0.13,-0.69,-2.31,-2.31,-2.31
56.29,-2.46,-0.13,-2.46,-0.13,0.13,-0.22,-0.69,-2.33,-2.33,-2.33
56.86,-2.38,-0.03,-2.39,-0.03,0.04,-0.30,-0.69,-2.35,-2.35,-2.36
57.42,-2.31,0.07,-2.31,0.06,-0.06,-0.39,-0.69,-2.37,-2.37,-2.38
58.00,-2.23,0.16,-2.23,0.16,-0.15,-0.46,-0.69,-2.38,-2.38,-2.39
58.58,-2.16,0.24,-2.16,0.24,-0.24,-0.54,-0.69,-2.41,-2.40,-2.40
59.16,-2.08,0.34,-2.08,0.34,-0.34,-0.60,-0.69,-2.42,-2.42,-2.42
59.76,-2.01,0.43,-2.01,0.43,-0.43,-0.67,-0.69,-2.45,-2.44,-2.44
60.35,-1.93,0.53,-1.94,0.52,-0.53,-0.72,-0.70,-2.46,-2.47,-2.47
60.96,-1.87,0.61,-1.87,0.62,-0.62,-0.78,-0.70,-2.50,-2.49,-2.48
61.57,-1.79,0.72,-1.79,0.72,-0.72,-0.83,-0.71,-2.51,-2.51,-2.52
62.18,-1.72,0.82,-1.72,0.82,-0.81,-0.87,-0.71,-2.53,-2.53,-2.54
62.80,-1.64,0.91,-1.65,0.91,-0.91,-0.92,-0.72,-2.55,-2.55,-2.56
63.43,-1.58,1.00,-1.58,1.00,-1.00,-0.96,-0.73,-2.58,-2.58,-2.58
64.07,-1.51,1.09,-1.51,1.09,-1.09,-0.99,-0.74,-2.60,-2.60,-2.60
64.71,-1.44,1.18,-1.45,1.17,-1.18,-1.03,-0.76,-2.62,-2.62,-2.62
65.35,-1.38,1.25,-1.38,1.26,-1.26,-1.06,-0.77,-2.64,-2.64,-2.64
66.01,-1.31,1.34,-1.31,1.34,-1.35,-1.09,-0.78,-2.66,-2.66,-2.65
66.67,-1.24,1.43,-1.24,1.43,-1.43,-1.12,-0.80,-2.68,-2.68,-2.67
67.33,-1.17,1.52,-1.18,1.52,-1.52,-1.15,-0.82,-2.69,-2.69,-2.69
68.01,-1.11,1.60,-1.11,1.60,-1.60,-1.18,-0.83,-2.71,-2.71,-2.71
68.69,-1.05,1.68,-1.05,1.68,-1.68,-1.20,-0.85,-2.73,-2.73,-2.73
69.37,-0.99,1.76,-0.99,1.76,-1.76,-1.23,-0.87,-2.75,-2.76,-2.76
70.07,-0.94,1.83,-0.94,1.84,-1.84,-1.25,-0.89,-2.78,-2.78,-2.78
70.77,-0.88,1.91,-0.88,1.91,-1.91,-1.28,-0.92,-2.79,-2.80,-2.79
71.48,-0.83,1.98,-0.83,1.98,-1.98,-1.30,-0.94,-2.81,-2.82,-2.81
72.19,-0.79,2.04,-0.79,2.05,-2.05,-1.33,-0.96,-2.84,-2.84,-2.84
72.91,-0.75,2.12,-0.75,2.11,-2.11,-1.35,-0.99,-2.86,-2.86,-2.87
73.64,-0.72,2.17,-0.72,2.17,-2.17,-1.37,-1.02,-2.89,-2.89,-2.89
74.38,-0.69,2.22,-0.69,2.22,-2.22,-1.39,-1.05,-2.91,-2.91,-2.91
75.12,-0.67,2.26,-0.67,2.26,-2.26,-1.42,-1.07,-2.93,-2.93,-2.94
75.87,-0.65,2.31,-0.66,2.30,-2.30,-1.44,-1.11,-2.95,-2.96,-2.96
76.63,-0.65,2.33,-0.65,2.33,-2.33,-1.46,-1.14,-2.99,-2.98,-2.98
77.40,-0.65,2.35,-0.65,2.36,-2.36,-1.49,-1.17,-3.01,-3.01,-3.01
78.17,-0.65,2.39,-0.65,2.38,-2.38,-1.51,-1.20,-3.03,-3.03,-3.04
78.95,-0.65,2.41,-0.66,2.40,-2.40,-1.54,-1.24,-3.05,-3.06,-3.06
79.74,-0.67,2.41,-0.67,2.41,-2.42,-1.56,-1.28,-3.09,-3.09,-3.08
80.54,-0.69,2.42,-0.69,2.42,-2.43,-1.59,-1.31,-3.12,-3.12,-3.11
81.35,-0.70,2.44,-0.71,2.43,-2.44,-1.61,-1.35,-3.14,-3.14,-3.14
82.16,-0.72,2.45,-0.72,2.45,-2.45,-1.64,-1.39,-3.17,-3.17,-3.17
82.98,-0.74,2.45,-0.74,2.46,-2.45,-1.67,-1.44,-3.20,-3.20,-3.19
83.81,-0.76,2.47,-0.77,2.46,-2.46,-1.70,-1.48,-3.22,-3.23,-3.23
84.65,-0.80,2.46,-0.79,2.47,-2.47,-1.73,-1.52,-3.27,-3.26,-3.27
85.50,-0.82,2.47,-0.82,2.47,-2.47,-1.76,-1.57,-3.29,-3.30,-3.29
86.35,-0.84,2.48,-0.85,2.47,-2.48,-1.79,-1.62,-3.32,-3.33,-3.32
87.22,-0.88,2.47,-0.87,2.48,-2.48,-1.83,-1.67,-3.36,-3.35,-3.36
88.09,-0.89,2.50,-0.90,2.49,-2.49,-1.86,-1.72,-3.38,-3.38,-3.39
88.97,-0.92,2.49,-0.93,2.49,-2.49,-1.90,-1.77,-3.41,-3.42,-3.41
89.86,-0.95,2.49,-0.95,2.50,-2.50,-1.93,-1.82,-3.45,-3.45,-3.44
90.76,-0.98,2.50,-0.98,2.50,-2.50,-1.97,-1.87,-3.48,-3.48,-3.48
91.66,-1.00,2.51,-1.01,2.51,-2.51,-2.01,-1.93,-3.51,-3.52,-3.51
92.58,-1.03,2.52,-1.03,2.52,-2.52,-2.05,-1.98,-3.55,-3.55,-3.56
93.51,-1.05,2.52,-1.05,2.53,-2.53,-2.10,-2.04,-3.58,-3.58,-3.57
94.44,-1.07,2.54,-1.07,2.54,-2.54,-2.14,-2.10,-3.61,-3.62,-3.61
95.39,-1.09,2.55,-1.10,2.55,-2.56,-2.19,-2.16,-3.65,-3.65,-3.65
96.34,-1.12,2.57,-1.12,2.57,-2.57,-2.23,-2.22,-3.69,-3.69,-3.69
97.30,-1.14,2.59,-1.14,2.59,-2.58,-2.28,-2.28,-3.73,-3.73,-3.73
98.28,-1.16,2.61,-1.17,2.60,-2.60,-2.33,-2.35,-3.76,-3.77,-3.77
99.26,-1.19,2.61,-1.19,2.62,-2.62,-2.38,-2.41,-3.81,-3.81,-3.81
100.25,-1.21,2.63,-1.21,2.63,-2.63,-2.44,-2.47,-3.84,-3.85,-3.84
101.25,-1.24,2.64,-1.24,2.64,-2.65,-2.49,-2.54,-3.89,-3.89,-3.88
102.27,-1.26,2.66,-1.27,2.66,-2.66,-2.54,-2.60,-3.93,-3.93,-3.92
103.29,-1.29,2.69,-1.29,2.68,-2.68,-2.60,-2.66,-3.97,-3.97,-3.98
104.32,-1.31,2.70,-1.31,2.70,-2.70,-2.65,-2.73,-4.01,-4.01,-4.01
105.37,-1.33,2.72,-1.34,2.71,-2.71,-2.71,-2.79,-4.04,-4.05,-4.06
106.42,-1.37,2.72,-1.37,2.73,-2.73,-2.76,-2.85,-4.10,-4.10,-4.09
107.48,-1.40,2.73,-1.40,2.74,-2.74,-2.81,-2.91,-4.15,-4.14,-4.13
108.56,-1.42,2.77,-1.43,2.76,-2.76,-2.87,-2.97,-4.18,-4.19,-4.19
109.64,-1.45,2.78,-1.45,2.78,-2.78,-2.92,-3.03,-4.23,-4.23,-4.23
110.74,-1.48,2.79,-1.48,2.79,-2.79,-2.96,-3.08,-4.27,-4.27,-4.28
111.85,-1.52,2.79,-1.52,2.80,-2.81,-3.01,-3.13,-4.33,-4.33,-4.31
112.97,-1.55,2.83,-1.56,2.82,-2.82,-3.05,-3.18,-4.37,-4.38,-4.38
114.10,-1.59,2.83,-1.59,2.83,-2.83,-3.09,-3.22,-4.43,-4.42,-4.42
115.24,-1.62,2.85,-1.62,2.85,-2.84,-3.13,-3.26,-4.47,-4.47,-4.47
116.39,-1.65,2.86,-1.66,2.85,-2.85,-3.16,-3.30,-4.51,-4.51,-4.51
117.55,-1.70,2.86,-1.70,2.86,-2.86,-3.18,-3.33,-4.56,-4.56,-4.56
118.73,-1.74,2.87,-1.74,2.86,-2.86,-3.20,-3.36,-4.61,-4.60,-4.61
119.92,-1.78,2.86,-1.78,2.86,-2.86,-3.22,-3.38,-4.65,-4.65,-4.64
121.12,-1.82,2.87,-1.82,2.87,-2.86,-3.23,-3.40,-4.69,-4.69,-4.69
122.33,-1.87,2.86,-1.87,2.86,-2.86,-3.23,-3.41,-4.73,-4.73,-4.73
123.55,-1.91,2.86,-1.91,2.86,-2.86,-3.22,-3.42,-4.77,-4.77,-4.77
124.79,-1.96,2.84,-1.96,2.85,-2.85,-3.21,-3.41,-4.82,-4.81,-4.80
126.03,-2.00,2.85,-2.00,2.84,-2.85,-3.20,-3.41,-4.85,-4.85,-4.85
127.29,-2.05,2.84,-2.05,2.84,-2.84,-3.17,-3.40,-4.89,-4.89,-4.89
128.57,-2.10,2.83,-2.10,2.83,-2.83,-3.15,-3.38,-4.93,-4.93,-4.94
129.85,-2.15,2.83,-2.15,2.82,-2.82,-3.11,-3.35,-4.97,-4.97,-4.98
131.15,-2.20,2.81,-2.20,2.81,-2.81,-3.08,-3.33,-5.01,-5.01,-5.01
132.46,-2.25,2.79,-2.25,2.79,-2.79,-3.03,-3.29,-5.04,-5.04,-5.04
133.79,-2.31,2.76,-2.31,2.77,-2.77,-2.99,-3.25,-5.08,-5.08,-5.07
135.12,-2.36,2.75,-2.36,2.74,-2.75,-2.94,-3.21,-5.11,-5.11,-5.12
136.48,-2.42,2.71,-2.42,2.72,-2.72,-2.89,-3.16,-5.14,-5.14,-5.14
137.84,-2.47,2.69,-2.47,2.69,-2.69,-2.83,-3.10,-5.16,-5.17,-5.17
139.22,-2.53,2.66,-2.53,2.66,-2.66,-2.78,-3.05,-5.19,-5.19,-5.19
140.61,-2.58,2.64,-2.59,2.63,-2.63,-2.72,-2.99,-5.21,-5.21,-5.22
142.02,-2.64,2.59,-2.64,2.60,-2.59,-2.67,-2.93,-5.24,-5.24,-5.23
143.44,-2.70,2.56,-2.70,2.56,-2.56,-2.61,-2.86,-5.26,-5.26,-5.26
144.87,-2.75,2.52,-2.76,2.52,-2.52,-2.56,-2.79,-5.27,-5.28,-5.28
146.32,-2.81,2.48,-2.81,2.48,-2.48,-2.50,-2.72,-5.29,-5.29,-5.29
147.78,-2.87,2.44,-2.87,2.44,-2.44,-2.45,-2.65,-5.31,-5.31,-5.31
149.26,-2.92,2.40,-2.93,2.40,-2.40,-2.39,-2.58,-5.32,-5.33,-5.32
150.75,-2.99,2.37,-2.99,2.36,-2.36,-2.34,-2.50,-5.35,-5.35,-5.36
152.26,-3.05,2.32,-3.05,2.32,-2.32,-2.29,-2.43,-5.37,-5.37,-5.37
153.78,-3.11,2.27,-3.11,2.28,-2.28,-2.24,-2.35,-5.39,-5.39,-5.39
155.32,-3.17,2.24,-3.17,2.23,-2.23,-2.20,-2.28,-5.41,-5.41,-5.41
156.88,-3.23,2.19,-3.23,2.19,-2.19,-2.15,-2.20,-5.43,-5.43,-5.42
158.44,-3.30,2.14,-3.30,2.15,-2.15,-2.11,-2.13,-5.45,-5.45,-5.44
160.03,-3.35,2.11,-3.36,2.11,-2.11,-2.07,-2.06,-5.46,-5.47,-5.46
161.63,-3.42,2.07,-3.42,2.07,-2.07,-2.04,-1.98,-5.49,-5.49,-5.50
163.24,-3.48,2.03,-3.48,2.03,-2.03,-2.00,-1.91,-5.51,-5.51,-5.52
164.88,-3.54,1.98,-3.54,1.99,-1.98,-1.96,-1.84,-5.53,-5.53,-5.53
166.53,-3.60,1.94,-3.61,1.94,-1.94,-1.93,-1.76,-5.55,-5.55,-5.54
168.19,-3.67,1.90,-3.67,1.90,-1.90,-1.90,-1.69,-5.57,-5.57,-5.57
169.87,-3.73,1.86,-3.73,1.86,-1.86,-1.87,-1.62,-5.60,-5.60,-5.59
171.57,-3.79,1.83,-3.80,1.82,-1.82,-1.84,-1.55,-5.62,-5.62,-5.62
173.29,-3.86,1.77,-3.86,1.78,-1.79,-1.81,-1.49,-5.65,-5.64,-5.64
175.02,-3.91,1.75,-3.92,1.75,-1.75,-1.78,-1.42,-5.66,-5.67,-5.66
176.77,-3.98,1.72,-3.98,1.72,-1.72,-1.75,-1.35,-5.70,-5.70,-5.70
178.54,-4.04,1.69,-4.04,1.69,-1.68,-1.72,-1.29,-5.73,-5.73,-5.74
180.32,-4.11,1.65,-4.11,1.65,-1.65,-1.69,-1.22,-5.76,-5.76,-5.76
182.13,-4.17,1.61,-4.17,1.62,-1.62,-1.66,-1.16,-5.79,-5.79,-5.79
183.95,-4.24,1.59,-4.24,1.58,-1.58,-1.63,-1.10,-5.82,-5.82,-5.83
185.79,-4.30,1.55,-4.31,1.55,-1.55,-1.59,-1.04,-5.85,-5.85,-5.85
187.65,-4.37,1.52,-4.37,1.51,-1.51,-1.56,-0.98,-5.88,-5.88,-5.89
189.52,-4.44,1.47,-4.44,1.47,-1.47,-1.52,-0.92,-5.92,-5.91,-5.91
191.42,-4.50,1.44,-4.51,1.44,-1.44,-1.48,-0.86,-5.94,-5.94,-5.94
193.33,-4.57,1.39,-4.57,1.40,-1.40,-1.44,-0.80,-5.97,-5.97,-5.97
195.27,-4.63,1.37,-4.64,1.36,-1.36,-1.40,-0.75,-5.99,-6.00,-6.00
197.22,-4.70,1.32,-4.70,1.33,-1.32,-1.35,-0.69,-6.03,-6.02,-6.02
199.19,-4.76,1.30,-4.76,1.29,-1.28,-1.31,-0.64,-6.05,-6.05,-6.06
201.18,-4.82,1.25,-4.83,1.25,-1.24,-1.26,-0.59,-6.07,-6.07,-6.07
203.19,-4.89,1.20,-4.89,1.20,-1.20,-1.21,-0.54,-6.10,-6.10,-6.09
205.23,-4.96,1.16,-4.96,1.15,-1.16,-1.16,-0.49,-6.13,-6.12,-6.12
207.28,-5.01,1.11,-5.02,1.11,-1.12,-1.10,-0.44,-6.13,-6.14,-6.12
209.35,-5.08,1.07,-5.08,1.08,-1.08,-1.05,-0.39,-6.16,-6.15,-6.15
211.44,-5.13,1.05,-5.14,1.03,-1.03,-1.00,-0.34,-6.16,-6.17,-6.18
213.56,-5.20,0.99,-5.20,0.98,-0.98,-0.94,-0.29,-6.18,-6.18,-6.19
215.69,-5.27,0.91,-5.27,0.93,-0.93,-0.88,-0.25,-6.20,-6.19,-6.19
217.85,-5.33,0.87,-5.34,0.87,-0.87,-0.83,-0.20,-6.20,-6.21,-6.21
220.03,-5.40,0.81,-5.40,0.81,-0.81,-0.77,-0.16,-6.21,-6.21,-6.21
222.23,-5.46,0.76,-5.47,0.75,-0.74,-0.72,-0.12,-6.21,-6.21,-6.22
224.45,-5.53,0.68,-5.53,0.68,-0.68,-0.66,-0.08,-6.21,-6.21,-6.21
226.70,-5.60,0.60,-5.60,0.61,-0.61,-0.60,-0.04,-6.21,-6.21,-6.21
228.96,-5.66,0.54,-5.67,0.53,-0.54,-0.55,-0.00,-6.20,-6.20,-6.20
231.25,-5.73,0.46,-5.73,0.46,-0.47,-0.49,0.03,-6.20,-6.20,-6.19
233.57,-5.79,0.39,-5.79,0.39,-0.40,-0.44,0.07,-6.19,-6.19,-6.19
235.90,-5.85,0.32,-5.85,0.33,-0.33,-0.38,0.10,-6.18,-6.18,-6.17
238.26,-5.89,0.28,-5.90,0.27,-0.26,-0.32,0.14,-6.15,-6.16,-6.17
240.64,-5.95,0.19,-5.95,0.20,-0.19,-0.27,0.17,-6.15,-6.14,-6.14
243.05,-5.99,0.14,-6.00,0.13,-0.13,-0.21,0.19,-6.12,-6.13,-6.13
245.48,-6.05,0.05,-6.05,0.06,-0.06,-0.16,0.22,-6.11,-6.11,-6.11
247.93,-6.09,-0.01,-6.09,-0.00,0.00,-0.10,0.25,-6.09,-6.09,-6.08
250.41,-6.13,-0.06,-6.13,-0.07,0.07,-0.05,0.27,-6.07,-6.07,-6.08
252.92,-6.17,-0.13,-6.17,-0.13,0.13,0.01,0.29,-6.04,-6.04,-6.04
255.45,-6.21,-0.20,-6.21,-0.19,0.19,0.06,0.31,-6.02,-6.02,-6.02
258.00,-6.25,-0.25,-6.25,-0.26,0.25,0.12,0.33,-6.00,-6.00,-6.00
260.58,-6.28,-0.31,-6.29,-0.31,0.31,0.17,0.35,-5.97,-5.97,-5.97
263.19,-6.32,-0.37,-6.32,-0.37,0.37,0.23,0.37,-5.95,-5.95,-5.95
265.82,-6.35,-0.42,-6.35,-0.43,0.43,0.29,0.38,-5.92,-5.92,-5.93
268.48,-6.39,-0.50,-6.39,-0.49,0.49,0.34,0.40,-5.91,-5.90,-5.90
271.16,-6.41,-0.54,-6.42,-0.55,0.54,0.40,0.41,-5.87,-5.88,-5.87
273.87,-6.45,-0.60,-6.45,-0.60,0.60,0.46,0.42,-5.86,-5.85,-5.85
276.61,-6.48,-0.65,-6.48,-0.65,0.65,0.52,0.44,-5.83,-5.83,-5.83
279.38,-6.50,-0.69,-6.51,-0.70,0.70,0.57,0.45,-5.80,-5.81,-5.81
282.17,-6.53,-0.75,-6.53,-0.75,0.75,0.63,0.46,-5.78,-5.78,-5.78
284.99,-6.55,-0.80,-6.55,-0.80,0.80,0.69,0.47,-5.75,-5.76,-5.76
287.84,-6.58,-0.85,-6.58,-0.85,0.84,0.75,0.48,-5.74,-5.73,-5.73
290.72,-6.59,-0.89,-6.60,-0.89,0.89,0.81,0.48,-5.70,-5.70,-5.70
293.63,-6.61,-0.94,-6.61,-0.94,0.94,0.87,0.49,-5.68,-5.68,-5.68
296.57,-6.63,-0.98,-6.63,-0.98,0.98,0.93,0.50,-5.65,-5.65,-5.65
299.53,-6.65,-1.03,-6.65,-1.03,1.03,0.99,0.51,-5.62,-5.62,-5.62
302.53,-6.66,-1.06,-6.67,-1.07,1.07,1.05,0.52,-5.59,-5.59,-5.60
305.55,-6.68,-1.13,-6.68,-1.11,1.12,1.11,0.52,-5.56,-5.56,-5.56
308.61,-6.68,-1.15,-6.68,-1.16,1.16,1.17,0.53,-5.52,-5.53,-5.53
311.69,-6.69,-1.20,-6.69,-1.21,1.20,1.23,0.54,-5.49,-5.49,-5.49
314.81,-6.69,-1.25,-6.69,-1.24,1.24,1.28,0.55,-5.45,-5.46,-5.44
317.96,-6.70,-1.28,-6.70,-1.28,1.27,1.34,0.56,-5.43,-5.42,-5.43
321.14,-6.69,-1.29,-6.70,-1.30,1.30,1.39,0.57,-5.39,-5.40,-5.40
324.35,-6.70,-1.33,-6.70,-1.33,1.33,1.43,0.58,-5.37,-5.37,-5.37
327.59,-6.70,-1.36,-6.70,-1.36,1.36,1.48,0.59,-5.35,-5.34,-5.34
330.87,-6.69,-1.38,-6.70,-1.38,1.38,1.52,0.60,-5.31,-5.32,-5.31
334.18,-6.69,-1.40,-6.69,-1.40,1.39,1.55,0.61,-5.30,-5.30,-5.29
337.52,-6.68,-1.41,-6.68,-1.41,1.41,1.58,0.62,-5.27,-5.27,-5.28
340.90,-6.67,-1.42,-6.67,-1.42,1.42,1.61,0.63,-5.25,-5.25,-5.25
344.30,-6.66,-1.43,-6.66,-1.43,1.43,1.63,0.65,-5.23,-5.23,-5.23
347.75,-6.65,-1.44,-6.65,-1.44,1.44,1.65,0.66,-5.21,-5.21,-5.21
351.23,-6.63,-1.44,-6.64,-1.44,1.45,1.66,0.67,-5.18,-5.19,-5.19
354.74,-6.62,-1.45,-6.62,-1.45,1.45,1.66,0.69,-5.17,-5.17,-5.17
358.28,-6.61,-1.46,-6.61,-1.46,1.45,1.66,0.70,-5.16,-5.16,-5.16
361.87,-6.59,-1.46,-6.59,-1.46,1.45,1.65,0.72,-5.14,-5.14,-5.14
365.49,-6.57,-1.45,-6.57,-1.45,1.44,1.64,0.74,-5.13,-5.13,-5.12
369.14,-6.54,-1.43,-6.54,-1.44,1.44,1.62,0.75,-5.10,-5.11,-5.11
372.83,-6.52,-1.43,-6.52,-1.43,1.43,1.60,0.77,-5.09,-5.09,-5.09
376.56,-6.48,-1.40,-6.49,-1.41,1.42,1.57,0.79,-5.06,-5.07,-5.08
380.33,-6.46,-1.41,-6.46,-1.40,1.41,1.54,0.81,-5.06,-5.05,-5.05
384.13,-6.42,-1.39,-6.43,-1.39,1.39,1.50,0.83,-5.03,-5.03,-5.03
387.97,-6.40,-1.39,-6.40,-1.38,1.38,1.46,0.85,-5.02,-5.02,-5.01
391.85,-6.36,-1.36,-6.36,-1.36,1.36,1.42,0.87,-5.00,-5.00,-5.01
395.77,-6.33,-1.36,-6.33,-1.35,1.35,1.38,0.89,-4.98,-4.98,-4.98
399.73,-6.28,-1.33,-6.29,-1.33,1.33,1.33,0.91,-4.95,-4.96,-4.96
403.72,-6.25,-1.31,-6.25,-1.31,1.31,1.28,0.93,-4.94,-4.94,-4.94
407.76,-6.21,-1.29,-6.21,-1.29,1.29,1.23,0.95,-4.92,-4.92,-4.92
411.84,-6.16,-1.27,-6.16,-1.27,1.27,1.18,0.97,-4.90,-4.90,-4.89
415.96,-6.11,-1.24,-6.11,-1.24,1.24,1.13,0.99,-4.87,-4.87,-4.87
420.12,-6.06,-1.21,-6.06,-1.21,1.21,1.08,1.01,-4.85,-4.85,-4.85
424.32,-6.01,-1.18,-6.01,-1.18,1.18,1.03,1.02,-4.83,-4.83,-4.83
428.56,-5.96,-1.15,-5.96,-1.15,1.15,0.98,1.04,-4.81,-4.81,-4.81
432.85,-5.90,-1.11,-5.90,-1.11,1.11,0.93,1.06,-4.79,-4.79,-4.79
