frequency,raw,error,smoothed,error_smoothed,equalization,parametric_eq,fixed_band_eq,equalized_raw,equalized_smoothed,target
20.00,-19.72,-18.68,-19.72,-18.68,6.00,5.62,2.62,-13.72,-13.72,-1.04
20.20,-19.59,-18.61,-19.59,-18.61,6.00,5.65,2.70,-13.59,-13.59,-0.98
20.40,-19.46,-18.53,-19.47,-18.54,6.00,5.68,2.77,-13.46,-13.47,-0.93
20.61,-19.34,-18.47,-19.34,-18.47,6.00,5.71,2.85,-13.34,-13.34,-0.87
20.81,-19.21,-18.39,-19.21,-18.39,6.00,5.74,2.94,-13.21,-13.21,-0.82
21.02,-19.08,-18.32,-19.08,-18.32,6.00,5.77,3.02,-13.08,-13.08,-0.76
21.23,-18.95,-18.24,-18.96,-18.24,6.00,5.80,3.11,-12.95,-12.96,-0.71
21.44,-18.82,-18.16,-18.82,-18.16,6.00,5.82,3.20,-12.82,-12.82,-0.66
21.66,-18.70,-18.08,-18.69,-18.08,6.00,5.85,3.29,-12.70,-12.69,-0.61
21.87,-18.56,-18.00,-18.56,-18.00,6.00,5.88,3.38,-12.56,-12.56,-0.56
22.09,-18.43,-17.92,-18.43,-17.92,6.00,5.90,3.48,-12.43,-12.43,-0.51
22.31,-18.30,-17.84,-18.30,-17.84,6.00,5.92,3.58,-12.30,-12.30,-0.46
22.54,-18.18,-17.75,-18.17,-17.75,6.00,5.94,3.68,-12.18,-12.17,-0.42
22.76,-18.04,-17.67,-18.05,-17.67,6.00,5.97,3.79,-12.04,-12.05,-0.37
22.99,-17.91,-17.58,-17.91,-17.58,6.00,5.99,3.90,-11.91,-11.91,-0.33
23.22,-17.78,-17.50,-17.78,-17.50,6.00,6.01,4.01,-11.78,-11.78,-0.28
23.45,-17.64,-17.40,-17.65,-17.41,6.00,6.02,4.12,-11.64,-11.65,-0.24
23.69,-17.52,-17.32,-17.52,-17.32,6.00,6.04,4.23,-11.52,-11.52,-0.20
23.92,-17.38,-17.23,-17.38,-17.23,6.00,6.06,4.35,-11.38,-11.38,-0.15
24.16,-17.25,-17.15,-17.25,-17.15,6.00,6.07,4.47,-11.25,-11.25,-0.10
24.40,-17.12,-17.06,-17.12,-17.06,6.00,6.09,4.59,-11.12,-11.12,-0.07
24.65,-17.00,-16.97,-16.99,-16.97,6.00,6.10,4.72,-11.00,-10.99,-0.03
24.89,-16.86,-16.88,-16.86,-16.87,6.00,6.12,4.84,-10.86,-10.86,0.01
25.14,-16.72,-16.78,-16.73,-16.78,6.00,6.13,4.97,-10.72,-10.73,0.05
25.39,-16.59,-16.69,-16.59,-16.68,6.00,6.14,5.09,-10.59,-10.59,0.09
25.65,-16.46,-16.59,-16.46,-16.59,6.00,6.15,5.22,-10.46,-10.46,0.13
25.91,-16.33,-16.50,-16.33,-16.50,6.00,6.16,5.35,-10.33,-10.33,0.17
26.16,-16.19,-16.40,-16.19,-16.40,6.00,6.17,5.48,-10.19,-10.19,0.21
26.43,-16.06,-16.30,-16.06,-16.30,6.00,6.17,5.61,-10.06,-10.06,0.24
26.69,-15.92,-16.20,-15.93,-16.21,6.00,6.18,5.74,-9.92,-9.93,0.28
26.96,-15.80,-16.11,-15.80,-16.11,6.00,6.19,5.86,-9.80,-9.80,0.32
27.23,-15.67,-16.01,-15.67,-16.02,6.00,6.19,5.99,-9.67,-9.67,0.35
27.50,-15.54,-15.92,-15.53,-15.92,6.00,6.20,6.11,-9.54,-9.53,0.39
27.77,-15.40,-15.83,-15.40,-15.83,6.00,6.20,6.23,-9.40,-9.40,0.43
28.05,-15.27,-15.73,-15.27,-15.73,6.00,6.20,6.34,-9.27,-9.27,0.46
28.33,-15.14,-15.64,-15.14,-15.64,6.00,6.20,6.45,-9.14,-9.14,0.50
28.62,-15.02,-15.55,-15.01,-15.54,6.00,6.20,6.55,-9.02,-9.01,0.53
28.90,-14.87,-15.45,-14.88,-15.45,6.00,6.20,6.65,-8.87,-8.88,0.57
29.19,-14.75,-15.36,-14.75,-15.36,6.00,6.20,6.74,-8.75,-8.75,0.60
29.48,-14.62,-15.27,-14.62,-15.26,6.00,6.20,6.83,-8.62,-8.62,0.64
29.78,-14.50,-15.18,-14.50,-15.17,6.00,6.20,6.91,-8.50,-8.50,0.68
30.08,-14.37,-15.08,-14.37,-15.08,6.00,6.20,6.97,-8.37,-8.37,0.71
30.38,-14.25,-14.99,-14.25,-14.99,6.00,6.19,7.03,-8.25,-8.25,0.75
30.68,-14.12,-14.90,-14.13,-14.91,6.00,6.19,7.08,-8.12,-8.13,0.78
30.99,-14.02,-14.83,-14.01,-14.82,6.00,6.18,7.13,-8.02,-8.01,0.82
31.30,-13.89,-14.73,-13.89,-14.73,6.00,6.18,7.16,-7.89,-7.89,0.84
31.61,-13.76,-14.64,-13.77,-14.64,6.00,6.17,7.18,-7.76,-7.77,0.87
31.93,-13.65,-14.55,-13.64,-14.55,6.00,6.16,7.19,-7.65,-7.64,0.90
32.24,-13.52,-14.45,-13.53,-14.46,6.00,6.16,7.20,-7.52,-7.53,0.93
32.57,-13.41,-14.37,-13.41,-14.37,6.00,6.15,7.19,-7.41,-7.41,0.96
32.89,-13.29,-14.28,-13.29,-14.28,6.00,6.14,7.18,-7.29,-7.29,0.99
33.22,-13.17,-14.18,-13.17,-14.18,6.00,6.13,7.16,-7.17,-7.17,1.01
33.55,-13.05,-14.09,-13.05,-14.09,6.00,6.12,7.13,-7.05,-7.05,1.04
33.89,-12.93,-13.99,-12.93,-13.99,6.00,6.11,7.09,-6.93,-6.93,1.05
34.23,-12.82,-13.89,-12.82,-13.89,6.00,6.10,7.05,-6.82,-6.82,1.07
34.57,-12.70,-13.80,-12.71,-13.80,6.00,6.09,7.00,-6.70,-6.71,1.10
34.92,-12.60,-13.71,-12.59,-13.71,6.00,6.08,6.95,-6.60,-6.59,1.12
35.27,-12.48,-13.61,-12.48,-13.61,6.00,6.07,6.90,-6.48,-6.48,1.14
35.62,-12.36,-13.51,-12.36,-13.51,6.00,6.06,6.84,-6.36,-6.36,1.15
35.97,-12.24,-13.42,-12.24,-13.41,6.00,6.05,6.78,-6.24,-6.24,1.17
36.33,-12.12,-13.30,-12.12,-13.31,6.00,6.04,6.72,-6.12,-6.12,1.18
36.70,-12.02,-13.21,-12.01,-13.21,6.00,6.03,6.65,-6.02,-6.01,1.20
37.06,-11.89,-13.11,-11.90,-13.11,6.00,6.01,6.59,-5.89,-5.90,1.22
37.43,-11.79,-13.02,-11.80,-13.02,6.00,6.00,6.53,-5.79,-5.80,1.22
37.81,-11.69,-12.94,-11.69,-12.93,6.00,5.99,6.47,-5.69,-5.69,1.24
38.19,-11.60,-12.84,-11.59,-12.83,6.00,5.98,6.40,-5.60,-5.59,1.25
38.57,-11.47,-12.73,-11.48,-12.73,6.00,5.96,6.35,-5.47,-5.48,1.25
38.95,-11.36,-12.63,-11.37,-12.63,6.00,5.95,6.29,-5.36,-5.37,1.26
39.34,-11.26,-12.53,-11.26,-12.53,6.00,5.94,6.23,-5.26,-5.26,1.27
39.74,-11.17,-12.44,-11.17,-12.44,6.00,5.92,6.18,-5.17,-5.17,1.28
40.14,-11.08,-12.35,-11.07,-12.35,6.00,5.91,6.13,-5.08,-5.07,1.27
40.54,-10.99,-12.26,-10.98,-12.26,6.00,5.90,6.09,-4.99,-4.98,1.28
40.94,-10.88,-12.17,-10.89,-12.17,6.00,5.89,6.05,-4.88,-4.89,1.29
41.35,-10.80,-12.09,-10.80,-12.09,6.00,5.87,6.01,-4.80,-4.80,1.28
41.76,-10.71,-12.00,-10.71,-12.00,6.00,5.86,5.97,-4.71,-4.71,1.29
42.18,-10.62,-11.91,-10.63,-11.91,6.00,5.85,5.94,-4.62,-4.63,1.28
42.60,-10.54,-11.83,-10.54,-11.83,6.00,5.84,5.92,-4.54,-4.54,1.29
43.03,-10.45,-11.74,-10.46,-11.75,6.00,5.83,5.90,-4.45,-4.46,1.29
43.46,-10.38,-11.68,-10.38,-11.67,6.00,5.81,5.88,-4.38,-4.38,1.29
43.90,-10.32,-11.60,-10.31,-11.60,6.00,5.80,5.87,-4.32,-4.31,1.29
44.33,-10.23,-11.53,-10.24,-11.53,6.00,5.79,5.86,-4.23,-4.24,1.29
44.78,-10.17,-11.45,-10.17,-11.46,6.00,5.78,5.85,-4.17,-4.17,1.29
45.23,-10.10,-11.39,-10.09,-11.38,6.00,5.77,5.85,-4.10,-4.09,1.29
45.68,-10.03,-11.31,-10.02,-11.31,6.00,5.76,5.86,-4.03,-4.02,1.29
46.13,-9.95,-11.24,-9.96,-11.24,6.00,5.75,5.87,-3.95,-3.96,1.28
46.60,-9.90,-11.18,-9.89,-11.18,6.00,5.74,5.88,-3.90,-3.89,1.29
47.06,-9.83,-11.11,-9.84,-11.12,6.00,5.74,5.90,-3.83,-3.84,1.28
47.53,-9.78,-11.06,-9.78,-11.06,6.00,5.73,5.92,-3.78,-3.78,1.27
48.01,-9.72,-11.00,-9.73,-11.00,6.00,5.72,5.94,-3.72,-3.73,1.28
48.49,-9.67,-10.95,-9.67,-10.94,6.00,5.72,5.97,-3.67,-3.67,1.27
48.97,-9.61,-10.88,-9.62,-10.88,6.00,5.71,6.00,-3.61,-3.62,1.26
49.46,-9.55,-10.82,-9.56,-10.82,6.00,5.70,6.04,-3.55,-3.56,1.27
49.96,-9.50,-10.76,-9.50,-10.76,6.00,5.70,6.08,-3.50,-3.50,1.26
50.46,-9.44,-10.70,-9.44,-10.70,6.00,5.70,6.12,-3.44,-3.44,1.26
50.96,-9.37,-10.63,-9.38,-10.64,6.00,5.70,6.16,-3.37,-3.38,1.25
51.47,-9.33,-10.59,-9.33,-10.58,6.00,5.69,6.21,-3.33,-3.33,1.26
51.99,-9.29,-10.53,-9.28,-10.53,6.00,5.69,6.26,-3.29,-3.28,1.25
52.51,-9.24,-10.47,-9.24,-10.48,6.00,5.69,6.30,-3.24,-3.24,1.24
53.03,-9.19,-10.43,-9.19,-10.42,6.00,5.70,6.35,-3.19,-3.19,1.24
53.56,-9.13,-10.37,-9.14,-10.37,6.00,5.70,6.40,-3.13,-3.14,1.23
54.10,-9.08,-10.31,-9.09,-10.31,6.00,5.70,6.45,-3.08,-3.09,1.22
54.64,-9.03,-10.25,-9.04,-10.25,6.00,5.71,6.50,-3.03,-3.04,1.21
55.18,-8.99,-10.19,-8.99,-10.19,6.00,5.71,6.55,-2.99,-2.99,1.20
55.74,-8.95,-10.13,-8.95,-10.13,6.00,5.72,6.60,-2.95,-2.95,1.19
56.29,-8.90,-10.07,-8.91,-10.08,6.00,5.73,6.64,-2.90,-2.91,1.17
56.86,-8.86,-10.02,-8.86,-10.02,6.00,5.74,6.68,-2.86,-2.86,1.16
57.42,-8.82,-9.96,-8.82,-9.96,6.00,5.75,6.72,-2.82,-2.82,1.13
58.00,-8.77,-9.89,-8.77,-9.89,6.00,5.77,6.75,-2.77,-2.77,1.11
58.58,-8.72,-9.81,-8.73,-9.82,6.00,5.78,6.78,-2.72,-2.73,1.09
59.16,-8.67,-9.74,-8.68,-9.74,6.00,5.80,6.81,-2.67,-2.68,1.07
59.76,-8.63,-9.68,-8.63,-9.67,6.00,5.82,6.82,-2.63,-2.63,1.04
60.35,-8.59,-9.60,-8.59,-9.60,6.00,5.84,6.83,-2.59,-2.59,1.01
60.96,-8.54,-9.53,-8.55,-9.53,6.00,5.86,6.84,-2.54,-2.55,0.98
61.57,-8.50,-9.46,-8.51,-9.46,6.00,5.88,6.83,-2.50,-2.51,0.96
62.18,-8.46,-9.39,-8.46,-9.39,6.00,5.90,6.82,-2.46,-2.46,0.92
62.80,-8.42,-9.32,-8.42,-9.32,6.00,5.93,6.81,-2.42,-2.42,0.90
63.43,-8.38,-9.26,-8.38,-9.25,6.00,5.96,6.78,-2.38,-2.38,0.87
64.07,-8.33,-9.18,-8.33,-9.18,6.00,5.99,6.75,-2.33,-2.33,0.84
64.71,-8.28,-9.10,-8.29,-9.11,6.00,6.01,6.71,-2.28,-2.29,0.82
65.35,-8.24,-9.04,-8.24,-9.04,6.00,6.04,6.66,-2.24,-2.24,0.80
66.01,-8.20,-8.99,-8.21,-8.99,6.00,6.08,6.61,-2.20,-2.21,0.78
66.67,-8.17,-8.94,-8.17,-8.93,6.00,6.11,6.55,-2.17,-2.17,0.76
67.33,-8.13,-8.88,-8.13,-8.87,6.00,6.14,6.49,-2.13,-2.13,0.74
68.01,-8.08,-8.82,-8.09,-8.82,6.00,6.17,6.42,-2.08,-2.09,0.73
68.69,-8.03,-8.76,-8.04,-8.76,6.00,6.20,6.34,-2.03,-2.04,0.72
69.37,-7.99,-8.70,-7.99,-8.70,6.00,6.23,6.26,-1.99,-1.99,0.71
70.07,-7.95,-8.65,-7.95,-8.65,6.00,6.25,6.18,-1.95,-1.95,0.70
70.77,-7.90,-8.59,-7.91,-8.60,6.00,6.28,6.10,-1.90,-1.91,0.69
71.48,-7.86,-8.55,-7.86,-8.54,6.00,6.30,6.01,-1.86,-1.86,0.68
72.19,-7.81,-8.48,-7.81,-8.48,6.00,6.32,5.92,-1.81,-1.81,0.67
72.91,-7.76,-8.42,-7.76,-8.42,6.00,6.34,5.83,-1.76,-1.76,0.65
73.64,-7.70,-8.34,-7.71,-8.35,6.00,6.35,5.74,-1.70,-1.71,0.64
74.38,-7.65,-8.28,-7.65,-8.28,6.00,6.35,5.65,-1.65,-1.65,0.62
75.12,-7.60,-8.21,-7.60,-8.21,6.00,6.35,5.56,-1.60,-1.60,0.61
75.87,-7.54,-8.14,-7.55,-8.14,6.00,6.35,5.47,-1.54,-1.55,0.59
76.63,-7.49,-8.07,-7.49,-8.06,6.00,6.34,5.38,-1.49,-1.49,0.57
77.40,-7.42,-7.97,-7.42,-7.97,6.00,6.32,5.29,-1.42,-1.42,0.55
78.17,-7.35,-7.88,-7.35,-7.88,6.00,6.30,5.20,-1.35,-1.35,0.53
78.95,-7.27,-7.78,-7.28,-7.79,6.00,6.27,5.12,-1.27,-1.28,0.51
79.74,-7.21,-7.70,-7.22,-7.71,6.00,6.24,5.04,-1.21,-1.22,0.49
80.54,-7.15,-7.62,-7.15,-7.62,6.00,6.20,4.96,-1.15,-1.15,0.47
81.35,-7.08,-7.53,-7.08,-7.53,6.00,6.15,4.88,-1.08,-1.08,0.45
82.16,-7.00,-7.43,-7.00,-7.43,6.00,6.10,4.81,-1.00,-1.00,0.43
82.98,-6.91,-7.32,-6.92,-7.33,6.00,6.05,4.73,-0.91,-0.92,0.41
83.81,-6.84,-7.24,-6.84,-7.23,6.00,5.99,4.67,-0.84,-0.84,0.39
84.65,-6.75,-7.14,-6.76,-7.14,6.00,5.93,4.60,-0.75,-0.76,0.38
85.50,-6.67,-7.04,-6.68,-7.04,6.00,5.87,4.54,-0.67,-0.68,0.37
86.35,-6.59,-6.95,-6.59,-6.95,6.00,5.81,4.48,-0.59,-0.59,0.35
87.22,-6.52,-6.85,-6.51,-6.85,6.00,5.74,4.42,-0.52,-0.51,0.34
88.09,-6.42,-6.75,-6.43,-6.75,6.00,5.67,4.37,-0.42,-0.43,0.32
88.97,-6.34,-6.65,-6.35,-6.65,6.01,5.61,4.32,-0.33,-0.34,0.31
89.86,-6.26,-6.56,-6.26,-6.56,6.02,5.54,4.27,-0.25,-0.24,0.29
90.76,-6.17,-6.45,-6.18,-6.45,6.02,5.47,4.23,-0.15,-0.15,0.28
91.66,-6.08,-6.34,-6.08,-6.34,6.02,5.40,4.19,-0.06,-0.06,0.26
92.58,-5.98,-6.23,-5.99,-6.23,6.00,5.34,4.16,0.01,0.01,0.24
93.51,-5.88,-6.10,-5.89,-6.11,5.96,5.27,4.12,0.08,0.07,0.22
94.44,-5.79,-5.99,-5.79,-5.99,5.91,5.21,4.09,0.11,0.11,0.20
95.39,-5.70,-5.87,-5.69,-5.86,5.83,5.14,4.06,0.14,0.14,0.17
96.34,-5.59,-5.74,-5.60,-5.74,5.74,5.08,4.04,0.14,0.14,0.14
97.30,-5.49,-5.60,-5.50,-5.60,5.62,5.02,4.02,0.13,0.13,0.10
98.28,-5.40,-5.48,-5.41,-5.48,5.50,4.96,4.00,0.10,0.10,0.08
99.26,-5.31,-5.35,-5.32,-5.35,5.37,4.90,3.98,0.05,0.05,0.04
100.25,-5.23,-5.23,-5.22,-5.22,5.24,4.84,3.97,0.00,0.01,-0.00
101.25,-5.13,-5.09,-5.14,-5.10,5.11,4.79,3.96,-0.03,-0.03,-0.04
102.27,-5.05,-4.97,-5.07,-4.98,4.99,4.73,3.95,-0.07,-0.08,-0.08
103.29,-5.00,-4.88,-5.00,-4.88,4.88,4.68,3.94,-0.13,-0.12,-0.12
104.32,-4.94,-4.77,-4.93,-4.77,4.76,4.63,3.93,-0.18,-0.17,-0.17
105.37,-4.86,-4.66,-4.87,-4.66,4.66,4.58,3.93,-0.21,-0.21,-0.21
106.42,-4.79,-4.54,-4.80,-4.55,4.55,4.53,3.92,-0.25,-0.26,-0.26
107.48,-4.74,-4.45,-4.74,-4.44,4.44,4.48,3.92,-0.30,-0.30,-0.30
108.56,-4.69,-4.35,-4.69,-4.34,4.33,4.44,3.92,-0.36,-0.35,-0.35
109.64,-4.62,-4.24,-4.63,-4.24,4.23,4.39,3.92,-0.40,-0.40,-0.39
110.74,-4.56,-4.13,-4.56,-4.13,4.13,4.35,3.91,-0.44,-0.44,-0.44
111.85,-4.50,-4.03,-4.50,-4.03,4.03,4.31,3.91,-0.48,-0.47,-0.47
112.97,-4.43,-3.92,-4.44,-3.93,3.94,4.26,3.91,-0.50,-0.51,-0.51
114.10,-4.39,-3.84,-4.39,-3.84,3.85,4.22,3.91,-0.54,-0.54,-0.55
115.24,-4.35,-3.76,-4.35,-3.77,3.77,4.18,3.91,-0.58,-0.58,-0.59
116.39,-4.32,-3.70,-4.32,-3.70,3.70,4.15,3.90,-0.62,-0.62,-0.63
117.55,-4.29,-3.64,-4.29,-3.63,3.64,4.11,3.90,-0.66,-0.66,-0.66
118.73,-4.26,-3.57,-4.27,-3.58,3.58,4.07,3.89,-0.69,-0.69,-0.69
119.92,-4.24,-3.52,-4.25,-3.53,3.52,4.03,3.88,-0.72,-0.72,-0.72
121.12,-4.22,-3.48,-4.23,-3.48,3.47,4.00,3.87,-0.75,-0.75,-0.75
122.33,-4.20,-3.44,-4.20,-3.43,3.42,3.96,3.86,-0.78,-0.78,-0.76
123.55,-4.17,-3.39,-4.17,-3.38,3.38,3.93,3.85,-0.80,-0.79,-0.79
124.79,-4.13,-3.32,-4.14,-3.32,3.33,3.90,3.83,-0.81,-0.81,-0.81
126.03,-4.09,-3.27,-4.11,-3.27,3.28,3.86,3.81,-0.81,-0.83,-0.83
127.29,-4.08,-3.23,-4.08,-3.23,3.23,3.83,3.79,-0.85,-0.85,-0.85
128.57,-4.06,-3.20,-4.06,-3.19,3.18,3.80,3.77,-0.88,-0.87,-0.87
129.85,-4.02,-3.13,-4.03,-3.14,3.13,3.77,3.75,-0.89,-0.90,-0.89
131.15,-3.99,-3.09,-4.00,-3.09,3.08,3.74,3.72,-0.91,-0.92,-0.90
132.46,-3.97,-3.05,-3.97,-3.04,3.03,3.70,3.69,-0.94,-0.93,-0.93
133.79,-3.93,-2.99,-3.93,-2.99,2.98,3.67,3.66,-0.95,-0.95,-0.95
135.12,-3.89,-2.92,-3.90,-2.93,2.93,3.64,3.63,-0.96,-0.97,-0.97
136.48,-3.87,-2.88,-3.87,-2.88,2.88,3.61,3.60,-0.99,-0.99,-0.99
137.84,-3.84,-2.83,-3.85,-2.83,2.84,3.59,3.56,-1.01,-1.01,-1.01
139.22,-3.83,-2.79,-3.83,-2.79,2.80,3.56,3.53,-1.04,-1.03,-1.04
140.61,-3.81,-2.75,-3.82,-2.76,2.77,3.53,3.49,-1.05,-1.05,-1.06
142.02,-3.81,-2.73,-3.81,-2.73,2.74,3.50,3.46,-1.08,-1.08,-1.09
143.44,-3.81,-2.71,-3.82,-2.71,2.71,3.47,3.42,-1.11,-1.11,-1.11
144.87,-3.82,-2.69,-3.83,-2.69,2.68,3.44,3.39,-1.14,-1.14,-1.13
146.32,-3.83,-2.67,-3.83,-2.67,2.66,3.41,3.35,-1.18,-1.17,-1.16
147.78,-3.83,-2.66,-3.83,-2.65,2.64,3.39,3.32,-1.20,-1.19,-1.18
149.26,-3.82,-2.62,-3.82,-2.62,2.62,3.36,3.28,-1.21,-1.21,-1.20
150.75,-3.81,-2.59,-3.82,-2.59,2.60,3.33,3.25,-1.22,-1.22,-1.23
152.26,-3.81,-2.56,-3.82,-2.57,2.58,3.30,3.22,-1.23,-1.23,-1.25
153.78,-3.83,-2.56,-3.83,-2.56,2.57,3.28,3.18,-1.26,-1.26,-1.28
155.32,-3.84,-2.56,-3.85,-2.56,2.56,3.25,3.15,-1.28,-1.29,-1.29
156.88,-3.87,-2.56,-3.87,-2.56,2.55,3.22,3.13,-1.32,-1.32,-1.31
158.44,-3.88,-2.55,-3.89,-2.55,2.55,3.20,3.10,-1.34,-1.34,-1.33
160.03,-3.90,-2.55,-3.90,-2.55,2.55,3.17,3.07,-1.36,-1.36,-1.36
161.63,-3.91,-2.55,-3.92,-2.54,2.54,3.14,3.05,-1.37,-1.37,-1.37
163.24,-3.92,-2.54,-3.93,-2.54,2.54,3.12,3.03,-1.39,-1.39,-1.39
164.88,-3.93,-2.53,-3.93,-2.53,2.53,3.09,3.01,-1.41,-1.41,-1.41
166.53,-3.93,-2.52,-3.93,-2.51,2.51,3.06,2.99,-1.42,-1.42,-1.42
168.19,-3.93,-2.50,-3.93,-2.50,2.50,3.04,2.98,-1.44,-1.43,-1.43
169.87,-3.92,-2.47,-3.93,-2.48,2.48,3.01,2.97,-1.44,-1.45,-1.45
171.57,-3.92,-2.46,-3.92,-2.46,2.46,2.99,2.96,-1.46,-1.46,-1.46
173.29,-3.91,-2.45,-3.91,-2.45,2.44,2.96,2.95,-1.47,-1.47,-1.47
175.02,-3.90,-2.43,-3.90,-2.43,2.42,2.93,2.94,-1.48,-1.48,-1.47
176.77,-3.88,-2.39,-3.89,-2.40,2.40,2.91,2.94,-1.49,-1.49,-1.49
178.54,-3.86,-2.38,-3.87,-2.38,2.37,2.88,2.94,-1.49,-1.50,-1.49
180.32,-3.85,-2.36,-3.85,-2.35,2.35,2.86,2.94,-1.50,-1.49,-1.49
182.13,-3.82,-2.33,-3.82,-2.33,2.33,2.83,2.94,-1.49,-1.49,-1.50
183.95,-3.79,-2.30,-3.80,-2.31,2.32,2.81,2.94,-1.47,-1.48,-1.50
185.79,-3.79,-2.30,-3.80,-2.30,2.31,2.78,2.95,-1.48,-1.48,-1.49
187.65,-3.80,-2.31,-3.80,-2.31,2.32,2.76,2.96,-1.49,-1.49,-1.50
189.52,-3.82,-2.33,-3.82,-2.32,2.32,2.74,2.97,-1.50,-1.50,-1.50
191.42,-3.83,-2.33,-3.84,-2.34,2.34,2.71,2.99,-1.50,-1.50,-1.50
193.33,-3.86,-2.36,-3.86,-2.36,2.36,2.69,3.00,-1.51,-1.51,-1.50
195.27,-3.89,-2.39,-3.89,-2.39,2.38,2.67,3.02,-1.51,-1.51,-1.51
197.22,-3.92,-2.42,-3.92,-2.42,2.41,2.64,3.03,-1.52,-1.52,-1.51
199.19,-3.95,-2.45,-3.95,-2.44,2.43,2.62,3.05,-1.52,-1.52,-1.51
201.18,-3.97,-2.46,-3.98,-2.46,2.46,2.60,3.07,-1.52,-1.52,-1.52
203.19,-4.00,-2.49,-4.00,-2.48,2.49,2.58,3.10,-1.52,-1.52,-1.52
205.23,-4.03,-2.51,-4.03,-2.50,2.51,2.56,3.12,-1.52,-1.52,-1.53
207.28,-4.06,-2.53,-4.07,-2.53,2.54,2.54,3.14,-1.52,-1.53,-1.54
209.35,-4.10,-2.57,-4.10,-2.56,2.57,2.52,3.16,-1.53,-1.53,-1.54
211.44,-4.14,-2.60,-4.14,-2.60,2.60,2.50,3.18,-1.55,-1.55,-1.55
213.56,-4.18,-2.63,-4.19,-2.64,2.62,2.49,3.21,-1.56,-1.56,-1.55
215.69,-4.22,-2.67,-4.22,-2.66,2.65,2.47,3.23,-1.58,-1.57,-1.55
217.85,-4.25,-2.69,-4.25,-2.69,2.68,2.46,3.25,-1.58,-1.57,-1.56
220.03,-4.26,-2.70,-4.27,-2.70,2.71,2.45,3.27,-1.56,-1.57,-1.57
222.23,-4.29,-2.72,-4.30,-2.72,2.74,2.44,3.28,-1.56,-1.56,-1.58
224.45,-4.33,-2.75,-4.33,-2.75,2.77,2.43,3.30,-1.56,-1.56,-1.58
226.70,-4.37,-2.78,-4.38,-2.79,2.80,2.43,3.31,-1.57,-1.58,-1.59
228.96,-4.44,-2.85,-4.43,-2.84,2.84,2.42,3.32,-1.61,-1.60,-1.60
231.25,-4.48,-2.88,-4.49,-2.88,2.87,2.43,3.32,-1.61,-1.62,-1.60
233.57,-4.53,-2.92,-4.54,-2.92,2.91,2.43,3.32,-1.63,-1.63,-1.62
235.90,-4.59,-2.97,-4.58,-2.95,2.94,2.44,3.32,-1.65,-1.64,-1.63
238.26,-4.61,-2.97,-4.62,-2.98,2.98,2.46,3.31,-1.64,-1.65,-1.64
240.64,-4.65,-3.01,-4.65,-3.00,3.01,2.48,3.30,-1.65,-1.65,-1.65
243.05,-4.68,-3.02,-4.69,-3.02,3.04,2.50,3.28,-1.65,-1.65,-1.66
245.48,-4.72,-3.05,-4.73,-3.05,3.06,2.54,3.26,-1.66,-1.66,-1.68
247.93,-4.77,-3.09,-4.77,-3.09,3.09,2.58,3.24,-1.68,-1.68,-1.68
250.41,-4.81,-3.12,-4.82,-3.12,3.12,2.63,3.20,-1.69,-1.69,-1.70
252.92,-4.86,-3.16,-4.86,-3.16,3.16,2.69,3.16,-1.71,-1.71,-1.70
255.45,-4.90,-3.19,-4.91,-3.19,3.19,2.76,3.12,-1.72,-1.72,-1.72
258.00,-4.94,-3.22,-4.95,-3.22,3.22,2.84,3.07,-1.72,-1.72,-1.72
260.58,-4.98,-3.25,-4.98,-3.25,3.25,2.93,3.02,-1.73,-1.73,-1.73
263.19,-5.01,-3.28,-5.02,-3.28,3.28,3.03,2.96,-1.73,-1.74,-1.74
265.82,-5.05,-3.31,-5.05,-3.30,3.31,3.13,2.89,-1.75,-1.74,-1.74
268.48,-5.07,-3.32,-5.08,-3.33,3.33,3.24,2.83,-1.74,-1.75,-1.76
271.16,-5.10,-3.35,-5.11,-3.35,3.35,3.35,2.75,-1.76,-1.76,-1.76
273.87,-5.13,-3.36,-5.13,-3.36,3.36,3.44,2.67,-1.78,-1.77,-1.77
276.61,-5.14,-3.36,-5.14,-3.36,3.36,3.52,2.59,-1.79,-1.79,-1.79
279.38,-5.14,-3.36,-5.15,-3.36,3.35,3.57,2.51,-1.80,-1.80,-1.79
282.17,-5.13,-3.33,-5.14,-3.33,3.33,3.58,2.42,-1.81,-1.81,-1.80
284.99,-5.12,-3.31,-5.11,-3.30,3.30,3.55,2.33,-1.82,-1.81,-1.81
287.84,-5.07,-3.25,-5.08,-3.26,3.26,3.48,2.23,-1.81,-1.82,-1.83
290.72,-5.04,-3.20,-5.05,-3.21,3.21,3.37,2.14,-1.84,-1.84,-1.84
293.63,-5.00,-3.15,-5.00,-3.15,3.15,3.22,2.04,-1.86,-1.85,-1.85
296.57,-4.94,-3.08,-4.95,-3.08,3.07,3.05,1.94,-1.87,-1.87,-1.87
299.53,-4.87,-3.00,-4.88,-3.00,2.99,2.86,1.84,-1.88,-1.88,-1.88
302.53,-4.79,-2.90,-4.79,-2.90,2.91,2.67,1.73,-1.89,-1.89,-1.89
305.55,-4.70,-2.80,-4.70,-2.80,2.81,2.47,1.63,-1.90,-1.89,-1.90
308.61,-4.60,-2.69,-4.61,-2.69,2.70,2.28,1.52,-1.90,-1.90,-1.91
311.69,-4.49,-2.57,-4.50,-2.58,2.58,2.10,1.42,-1.91,-1.92,-1.93
314.81,-4.40,-2.47,-4.40,-2.46,2.45,1.92,1.31,-1.95,-1.94,-1.94
317.96,-4.27,-2.32,-4.28,-2.33,2.31,1.76,1.20,-1.96,-1.96,-1.95
321.14,-4.13,-2.18,-4.13,-2.17,2.16,1.60,1.10,-1.98,-1.97,-1.95
324.35,-3.96,-2.00,-3.96,-2.00,1.99,1.46,0.99,-1.97,-1.97,-1.96
327.59,-3.77,-1.81,-3.79,-1.82,1.82,1.32,0.88,-1.96,-1.98,-1.97
330.87,-3.61,-1.64,-3.60,-1.63,1.63,1.20,0.77,-1.99,-1.97,-1.98
334.18,-3.41,-1.44,-3.41,-1.43,1.44,1.08,0.67,-1.98,-1.97,-1.98
337.52,-3.19,-1.21,-3.21,-1.23,1.24,0.97,0.56,-1.96,-1.97,-1.98
340.90,-3.01,-1.02,-3.01,-1.02,1.03,0.86,0.45,-1.98,-1.98,-1.99
344.30,-2.81,-0.82,-2.81,-0.82,0.83,0.76,0.34,-1.99,-1.99,-1.99
347.75,-2.62,-0.63,-2.62,-0.63,0.62,0.66,0.23,-2.00,-2.00,-1.99
351.23,-2.41,-0.42,-2.42,-0.42,0.41,0.57,0.13,-2.00,-2.00,-2.00
354.74,-2.22,-0.23,-2.22,-0.22,0.21,0.48,0.02,-2.02,-2.01,-2.00
358.28,-1.99,0.00,-2.00,-0.01,0.00,0.40,-0.09,-1.99,-2.00,-2.00
361.87,-1.80,0.19,-1.79,0.21,-0.20,0.32,-0.20,-2.01,-1.99,-2.00
365.49,-1.57,0.43,-1.59,0.41,-0.40,0.24,-0.31,-1.98,-1.99,-2.00
369.14,-1.38,0.62,-1.39,0.61,-0.60,0.16,-0.41,-1.99,-1.99,-2.00
372.83,-1.21,0.78,-1.20,0.80,-0.79,0.09,-0.52,-2.01,-1.99,-1.99
376.56,-1.01,0.98,-1.02,0.98,-0.98,0.02,-0.63,-1.99,-2.00,-1.99
380.33,-0.84,1.16,-0.85,1.15,-1.15,-0.05,-0.73,-2.00,-2.00,-2.00
384.13,-0.68,1.32,-0.68,1.32,-1.32,-0.12,-0.84,-2.00,-2.00,-2.00
387.97,-0.53,1.47,-0.53,1.47,-1.48,-0.19,-0.95,-2.01,-2.01,-2.01
391.85,-0.38,1.62,-0.38,1.62,-1.63,-0.26,-1.05,-2.02,-2.02,-2.01
395.77,-0.24,1.76,-0.24,1.77,-1.77,-0.32,-1.16,-2.02,-2.01,-2.01
399.73,-0.10,1.91,-0.11,1.91,-1.90,-0.39,-1.27,-2.01,-2.01,-2.02
403.72,0.02,2.03,0.01,2.03,-2.02,-0.45,-1.37,-2.01,-2.01,-2.02
407.76,0.11,2.13,0.11,2.14,-2.12,-0.52,-1.47,-2.02,-2.01,-2.03
411.84,0.20,2.23,0.19,2.22,-2.21,-0.58,-1.58,-2.02,-2.02,-2.03
415.96,0.26,2.30,0.26,2.30,-2.29,-0.64,-1.68,-2.04,-2.04,-2.04
420.12,0.31,2.36,0.30,2.36,-2.36,-0.70,-1.78,-2.05,-2.05,-2.05
424.32,0.34,2.41,0.33,2.40,-2.41,-0.76,-1.88,-2.07,-2.07,-2.07
