frequency,raw,error,smoothed,error_smoothed,equalization,parametric_eq,fixed_band_eq,equalized_raw,equalized_smoothed,target
20.00,3.35,-3.08,3.33,-3.10,3.04,2.35,0.53,6.39,6.37,6.43
20.20,3.46,-2.96,3.47,-2.96,2.93,2.32,0.55,6.39,6.40,6.42
20.40,3.58,-2.84,3.59,-2.83,2.83,2.28,0.56,6.41,6.42,6.42
20.61,3.69,-2.73,3.70,-2.71,2.74,2.25,0.58,6.43,6.44,6.41
20.81,3.81,-2.59,3.81,-2.59,2.66,2.21,0.60,6.47,6.46,6.40
21.02,3.91,-2.48,3.88,-2.51,2.58,2.18,0.62,6.49,6.46,6.39
21.23,3.92,-2.47,3.92,-2.47,2.52,2.14,0.64,6.43,6.44,6.39
21.44,3.93,-2.47,3.93,-2.46,2.46,2.11,0.67,6.39,6.39,6.40
21.66,3.94,-2.45,3.94,-2.45,2.43,2.07,0.69,6.37,6.37,6.39
21.87,3.95,-2.44,3.95,-2.43,2.41,2.04,0.71,6.35,6.36,6.39
22.09,3.98,-2.40,3.98,-2.40,2.38,2.00,0.73,6.36,6.36,6.38
22.31,4.02,-2.36,4.02,-2.36,2.35,1.97,0.76,6.37,6.37,6.38
22.54,4.06,-2.31,4.05,-2.32,2.31,1.93,0.78,6.37,6.36,6.37
22.76,4.10,-2.28,4.10,-2.28,2.26,1.89,0.81,6.35,6.35,6.38
22.99,4.14,-2.24,4.15,-2.22,2.19,1.86,0.83,6.33,6.34,6.37
23.22,4.22,-2.15,4.22,-2.15,2.13,1.82,0.86,6.34,6.34,6.36
23.45,4.30,-2.06,4.30,-2.06,2.07,1.78,0.89,6.37,6.37,6.36
23.69,4.38,-1.99,4.38,-1.98,2.02,1.74,0.92,6.39,6.40,6.36
23.92,4.46,-1.90,4.44,-1.92,1.98,1.71,0.94,6.44,6.42,6.36
24.16,4.48,-1.89,4.47,-1.90,1.95,1.67,0.97,6.42,6.42,6.37
24.40,4.47,-1.91,4.47,-1.90,1.92,1.63,1.00,6.39,6.40,6.38
24.65,4.46,-1.92,4.46,-1.92,1.91,1.59,1.03,6.37,6.37,6.38
24.89,4.45,-1.93,4.45,-1.92,1.90,1.55,1.06,6.35,6.35,6.38
25.14,4.47,-1.90,4.47,-1.90,1.88,1.51,1.09,6.35,6.35,6.37
25.39,4.51,-1.86,4.50,-1.86,1.84,1.47,1.12,6.35,6.34,6.37
25.65,4.56,-1.81,4.55,-1.82,1.78,1.43,1.15,6.34,6.33,6.36
25.91,4.60,-1.77,4.61,-1.75,1.70,1.39,1.17,6.30,6.32,6.36
26.16,4.70,-1.66,4.71,-1.65,1.61,1.35,1.20,6.31,6.32,6.36
26.43,4.84,-1.52,4.84,-1.52,1.51,1.31,1.23,6.34,6.34,6.35
26.69,4.97,-1.38,4.97,-1.38,1.41,1.27,1.25,6.37,6.38,6.35
26.96,5.10,-1.24,5.07,-1.27,1.32,1.23,1.28,6.41,6.39,6.34
27.23,5.14,-1.19,5.14,-1.19,1.24,1.19,1.30,6.38,6.38,6.33
27.50,5.17,-1.16,5.18,-1.15,1.19,1.15,1.33,6.35,6.36,6.33
27.77,5.19,-1.14,5.19,-1.14,1.16,1.11,1.35,6.35,6.35,6.33
28.05,5.20,-1.13,5.19,-1.13,1.15,1.07,1.36,6.35,6.34,6.32
28.33,5.17,-1.15,5.17,-1.15,1.17,1.02,1.38,6.33,6.33,6.32
28.62,5.14,-1.17,5.13,-1.18,1.18,0.98,1.39,6.32,6.32,6.31
28.90,5.10,-1.22,5.11,-1.21,1.19,0.94,1.40,6.29,6.30,6.32
29.19,5.11,-1.21,5.11,-1.21,1.17,0.90,1.41,6.28,6.28,6.32
29.48,5.14,-1.19,5.12,-1.20,1.13,0.85,1.42,6.26,6.25,6.33
29.78,5.18,-1.15,5.18,-1.15,1.06,0.81,1.42,6.24,6.24,6.32
30.08,5.24,-1.10,5.26,-1.06,0.99,0.77,1.42,6.23,6.26,6.33
30.38,5.40,-0.92,5.41,-0.91,0.92,0.73,1.42,6.32,6.33,6.32
30.68,5.56,-0.76,5.56,-0.76,0.86,0.68,1.41,6.42,6.42,6.32
30.99,5.72,-0.59,5.65,-0.65,0.81,0.64,1.40,6.52,6.46,6.31
31.30,5.66,-0.65,5.65,-0.65,0.76,0.60,1.38,6.42,6.41,6.30
31.61,5.58,-0.72,5.59,-0.71,0.72,0.55,1.36,6.29,6.31,6.30
31.93,5.50,-0.79,5.53,-0.76,0.67,0.51,1.34,6.17,6.20,6.29
32.24,5.54,-0.75,5.54,-0.74,0.62,0.46,1.31,6.16,6.16,6.29
32.57,5.62,-0.66,5.60,-0.68,0.57,0.42,1.28,6.18,6.16,6.27
32.89,5.69,-0.57,5.70,-0.57,0.52,0.38,1.24,6.21,6.22,6.26
33.22,5.81,-0.45,5.83,-0.43,0.47,0.33,1.21,6.28,6.30,6.26
33.55,5.95,-0.31,5.96,-0.30,0.41,0.29,1.17,6.36,6.37,6.26
33.89,6.09,-0.17,6.04,-0.21,0.34,0.24,1.12,6.43,6.39,6.25
34.23,6.07,-0.17,6.03,-0.21,0.27,0.20,1.07,6.34,6.30,6.24
34.57,5.97,-0.27,5.97,-0.26,0.21,0.15,1.02,6.17,6.18,6.24
34.92,5.87,-0.36,5.93,-0.30,0.16,0.11,0.97,6.03,6.09,6.22
35.27,5.98,-0.25,6.00,-0.22,0.12,0.06,0.91,6.10,6.12,6.23
35.62,6.14,-0.07,6.13,-0.08,0.09,0.02,0.86,6.23,6.22,6.21
35.97,6.31,0.11,6.24,0.04,0.06,-0.03,0.80,6.36,6.29,6.19
36.33,6.27,0.09,6.26,0.08,0.01,-0.07,0.74,6.28,6.27,6.18
36.70,6.21,0.04,6.23,0.07,-0.05,-0.12,0.67,6.16,6.18,6.17
37.06,6.18,0.03,6.21,0.05,-0.11,-0.16,0.61,6.07,6.10,6.15
37.43,6.24,0.10,6.23,0.10,-0.16,-0.21,0.54,6.08,6.08,6.14
37.81,6.29,0.17,6.28,0.16,-0.18,-0.26,0.47,6.10,6.09,6.11
38.19,6.33,0.24,6.33,0.24,-0.21,-0.30,0.40,6.12,6.12,6.09
38.57,6.35,0.28,6.35,0.29,-0.24,-0.35,0.33,6.11,6.11,6.06
38.95,6.37,0.33,6.36,0.32,-0.29,-0.40,0.26,6.08,6.07,6.04
39.34,6.36,0.34,6.35,0.33,-0.35,-0.44,0.19,6.01,6.00,6.01
39.74,6.34,0.35,6.35,0.36,-0.41,-0.49,0.12,5.93,5.94,5.99
40.14,6.36,0.39,6.39,0.43,-0.46,-0.54,0.04,5.89,5.92,5.96
40.54,6.46,0.52,6.45,0.52,-0.52,-0.58,-0.03,5.94,5.94,5.94
40.94,6.56,0.65,6.52,0.61,-0.57,-0.63,-0.10,5.99,5.95,5.91
41.35,6.57,0.67,6.57,0.67,-0.63,-0.68,-0.18,5.93,5.93,5.90
41.76,6.57,0.70,6.58,0.71,-0.70,-0.72,-0.26,5.87,5.88,5.87
42.18,6.59,0.73,6.59,0.74,-0.77,-0.77,-0.33,5.82,5.83,5.85
42.60,6.63,0.80,6.63,0.80,-0.83,-0.82,-0.41,5.80,5.80,5.83
43.03,6.67,0.87,6.67,0.87,-0.88,-0.87,-0.49,5.79,5.79,5.80
43.46,6.72,0.94,6.72,0.94,-0.92,-0.91,-0.56,5.79,5.79,5.78
43.90,6.76,1.00,6.75,1.00,-0.97,-0.96,-0.64,5.79,5.78,5.75
44.33,6.77,1.04,6.77,1.04,-1.01,-1.01,-0.72,5.76,5.76,5.73
44.78,6.77,1.07,6.77,1.07,-1.06,-1.06,-0.80,5.71,5.71,5.70
45.23,6.77,1.09,6.76,1.09,-1.11,-1.11,-0.88,5.66,5.66,5.68
45.68,6.77,1.13,6.77,1.13,-1.16,-1.16,-0.96,5.61,5.61,5.64
46.13,6.78,1.18,6.79,1.18,-1.21,-1.21,-1.04,5.56,5.58,5.60
46.60,6.83,1.25,6.82,1.25,-1.27,-1.26,-1.12,5.55,5.55,5.57
47.06,6.88,1.33,6.88,1.33,-1.33,-1.31,-1.20,5.54,5.54,5.54
47.53,6.92,1.40,6.92,1.42,-1.40,-1.36,-1.28,5.52,5.53,5.51
48.01,6.97,1.51,6.95,1.49,-1.46,-1.41,-1.36,5.51,5.50,5.45
48.49,6.97,1.54,6.97,1.55,-1.52,-1.46,-1.45,5.45,5.45,5.42
48.97,6.97,1.59,6.97,1.59,-1.58,-1.51,-1.53,5.39,5.39,5.38
49.46,6.97,1.63,6.97,1.63,-1.64,-1.56,-1.61,5.33,5.33,5.34
49.96,6.97,1.68,6.96,1.66,-1.69,-1.61,-1.69,5.28,5.27,5.29
50.46,6.97,1.70,6.96,1.70,-1.73,-1.66,-1.78,5.24,5.24,5.27
50.96,6.97,1.73,7.01,1.78,-1.77,-1.71,-1.86,5.20,5.24,5.23
51.47,7.05,1.85,7.05,1.86,-1.81,-1.77,-1.94,5.23,5.24,5.20
51.99,7.14,1.98,7.05,1.89,-1.87,-1.82,-2.02,5.27,5.18,5.16
52.51,7.03,1.90,7.03,1.91,-1.93,-1.87,-2.10,5.10,5.10,5.12
53.03,6.94,1.85,7.03,1.95,-2.00,-1.93,-2.18,4.94,5.03,5.09
53.56,7.07,2.02,7.05,2.01,-2.06,-1.98,-2.26,5.01,5.00,5.04
54.10,7.18,2.18,7.13,2.12,-2.11,-2.03,-2.34,5.06,5.01,5.00
54.64,7.18,2.21,7.18,2.23,-2.16,-2.09,-2.42,5.01,5.02,4.96
55.18,7.18,2.26,7.19,2.27,-2.22,-2.15,-2.49,4.96,4.97,4.92
55.74,7.18,2.30,7.18,2.29,-2.28,-2.20,-2.57,4.90,4.90,4.88
56.29,7.18,2.33,7.18,2.33,-2.35,-2.26,-2.64,4.83,4.83,4.85
56.86,7.18,2.35,7.17,2.35,-2.41,-2.31,-2.71,4.77,4.76,4.82
57.42,7.18,2.41,7.18,2.40,-2.45,-2.37,-2.77,4.73,4.73,4.77
58.00,7.18,2.43,7.23,2.48,-2.48,-2.43,-2.84,4.70,4.75,4.75
58.58,7.31,2.58,7.30,2.58,-2.51,-2.49,-2.90,4.80,4.79,4.73
59.16,7.39,2.69,7.34,2.64,-2.56,-2.54,-2.96,4.83,4.78,4.70
59.76,7.32,2.65,7.30,2.64,-2.61,-2.60,-3.01,4.71,4.69,4.66
60.35,7.22,2.60,7.22,2.60,-2.66,-2.66,-3.07,4.55,4.56,4.61
60.96,7.11,2.53,7.20,2.62,-2.72,-2.72,-3.11,4.38,4.47,4.58
61.57,7.26,2.73,7.24,2.72,-2.78,-2.78,-3.16,4.48,4.46,4.53
62.18,7.38,2.90,7.32,2.85,-2.84,-2.83,-3.20,4.54,4.48,4.47
62.80,7.38,2.96,7.39,2.97,-2.90,-2.89,-3.24,4.48,4.49,4.42
63.43,7.38,3.00,7.39,3.02,-2.96,-2.95,-3.27,4.42,4.43,4.37
64.07,7.38,3.05,7.38,3.05,-3.03,-3.01,-3.30,4.35,4.35,4.33
64.71,7.38,3.09,7.38,3.09,-3.10,-3.06,-3.33,4.28,4.28,4.29
65.35,7.38,3.13,7.38,3.13,-3.15,-3.12,-3.36,4.23,4.23,4.24
66.01,7.38,3.17,7.38,3.17,-3.19,-3.17,-3.38,4.19,4.19,4.21
66.67,7.38,3.21,7.38,3.22,-3.23,-3.22,-3.40,4.15,4.15,4.17
67.33,7.38,3.27,7.38,3.26,-3.26,-3.28,-3.41,4.11,4.11,4.11
68.01,7.38,3.31,7.38,3.31,-3.31,-3.33,-3.42,4.07,4.07,4.07
68.69,7.38,3.35,7.38,3.35,-3.35,-3.38,-3.44,4.02,4.02,4.03
69.37,7.38,3.39,7.38,3.40,-3.40,-3.42,-3.45,3.98,3.98,3.98
70.07,7.38,3.45,7.38,3.44,-3.45,-3.47,-3.46,3.93,3.93,3.93
70.77,7.38,3.49,7.38,3.49,-3.49,-3.52,-3.46,3.88,3.88,3.89
71.48,7.38,3.54,7.38,3.54,-3.54,-3.56,-3.47,3.84,3.84,3.84
72.19,7.38,3.58,7.38,3.59,-3.59,-3.60,-3.48,3.79,3.79,3.80
72.91,7.38,3.64,7.38,3.63,-3.63,-3.64,-3.48,3.75,3.75,3.74
73.64,7.38,3.68,7.38,3.68,-3.68,-3.68,-3.49,3.70,3.70,3.69
74.38,7.38,3.72,7.38,3.72,-3.72,-3.72,-3.49,3.66,3.66,3.66
75.12,7.38,3.76,7.38,3.76,-3.76,-3.76,-3.50,3.62,3.62,3.62
75.87,7.38,3.79,7.38,3.80,-3.80,-3.79,-3.51,3.58,3.58,3.59
76.63,7.38,3.84,7.38,3.84,-3.84,-3.83,-3.52,3.54,3.54,3.54
77.40,7.38,3.87,7.38,3.87,-3.87,-3.87,-3.53,3.51,3.51,3.51
78.17,7.38,3.91,7.38,3.91,-3.90,-3.90,-3.54,3.47,3.47,3.47
78.95,7.38,3.93,7.38,3.94,-3.94,-3.94,-3.56,3.44,3.44,3.44
79.74,7.38,3.97,7.38,3.97,-3.97,-3.97,-3.57,3.41,3.41,3.41
80.54,7.38,4.00,7.38,4.00,-4.00,-4.01,-3.59,3.37,3.37,3.38
81.35,7.38,4.04,7.38,4.03,-4.04,-4.04,-3.61,3.34,3.34,3.34
82.16,7.38,4.06,7.38,4.07,-4.07,-4.08,-3.64,3.31,3.31,3.31
82.98,7.38,4.11,7.38,4.11,-4.11,-4.11,-3.66,3.27,3.27,3.27
83.81,7.38,4.15,7.38,4.14,-4.14,-4.15,-3.69,3.23,3.23,3.23
84.65,7.38,4.18,7.38,4.18,-4.18,-4.18,-3.72,3.20,3.20,3.19
85.50,7.38,4.22,7.38,4.22,-4.22,-4.22,-3.75,3.16,3.16,3.16
86.35,7.38,4.26,7.38,4.26,-4.26,-4.25,-3.79,3.12,3.12,3.12
87.22,7.38,4.30,7.38,4.30,-4.30,-4.29,-3.83,3.08,3.08,3.08
88.09,7.38,4.34,7.38,4.34,-4.34,-4.32,-3.87,3.04,3.04,3.04
88.97,7.38,4.38,7.38,4.38,-4.38,-4.36,-3.92,2.99,2.99,2.99
89.86,7.38,4.42,7.38,4.42,-4.42,-4.40,-3.96,2.95,2.95,2.95
90.76,7.38,4.47,7.38,4.47,-4.47,-4.43,-4.02,2.91,2.91,2.91
91.66,7.38,4.52,7.38,4.52,-4.53,-4.47,-4.07,2.85,2.85,2.86
92.58,7.38,4.56,7.38,4.56,-4.58,-4.51,-4.13,2.80,2.80,2.82
93.51,7.38,4.61,7.38,4.61,-4.62,-4.54,-4.19,2.76,2.76,2.77
94.44,7.38,4.65,7.38,4.65,-4.65,-4.58,-4.25,2.73,2.73,2.73
95.39,7.38,4.70,7.38,4.71,-4.67,-4.62,-4.32,2.70,2.71,2.67
96.34,7.38,4.76,7.39,4.77,-4.71,-4.65,-4.38,2.67,2.69,2.62
97.30,7.37,4.80,7.33,4.77,-4.74,-4.69,-4.45,2.62,2.59,2.56
98.28,7.29,4.78,7.23,4.72,-4.78,-4.72,-4.53,2.51,2.44,2.51
99.26,7.07,4.63,7.16,4.72,-4.81,-4.76,-4.60,2.25,2.35,2.44
100.25,7.11,4.72,7.18,4.79,-4.84,-4.80,-4.68,2.27,2.34,2.39
101.25,7.30,4.96,7.23,4.89,-4.86,-4.83,-4.76,2.43,2.37,2.34
102.27,7.34,5.05,7.27,4.98,-4.89,-4.86,-4.84,2.45,2.38,2.28
103.29,7.19,4.96,7.22,4.98,-4.91,-4.90,-4.92,2.28,2.31,2.23
104.32,7.07,4.89,7.11,4.94,-4.94,-4.93,-5.00,2.13,2.17,2.18
105.37,7.05,4.93,7.04,4.92,-4.97,-4.96,-5.08,2.08,2.07,2.12
106.42,7.02,4.95,7.01,4.95,-4.99,-4.99,-5.16,2.03,2.02,2.07
107.48,7.00,4.99,6.99,4.99,-5.01,-5.03,-5.25,1.99,1.99,2.00
108.56,6.97,5.01,6.97,5.02,-5.02,-5.06,-5.33,1.95,1.95,1.96
109.64,6.95,5.05,6.95,5.05,-5.04,-5.09,-5.41,1.90,1.90,1.90
110.74,6.93,5.08,6.93,5.08,-5.07,-5.11,-5.48,1.85,1.85,1.84
111.85,6.91,5.11,6.92,5.12,-5.10,-5.14,-5.56,1.80,1.82,1.80
112.97,6.91,5.15,6.90,5.15,-5.12,-5.17,-5.63,1.78,1.78,1.75
114.10,6.89,5.18,6.87,5.17,-5.14,-5.19,-5.70,1.75,1.73,1.71
115.24,6.82,5.17,6.82,5.17,-5.16,-5.22,-5.77,1.65,1.65,1.64
116.39,6.75,5.15,6.76,5.16,-5.19,-5.24,-5.83,1.56,1.57,1.60
117.55,6.71,5.15,6.72,5.17,-5.20,-5.26,-5.88,1.50,1.51,1.55
118.73,6.71,5.20,6.70,5.19,-5.22,-5.28,-5.93,1.49,1.49,1.51
119.92,6.71,5.24,6.71,5.23,-5.23,-5.30,-5.98,1.48,1.48,1.47
121.12,6.72,5.27,6.73,5.29,-5.24,-5.32,-6.02,1.47,1.49,1.44
122.33,6.73,5.32,6.73,5.32,-5.27,-5.34,-6.04,1.46,1.46,1.40
123.55,6.74,5.37,6.66,5.29,-5.31,-5.36,-6.07,1.43,1.35,1.37
124.79,6.59,5.25,6.60,5.27,-5.34,-5.37,-6.09,1.25,1.27,1.34
126.03,6.48,5.18,6.62,5.32,-5.36,-5.39,-6.10,1.12,1.26,1.30
127.29,6.70,5.44,6.65,5.39,-5.39,-5.40,-6.10,1.31,1.26,1.26
128.57,6.81,5.59,6.69,5.46,-5.41,-5.42,-6.11,1.39,1.27,1.22
129.85,6.63,5.44,6.68,5.49,-5.44,-5.43,-6.09,1.19,1.24,1.19
131.15,6.57,5.41,6.61,5.46,-5.47,-5.44,-6.08,1.10,1.14,1.15
132.46,6.58,5.46,6.56,5.45,-5.50,-5.45,-6.06,1.08,1.07,1.12
133.79,6.58,5.51,6.58,5.51,-5.51,-5.46,-6.04,1.07,1.07,1.07
135.12,6.59,5.55,6.58,5.54,-5.52,-5.47,-6.00,1.07,1.06,1.03
136.48,6.56,5.56,6.55,5.55,-5.52,-5.48,-5.97,1.04,1.03,1.00
137.84,6.50,5.53,6.49,5.54,-5.53,-5.49,-5.93,0.97,0.97,0.96
139.22,6.43,5.52,6.44,5.52,-5.54,-5.51,-5.89,0.88,0.89,0.91
140.61,6.39,5.50,6.40,5.52,-5.56,-5.52,-5.84,0.82,0.84,0.89
142.02,6.40,5.55,6.39,5.55,-5.58,-5.53,-5.80,0.82,0.81,0.85
143.44,6.40,5.59,6.40,5.59,-5.58,-5.54,-5.75,0.82,0.82,0.80
144.87,6.40,5.62,6.40,5.63,-5.59,-5.55,-5.70,0.81,0.81,0.77
146.32,6.39,5.65,6.37,5.64,-5.60,-5.56,-5.64,0.79,0.77,0.73
147.78,6.33,5.63,6.32,5.63,-5.61,-5.57,-5.59,0.71,0.71,0.70
149.26,6.26,5.60,6.26,5.61,-5.63,-5.59,-5.54,0.63,0.64,0.66
150.75,6.20,5.59,6.21,5.60,-5.63,-5.60,-5.49,0.56,0.58,0.61
152.26,6.19,5.60,6.19,5.61,-5.63,-5.61,-5.44,0.55,0.56,0.58
153.78,6.19,5.65,6.19,5.64,-5.63,-5.63,-5.40,0.56,0.56,0.54
155.32,6.19,5.67,6.18,5.67,-5.64,-5.64,-5.35,0.55,0.54,0.51
156.88,6.15,5.68,6.14,5.67,-5.66,-5.66,-5.31,0.49,0.49,0.47
158.44,6.10,5.67,6.09,5.66,-5.68,-5.67,-5.27,0.42,0.41,0.43
160.03,6.02,5.63,6.03,5.65,-5.70,-5.68,-5.23,0.32,0.34,0.38
161.63,6.00,5.65,5.99,5.65,-5.70,-5.70,-5.19,0.30,0.30,0.34
163.24,5.99,5.70,6.03,5.73,-5.69,-5.71,-5.16,0.30,0.34,0.29
164.88,6.03,5.77,6.05,5.79,-5.69,-5.72,-5.13,0.33,0.35,0.25
166.53,6.11,5.90,5.96,5.75,-5.71,-5.73,-5.11,0.40,0.25,0.20
168.19,5.82,5.65,5.84,5.68,-5.72,-5.74,-5.09,0.09,0.12,0.17
169.87,5.61,5.49,5.73,5.61,-5.73,-5.75,-5.07,-0.12,0.01,0.12
171.57,5.73,5.66,5.70,5.63,-5.71,-5.76,-5.05,0.01,-0.01,0.07
173.29,5.79,5.75,5.80,5.77,-5.70,-5.77,-5.04,0.08,0.10,0.03
175.02,5.89,5.90,5.82,5.84,-5.70,-5.78,-5.03,0.18,0.12,-0.01
176.77,5.81,5.86,5.71,5.77,-5.72,-5.78,-5.03,0.09,-0.00,-0.06
178.54,5.48,5.57,5.58,5.67,-5.74,-5.79,-5.03,-0.26,-0.16,-0.09
180.32,5.44,5.57,5.49,5.63,-5.76,-5.79,-5.04,-0.32,-0.26,-0.13
182.13,5.53,5.70,5.53,5.70,-5.77,-5.79,-5.05,-0.24,-0.23,-0.18
183.95,5.67,5.88,5.63,5.84,-5.77,-5.80,-5.06,-0.10,-0.14,-0.21
185.79,5.70,5.95,5.62,5.87,-5.77,-5.80,-5.07,-0.07,-0.15,-0.25
187.65,5.53,5.81,5.53,5.81,-5.78,-5.79,-5.09,-0.25,-0.25,-0.28
189.52,5.36,5.68,5.45,5.76,-5.80,-5.79,-5.12,-0.44,-0.35,-0.32
191.42,5.38,5.72,5.41,5.75,-5.81,-5.79,-5.14,-0.44,-0.40,-0.34
193.33,5.50,5.88,5.42,5.80,-5.81,-5.78,-5.17,-0.31,-0.40,-0.38
195.27,5.42,5.83,5.40,5.81,-5.79,-5.78,-5.20,-0.37,-0.39,-0.42
197.22,5.31,5.76,5.34,5.79,-5.75,-5.77,-5.24,-0.45,-0.41,-0.45
199.19,5.24,5.72,5.27,5.76,-5.74,-5.76,-5.28,-0.50,-0.46,-0.48
201.18,5.26,5.78,5.24,5.75,-5.73,-5.75,-5.32,-0.47,-0.49,-0.52
203.19,5.22,5.76,5.17,5.72,-5.73,-5.74,-5.36,-0.51,-0.56,-0.54
205.23,5.11,5.68,5.09,5.66,-5.73,-5.73,-5.41,-0.62,-0.64,-0.57
207.28,4.97,5.56,5.05,5.65,-5.72,-5.72,-5.45,-0.76,-0.67,-0.59
209.35,5.03,5.67,5.07,5.70,-5.72,-5.70,-5.50,-0.69,-0.65,-0.64
211.44,5.20,5.86,5.09,5.76,-5.72,-5.69,-5.55,-0.52,-0.63,-0.66
213.56,5.12,5.81,5.10,5.80,-5.72,-5.67,-5.60,-0.60,-0.61,-0.70
215.69,4.99,5.71,5.05,5.77,-5.71,-5.66,-5.64,-0.72,-0.66,-0.72
217.85,4.97,5.71,4.95,5.70,-5.71,-5.64,-5.69,-0.74,-0.75,-0.74
220.03,4.90,5.68,4.88,5.66,-5.70,-5.62,-5.74,-0.80,-0.81,-0.79
222.23,4.83,5.63,4.83,5.64,-5.68,-5.60,-5.78,-0.85,-0.85,-0.81
224.45,4.77,5.60,4.79,5.62,-5.65,-5.58,-5.82,-0.88,-0.86,-0.83
226.70,4.76,5.61,4.76,5.61,-5.61,-5.56,-5.86,-0.86,-0.85,-0.85
228.96,4.77,5.63,4.75,5.61,-5.58,-5.54,-5.89,-0.81,-0.83,-0.86
231.25,4.71,5.59,4.71,5.59,-5.54,-5.52,-5.92,-0.84,-0.83,-0.88
233.57,4.67,5.56,4.65,5.55,-5.51,-5.50,-5.95,-0.85,-0.86,-0.89
235.90,4.56,5.47,4.57,5.47,-5.48,-5.47,-5.97,-0.92,-0.91,-0.91
238.26,4.50,5.42,4.50,5.41,-5.45,-5.45,-5.98,-0.95,-0.95,-0.92
240.64,4.44,5.35,4.45,5.37,-5.42,-5.42,-5.99,-0.98,-0.97,-0.91
243.05,4.44,5.36,4.45,5.36,-5.39,-5.40,-5.99,-0.96,-0.95,-0.92
245.48,4.46,5.37,4.45,5.37,-5.37,-5.37,-5.98,-0.91,-0.91,-0.92
247.93,4.47,5.39,4.44,5.36,-5.33,-5.34,-5.97,-0.87,-0.89,-0.92
250.41,4.42,5.33,4.42,5.33,-5.31,-5.31,-5.95,-0.89,-0.89,-0.91
252.92,4.36,5.27,4.40,5.32,-5.28,-5.28,-5.93,-0.93,-0.88,-0.91
255.45,4.37,5.29,4.36,5.28,-5.26,-5.25,-5.89,-0.89,-0.90,-0.93
258.00,4.38,5.31,4.29,5.22,-5.23,-5.22,-5.85,-0.86,-0.94,-0.93
260.58,4.17,5.11,4.21,5.15,-5.20,-5.19,-5.80,-1.03,-0.99,-0.94
263.19,4.10,5.05,4.16,5.10,-5.16,-5.15,-5.75,-1.06,-1.00,-0.95
265.82,4.14,5.09,4.17,5.13,-5.12,-5.12,-5.69,-0.98,-0.95,-0.95
268.48,4.26,5.23,4.16,5.13,-5.09,-5.08,-5.62,-0.83,-0.92,-0.97
271.16,4.19,5.17,4.10,5.08,-5.05,-5.05,-5.55,-0.86,-0.95,-0.99
273.87,3.87,4.86,4.02,5.02,-5.01,-5.01,-5.47,-1.15,-0.99,-0.99
276.61,3.93,4.93,3.94,4.95,-4.98,-4.97,-5.39,-1.05,-1.04,-1.01
279.38,3.99,5.01,3.90,4.91,-4.94,-4.93,-5.30,-0.95,-1.04,-1.02
282.17,3.88,4.89,3.88,4.90,-4.89,-4.89,-5.21,-1.01,-1.00,-1.02
284.99,3.79,4.81,3.83,4.85,-4.83,-4.84,-5.12,-1.05,-1.01,-1.02
287.84,3.75,4.76,3.76,4.78,-4.78,-4.80,-5.03,-1.03,-1.03,-1.02
290.72,3.76,4.79,3.71,4.74,-4.74,-4.75,-4.93,-0.98,-1.02,-1.03
293.63,3.64,4.67,3.65,4.68,-4.69,-4.71,-4.83,-1.05,-1.04,-1.04
296.57,3.59,4.62,3.58,4.62,-4.64,-4.66,-4.73,-1.05,-1.05,-1.03
299.53,3.51,4.53,3.56,4.59,-4.59,-4.61,-4.63,-1.08,-1.02,-1.02
302.53,3.55,4.58,3.53,4.56,-4.54,-4.56,-4.54,-0.99,-1.01,-1.03
305.55,3.57,4.60,3.45,4.48,-4.50,-4.51,-4.44,-0.93,-1.04,-1.03
308.61,3.31,4.33,3.40,4.43,-4.45,-4.46,-4.34,-1.14,-1.05,-1.03
311.69,3.30,4.33,3.36,4.39,-4.40,-4.41,-4.24,-1.11,-1.04,-1.03
314.81,3.41,4.44,3.34,4.37,-4.36,-4.36,-4.15,-0.95,-1.02,-1.03
317.96,3.35,4.38,3.30,4.34,-4.30,-4.30,-4.05,-0.96,-1.00,-1.04
321.14,3.23,4.27,3.23,4.27,-4.25,-4.25,-3.96,-1.02,-1.02,-1.04
324.35,3.06,4.10,3.16,4.20,-4.20,-4.20,-3.87,-1.14,-1.04,-1.04
327.59,3.15,4.18,3.09,4.13,-4.16,-4.14,-3.78,-1.01,-1.06,-1.03
330.87,3.12,4.16,3.02,4.07,-4.11,-4.09,-3.69,-0.99,-1.09,-1.04
334.18,2.90,3.95,2.99,4.04,-4.06,-4.03,-3.61,-1.16,-1.07,-1.05
337.52,2.90,3.94,2.95,4.00,-4.00,-3.97,-3.53,-1.10,-1.05,-1.04
340.90,3.01,4.04,2.93,3.97,-3.94,-3.92,-3.45,-0.93,-1.01,-1.04
344.30,2.95,3.98,2.91,3.95,-3.88,-3.86,-3.37,-0.94,-0.97,-1.03
347.75,2.80,3.83,2.84,3.87,-3.83,-3.80,-3.29,-1.03,-0.99,-1.03
351.23,2.72,3.75,2.73,3.75,-3.77,-3.75,-3.22,-1.05,-1.04,-1.03
354.74,2.66,3.67,2.64,3.66,-3.71,-3.69,-3.15,-1.05,-1.07,-1.01
358.28,2.58,3.59,2.58,3.59,-3.64,-3.63,-3.08,-1.06,-1.06,-1.02
361.87,2.53,3.54,2.54,3.55,-3.57,-3.57,-3.01,-1.04,-1.03,-1.01
365.49,2.50,3.50,2.52,3.52,-3.50,-3.51,-2.95,-1.00,-0.98,-1.00
369.14,2.54,3.53,2.49,3.48,-3.44,-3.46,-2.89,-0.90,-0.95,-0.99
372.83,2.44,3.42,2.42,3.41,-3.38,-3.40,-2.83,-0.95,-0.97,-0.98
376.56,2.31,3.30,2.32,3.31,-3.33,-3.34,-2.77,-1.03,-1.01,-1.00
380.33,2.21,3.20,2.25,3.24,-3.28,-3.28,-2.72,-1.07,-1.03,-0.99
384.13,2.21,3.20,2.22,3.21,-3.21,-3.22,-2.67,-1.01,-0.99,-0.99
387.97,2.25,3.23,2.18,3.16,-3.15,-3.16,-2.62,-0.90,-0.97,-0.98
391.85,2.14,3.12,2.12,3.11,-3.08,-3.10,-2.57,-0.95,-0.96,-0.98
395.77,1.98,2.97,2.06,3.05,-3.03,-3.04,-2.52,-1.05,-0.97,-0.99
399.73,2.00,3.00,1.96,2.96,-2.98,-2.98,-2.48,-0.99,-1.02,-1.01
403.72,1.96,2.95,1.89,2.89,-2.94,-2.92,-2.43,-0.98,-1.05,-1.00
407.76,1.77,2.78,1.85,2.86,-2.89,-2.86,-2.39,-1.12,-1.04,-1.01
411.84,1.78,2.80,1.81,2.83,-2.83,-2.80,-2.35,-1.05,-1.02,-1.02
415.96,1.85,2.87,1.78,2.80,-2.77,-2.74,-2.31,-0.92,-0.99,-1.02
420.12,1.77,2.80,1.75,2.77,-2.71,-2.68,-2.28,-0.94,-0.96,-1.03
424.32,1.63,2.65,1.67,2.69,-2.66,-2.62,-2.24,-1.03,-0.99,-1.02
428.56,1.57,2.57,1.57,2.58,-2.60,-2.56,-2.20,-1.04,-1.03,-1.00
432.85,1.52,2.50,1.51,2.50,-2.55,-2.50,-2.17,-1.03,-1.04,-0.99
437.18,1.49,2.45,1.48,2.45,-2.49,-2.44,-2.14,-1.00,-1.01,-0.97
441.55,1.47,2.40,1.48,2.41,-2.42,-2.38,-2.10,-0.96,-0.95,-0.94
445.96,1.46,2.36,1.48,2.38,-2.36,-2.32,-2.07,-0.90,-0.88,-0.90
450.42,1.52,2.37,1.48,2.33,-2.29,-2.25,-2.03,-0.77,-0.81,-0.85
454.93,1.47,2.27,1.46,2.27,-2.23,-2.19,-2.00,-0.76,-0.76,-0.80
459.48,1.43,2.18,1.43,2.18,-2.16,-2.13,-1.97,-0.73,-0.73,-0.75
464.07,1.38,2.06,1.39,2.08,-2.10,-2.07,-1.93,-0.72,-0.70,-0.68
468.71,1.38,2.00,1.37,2.00,-2.03,-2.01,-1.90,-0.65,-0.66,-0.62
473.40,1.37,1.94,1.36,1.93,-1.97,-1.94,-1.86,-0.60,-0.61,-0.57
478.13,1.35,1.86,1.37,1.88,-1.90,-1.88,-1.83,-0.55,-0.53,-0.51
482.91,1.37,1.83,1.38,1.84,-1.84,-1.82,-1.79,-0.47,-0.46,-0.46
487.74,1.41,1.82,1.37,1.79,-1.78,-1.75,-1.76,-0.37,-0.40,-0.42
492.62,1.37,1.74,1.37,1.75,-1.71,-1.69,-1.72,-0.34,-0.34,-0.38
497.55,1.30,1.64,1.34,1.68,-1.64,-1.63,-1.68,-0.34,-0.31,-0.35
502.52,1.31,1.62,1.27,1.59,-1.57,-1.56,-1.64,-0.26,-0.30,-0.32
507.55,1.21,1.50,1.20,1.49,-1.49,-1.50,-1.60,-0.29,-0.29,-0.29
512.62,1.10,1.38,1.12,1.40,-1.42,-1.43,-1.55,-0.32,-0.30,-0.28
517.75,1.04,1.31,1.04,1.31,-1.35,-1.37,-1.51,-0.31,-0.31,-0.27
522.93,0.97,1.25,0.96,1.24,-1.28,-1.30,-1.47,-0.31,-0.31,-0.28
