frequency,raw,error,smoothed,error_smoothed,equalization,parametric_eq,fixed_band_eq,equalized_raw,equalized_smoothed,target
20.00,13.15,7.62,13.15,7.61,-7.62,-7.26,-3.89,5.54,5.54,5.54
20.20,13.17,7.64,13.17,7.64,-7.64,-7.29,-4.00,5.53,5.53,5.54
20.40,13.19,7.67,13.19,7.66,-7.66,-7.32,-4.11,5.53,5.53,5.53
20.61,13.20,7.68,13.21,7.68,-7.68,-7.35,-4.22,5.52,5.52,5.52
20.81,13.22,7.71,13.22,7.71,-7.70,-7.38,-4.33,5.52,5.52,5.51
21.02,13.24,7.73,13.24,7.72,-7.72,-7.41,-4.45,5.52,5.51,5.51
21.23,13.25,7.75,13.25,7.75,-7.75,-7.44,-4.57,5.51,5.51,5.50
21.44,13.26,7.76,13.26,7.76,-7.77,-7.47,-4.70,5.50,5.50,5.50
21.66,13.28,7.79,13.28,7.78,-7.79,-7.50,-4.82,5.50,5.49,5.49
21.87,13.29,7.80,13.29,7.80,-7.81,-7.54,-4.96,5.49,5.49,5.49
22.09,13.31,7.83,13.31,7.83,-7.82,-7.57,-5.09,5.49,5.49,5.48
22.31,13.32,7.84,13.32,7.84,-7.84,-7.60,-5.23,5.48,5.48,5.48
22.54,13.34,7.86,13.34,7.86,-7.86,-7.64,-5.37,5.48,5.48,5.48
22.76,13.35,7.88,13.35,7.88,-7.88,-7.67,-5.52,5.47,5.47,5.47
22.99,13.36,7.89,13.37,7.90,-7.90,-7.70,-5.67,5.46,5.47,5.47
23.22,13.38,7.92,13.38,7.92,-7.92,-7.74,-5.82,5.46,5.46,5.46
23.45,13.39,7.93,13.39,7.93,-7.93,-7.77,-5.98,5.46,5.46,5.46
23.69,13.40,7.95,13.41,7.95,-7.95,-7.81,-6.14,5.45,5.45,5.46
23.92,13.42,7.98,13.42,7.97,-7.97,-7.84,-6.30,5.45,5.45,5.45
24.16,13.43,7.99,13.43,7.99,-7.98,-7.87,-6.47,5.45,5.45,5.44
24.40,13.44,8.00,13.44,8.00,-8.00,-7.91,-6.64,5.44,5.44,5.44
24.65,13.45,8.01,13.45,8.01,-8.01,-7.94,-6.82,5.44,5.44,5.44
24.89,13.46,8.03,13.46,8.03,-8.03,-7.98,-7.00,5.43,5.43,5.43
25.14,13.47,8.04,13.47,8.04,-8.04,-8.01,-7.18,5.43,5.43,5.43
25.39,13.49,8.06,13.49,8.06,-8.06,-8.05,-7.36,5.43,5.43,5.43
25.65,13.50,8.07,13.50,8.07,-8.08,-8.08,-7.54,5.43,5.43,5.43
25.91,13.52,8.09,13.52,8.09,-8.09,-8.11,-7.73,5.43,5.43,5.43
26.16,13.53,8.11,13.53,8.11,-8.11,-8.15,-7.91,5.42,5.43,5.43
26.43,13.55,8.13,13.55,8.13,-8.13,-8.18,-8.10,5.43,5.42,5.43
26.69,13.56,8.15,13.56,8.14,-8.14,-8.21,-8.28,5.42,5.42,5.41
26.96,13.57,8.16,13.57,8.16,-8.16,-8.24,-8.47,5.41,5.42,5.41
27.23,13.59,8.18,13.59,8.17,-8.17,-8.27,-8.65,5.42,5.41,5.41
27.50,13.59,8.18,13.60,8.19,-8.19,-8.30,-8.83,5.40,5.41,5.41
27.77,13.61,8.20,13.61,8.20,-8.21,-8.33,-9.01,5.41,5.40,5.41
28.05,13.62,8.22,13.62,8.22,-8.22,-8.36,-9.18,5.40,5.40,5.40
28.33,13.63,8.24,13.63,8.24,-8.24,-8.38,-9.34,5.40,5.40,5.40
28.62,13.64,8.25,13.64,8.25,-8.25,-8.41,-9.50,5.39,5.39,5.39
28.90,13.65,8.27,13.65,8.26,-8.26,-8.43,-9.64,5.39,5.39,5.38
29.19,13.66,8.28,13.66,8.28,-8.28,-8.46,-9.78,5.38,5.38,5.38
29.48,13.66,8.28,13.67,8.29,-8.29,-8.48,-9.90,5.37,5.38,5.38
29.78,13.67,8.30,13.67,8.30,-8.30,-8.50,-10.01,5.37,5.37,5.37
30.08,13.67,8.31,13.67,8.30,-8.31,-8.52,-10.10,5.37,5.37,5.37
30.38,13.67,8.31,13.68,8.31,-8.31,-8.53,-10.18,5.36,5.36,5.36
30.68,13.68,8.32,13.68,8.32,-8.32,-8.55,-10.24,5.37,5.36,5.36
30.99,13.68,8.32,13.68,8.32,-8.32,-8.56,-10.29,5.36,5.36,5.36
31.30,13.68,8.32,13.68,8.32,-8.32,-8.57,-10.32,5.36,5.36,5.36
31.61,13.68,8.32,13.68,8.32,-8.32,-8.58,-10.34,5.36,5.36,5.37
31.93,13.68,8.32,13.68,8.32,-8.32,-8.59,-10.33,5.36,5.36,5.36
32.24,13.68,8.32,13.68,8.32,-8.32,-8.59,-10.31,5.36,5.36,5.36
32.57,13.68,8.32,13.68,8.32,-8.32,-8.60,-10.27,5.36,5.36,5.36
32.89,13.67,8.32,13.67,8.32,-8.32,-8.60,-10.22,5.35,5.36,5.36
33.22,13.67,8.32,13.67,8.31,-8.32,-8.60,-10.15,5.35,5.35,5.35
33.55,13.66,8.31,13.66,8.31,-8.32,-8.59,-10.08,5.34,5.34,5.35
33.89,13.66,8.31,13.66,8.32,-8.32,-8.59,-9.98,5.34,5.34,5.35
34.23,13.66,8.33,13.66,8.32,-8.32,-8.58,-9.89,5.34,5.34,5.33
34.57,13.66,8.33,13.66,8.33,-8.33,-8.57,-9.78,5.34,5.33,5.33
34.92,13.65,8.33,13.65,8.34,-8.33,-8.56,-9.66,5.32,5.32,5.32
35.27,13.64,8.34,13.64,8.34,-8.33,-8.55,-9.54,5.31,5.31,5.30
35.62,13.63,8.34,13.63,8.33,-8.33,-8.53,-9.42,5.30,5.29,5.29
35.97,13.61,8.32,13.61,8.33,-8.34,-8.52,-9.29,5.27,5.28,5.29
36.33,13.60,8.33,13.60,8.33,-8.34,-8.50,-9.16,5.26,5.26,5.27
36.70,13.59,8.34,13.59,8.34,-8.34,-8.48,-9.03,5.25,5.25,5.25
37.06,13.58,8.35,13.58,8.34,-8.34,-8.45,-8.90,5.24,5.24,5.24
37.43,13.56,8.34,13.57,8.35,-8.34,-8.43,-8.76,5.22,5.23,5.22
37.81,13.55,8.34,13.55,8.34,-8.34,-8.40,-8.63,5.21,5.21,5.21
38.19,13.53,8.34,13.53,8.33,-8.34,-8.38,-8.51,5.20,5.20,5.19
38.57,13.51,8.32,13.51,8.33,-8.33,-8.35,-8.38,5.18,5.18,5.19
38.95,13.49,8.32,13.49,8.32,-8.32,-8.31,-8.26,5.17,5.17,5.17
39.34,13.47,8.31,13.47,8.31,-8.31,-8.28,-8.14,5.16,5.16,5.16
39.74,13.45,8.30,13.45,8.30,-8.30,-8.25,-8.03,5.16,5.15,5.15
40.14,13.42,8.28,13.42,8.28,-8.28,-8.21,-7.92,5.14,5.14,5.14
40.54,13.39,8.26,13.40,8.26,-8.26,-8.18,-7.81,5.13,5.13,5.13
40.94,13.37,8.25,13.37,8.24,-8.24,-8.14,-7.71,5.13,5.12,5.13
41.35,13.34,8.22,13.34,8.22,-8.22,-8.10,-7.61,5.12,5.12,5.12
41.76,13.31,8.20,13.31,8.20,-8.20,-8.06,-7.52,5.11,5.11,5.11
42.18,13.28,8.17,13.28,8.17,-8.18,-8.02,-7.43,5.11,5.10,5.11
42.60,13.24,8.14,13.25,8.15,-8.15,-7.98,-7.35,5.09,5.10,5.10
43.03,13.22,8.13,13.22,8.12,-8.12,-7.94,-7.28,5.10,5.10,5.09
43.46,13.18,8.10,13.18,8.10,-8.09,-7.90,-7.20,5.09,5.09,5.09
43.90,13.15,8.07,13.15,8.06,-8.06,-7.85,-7.14,5.09,5.09,5.08
44.33,13.10,8.02,13.10,8.03,-8.03,-7.81,-7.08,5.07,5.08,5.08
44.78,13.06,7.99,13.06,7.99,-7.99,-7.77,-7.02,5.07,5.07,5.07
45.23,13.02,7.96,13.02,7.95,-7.96,-7.72,-6.97,5.07,5.07,5.06
45.68,12.98,7.92,12.98,7.92,-7.92,-7.68,-6.93,5.06,5.06,5.07
46.13,12.94,7.88,12.94,7.88,-7.88,-7.63,-6.89,5.06,5.06,5.06
46.60,12.88,7.83,12.89,7.84,-7.84,-7.59,-6.85,5.04,5.05,5.05
47.06,12.84,7.80,12.84,7.80,-7.80,-7.54,-6.82,5.04,5.04,5.04
47.53,12.79,7.76,12.79,7.76,-7.76,-7.49,-6.80,5.03,5.03,5.03
48.01,12.73,7.71,12.74,7.72,-7.72,-7.45,-6.78,5.01,5.02,5.02
48.49,12.68,7.68,12.68,7.68,-7.68,-7.40,-6.76,5.00,5.00,5.00
48.97,12.62,7.63,12.62,7.64,-7.64,-7.35,-6.75,4.98,4.99,4.99
49.46,12.56,7.59,12.57,7.59,-7.59,-7.30,-6.74,4.97,4.97,4.97
49.96,12.51,7.56,12.50,7.55,-7.55,-7.26,-6.73,4.96,4.95,4.95
50.46,12.44,7.50,12.45,7.51,-7.51,-7.21,-6.73,4.93,4.94,4.94
50.96,12.38,7.46,12.38,7.46,-7.46,-7.16,-6.73,4.92,4.92,4.92
51.47,12.32,7.42,12.32,7.42,-7.42,-7.11,-6.74,4.91,4.90,4.91
51.99,12.25,7.37,12.26,7.37,-7.37,-7.07,-6.74,4.88,4.89,4.88
52.51,12.19,7.32,12.19,7.32,-7.32,-7.02,-6.75,4.87,4.87,4.87
53.03,12.11,7.26,12.12,7.27,-7.27,-6.97,-6.76,4.85,4.85,4.85
53.56,12.04,7.21,12.04,7.21,-7.21,-6.92,-6.77,4.83,4.83,4.83
54.10,11.97,7.16,11.97,7.16,-7.15,-6.87,-6.78,4.82,4.81,4.81
54.64,11.89,7.09,11.90,7.10,-7.09,-6.82,-6.79,4.80,4.80,4.80
55.18,11.82,7.04,11.82,7.04,-7.03,-6.77,-6.80,4.79,4.78,4.78
55.74,11.74,6.97,11.74,6.97,-6.97,-6.72,-6.81,4.77,4.77,4.77
56.29,11.66,6.91,11.66,6.91,-6.91,-6.68,-6.82,4.75,4.75,4.76
56.86,11.58,6.84,11.58,6.84,-6.85,-6.63,-6.83,4.74,4.73,4.74
57.42,11.50,6.78,11.50,6.78,-6.78,-6.58,-6.83,4.72,4.72,4.72
58.00,11.42,6.72,11.42,6.72,-6.72,-6.53,-6.83,4.70,4.70,4.70
58.58,11.34,6.66,11.34,6.66,-6.66,-6.48,-6.82,4.69,4.68,4.68
59.16,11.25,6.59,11.25,6.59,-6.59,-6.42,-6.82,4.66,4.66,4.66
59.76,11.16,6.52,11.16,6.52,-6.53,-6.37,-6.80,4.63,4.63,4.64
60.35,11.07,6.45,11.08,6.46,-6.46,-6.32,-6.78,4.61,4.61,4.62
60.96,10.99,6.41,10.99,6.40,-6.40,-6.27,-6.76,4.59,4.59,4.58
61.57,10.90,6.34,10.90,6.34,-6.34,-6.22,-6.73,4.57,4.56,4.56
62.18,10.80,6.26,10.81,6.27,-6.27,-6.17,-6.70,4.53,4.53,4.54
62.80,10.71,6.21,10.71,6.21,-6.21,-6.11,-6.66,4.50,4.50,4.50
63.43,10.62,6.14,10.62,6.14,-6.14,-6.06,-6.61,4.48,4.48,4.48
64.07,10.52,6.08,10.52,6.08,-6.08,-6.01,-6.55,4.45,4.45,4.44
64.71,10.43,6.02,10.43,6.01,-6.01,-5.95,-6.49,4.42,4.42,4.41
65.35,10.32,5.93,10.33,5.94,-5.94,-5.90,-6.43,4.38,4.39,4.39
66.01,10.23,5.87,10.23,5.87,-5.87,-5.84,-6.36,4.36,4.36,4.36
66.67,10.13,5.80,10.13,5.80,-5.80,-5.79,-6.28,4.33,4.33,4.33
67.33,10.02,5.72,10.03,5.73,-5.73,-5.73,-6.20,4.29,4.30,4.30
68.01,9.92,5.65,9.92,5.65,-5.66,-5.67,-6.12,4.27,4.27,4.27
68.69,9.82,5.58,9.82,5.58,-5.59,-5.61,-6.03,4.24,4.24,4.24
69.37,9.72,5.51,9.72,5.51,-5.51,-5.55,-5.94,4.21,4.21,4.21
70.07,9.62,5.45,9.62,5.45,-5.44,-5.49,-5.84,4.18,4.18,4.17
70.77,9.51,5.37,9.51,5.38,-5.37,-5.43,-5.75,4.14,4.14,4.14
71.48,9.41,5.32,9.41,5.31,-5.30,-5.37,-5.65,4.11,4.10,4.10
72.19,9.29,5.23,9.30,5.24,-5.23,-5.31,-5.55,4.06,4.06,4.06
72.91,9.19,5.17,9.19,5.16,-5.16,-5.25,-5.44,4.03,4.03,4.02
73.64,9.08,5.09,9.08,5.09,-5.09,-5.18,-5.34,3.99,3.99,3.99
74.38,8.97,5.01,8.98,5.02,-5.02,-5.12,-5.24,3.95,3.96,3.96
75.12,8.87,4.95,8.87,4.95,-4.95,-5.05,-5.14,3.92,3.92,3.92
75.87,8.76,4.88,8.76,4.88,-4.88,-4.99,-5.03,3.88,3.88,3.88
76.63,8.65,4.81,8.65,4.81,-4.81,-4.92,-4.93,3.84,3.84,3.84
77.40,8.54,4.74,8.54,4.74,-4.74,-4.85,-4.83,3.80,3.80,3.80
78.17,8.43,4.67,8.43,4.67,-4.67,-4.78,-4.73,3.76,3.76,3.76
78.95,8.32,4.60,8.32,4.60,-4.60,-4.71,-4.64,3.72,3.72,3.72
79.74,8.21,4.54,8.21,4.54,-4.54,-4.64,-4.54,3.67,3.67,3.67
80.54,8.10,4.47,8.10,4.47,-4.47,-4.57,-4.45,3.63,3.63,3.63
81.35,7.99,4.40,7.99,4.40,-4.40,-4.49,-4.36,3.59,3.59,3.59
82.16,7.88,4.33,7.88,4.33,-4.33,-4.42,-4.27,3.55,3.55,3.55
82.98,7.77,4.27,7.77,4.27,-4.27,-4.35,-4.18,3.51,3.51,3.50
83.81,7.66,4.20,7.66,4.20,-4.20,-4.27,-4.10,3.46,3.46,3.47
84.65,7.55,4.13,7.55,4.13,-4.13,-4.20,-4.02,3.42,3.42,3.42
85.50,7.43,4.06,7.43,4.06,-4.06,-4.13,-3.94,3.37,3.37,3.37
86.35,7.32,3.99,7.32,3.99,-3.99,-4.05,-3.86,3.33,3.33,3.33
87.22,7.20,3.92,7.21,3.93,-3.93,-3.98,-3.79,3.27,3.28,3.28
88.09,7.10,3.87,7.10,3.86,-3.86,-3.91,-3.72,3.24,3.23,3.23
88.97,6.98,3.79,6.98,3.80,-3.80,-3.83,-3.65,3.18,3.19,3.19
89.86,6.87,3.73,6.87,3.73,-3.73,-3.76,-3.59,3.14,3.14,3.14
90.76,6.76,3.67,6.76,3.67,-3.67,-3.69,-3.53,3.09,3.09,3.10
91.66,6.65,3.61,6.65,3.61,-3.61,-3.63,-3.47,3.04,3.04,3.04
92.58,6.54,3.55,6.54,3.55,-3.55,-3.56,-3.41,2.99,2.99,2.99
93.51,6.43,3.49,6.43,3.49,-3.49,-3.50,-3.35,2.94,2.94,2.95
94.44,6.32,3.43,6.32,3.43,-3.43,-3.43,-3.30,2.89,2.89,2.89
95.39,6.21,3.37,6.21,3.37,-3.37,-3.37,-3.25,2.84,2.84,2.84
96.34,6.10,3.32,6.10,3.32,-3.32,-3.32,-3.21,2.78,2.78,2.78
97.30,5.99,3.26,5.99,3.26,-3.26,-3.26,-3.16,2.73,2.73,2.73
98.28,5.88,3.21,5.88,3.21,-3.21,-3.21,-3.12,2.67,2.67,2.67
99.26,5.77,3.16,5.77,3.16,-3.16,-3.15,-3.08,2.61,2.61,2.61
100.25,5.66,3.11,5.66,3.11,-3.11,-3.10,-3.04,2.55,2.55,2.55
101.25,5.55,3.06,5.55,3.06,-3.06,-3.06,-3.00,2.49,2.49,2.49
102.27,5.44,3.01,5.44,3.01,-3.01,-3.01,-2.97,2.43,2.43,2.43
103.29,5.33,2.96,5.33,2.96,-2.96,-2.96,-2.93,2.37,2.37,2.37
104.32,5.22,2.92,5.22,2.92,-2.91,-2.92,-2.90,2.31,2.31,2.31
105.37,5.12,2.87,5.12,2.87,-2.87,-2.88,-2.87,2.26,2.25,2.25
106.42,5.01,2.82,5.01,2.82,-2.82,-2.84,-2.84,2.19,2.19,2.19
107.48,4.90,2.76,4.91,2.77,-2.77,-2.80,-2.81,2.13,2.13,2.14
108.56,4.80,2.73,4.80,2.72,-2.72,-2.76,-2.78,2.08,2.07,2.07
109.64,4.69,2.68,4.69,2.68,-2.68,-2.72,-2.76,2.01,2.01,2.01
110.74,4.58,2.62,4.59,2.63,-2.63,-2.68,-2.73,1.95,1.96,1.96
111.85,4.48,2.59,4.48,2.59,-2.58,-2.64,-2.70,1.90,1.90,1.89
112.97,4.38,2.54,4.38,2.54,-2.54,-2.60,-2.68,1.84,1.84,1.84
114.10,4.27,2.50,4.27,2.50,-2.50,-2.57,-2.65,1.78,1.78,1.77
115.24,4.16,2.44,4.17,2.45,-2.45,-2.53,-2.63,1.71,1.71,1.72
116.39,4.06,2.42,4.06,2.41,-2.42,-2.49,-2.60,1.64,1.64,1.64
117.55,3.96,2.38,3.96,2.38,-2.38,-2.46,-2.57,1.58,1.58,1.58
118.73,3.86,2.35,3.86,2.35,-2.35,-2.42,-2.55,1.51,1.51,1.52
119.92,3.76,2.32,3.76,2.32,-2.32,-2.39,-2.52,1.44,1.44,1.44
121.12,3.67,2.30,3.67,2.30,-2.30,-2.35,-2.49,1.37,1.37,1.37
122.33,3.57,2.27,3.58,2.28,-2.28,-2.32,-2.46,1.29,1.30,1.30
123.55,3.49,2.27,3.49,2.26,-2.26,-2.29,-2.43,1.23,1.22,1.23
124.79,3.40,2.25,3.40,2.25,-2.25,-2.26,-2.40,1.16,1.15,1.15
126.03,3.30,2.23,3.31,2.23,-2.23,-2.22,-2.37,1.07,1.08,1.07
127.29,3.22,2.22,3.22,2.21,-2.21,-2.19,-2.34,1.01,1.01,1.00
128.57,3.13,2.20,3.13,2.20,-2.19,-2.16,-2.30,0.94,0.94,0.93
129.85,3.04,2.18,3.04,2.18,-2.17,-2.13,-2.27,0.87,0.87,0.87
131.15,2.96,2.15,2.96,2.15,-2.15,-2.10,-2.23,0.81,0.81,0.81
132.46,2.87,2.12,2.87,2.13,-2.13,-2.08,-2.19,0.74,0.75,0.75
133.79,2.79,2.10,2.79,2.10,-2.11,-2.05,-2.16,0.69,0.69,0.69
135.12,2.72,2.08,2.72,2.08,-2.08,-2.02,-2.12,0.64,0.64,0.64
136.48,2.64,2.05,2.65,2.06,-2.06,-2.00,-2.08,0.58,0.59,0.59
137.84,2.58,2.04,2.58,2.04,-2.03,-1.97,-2.04,0.55,0.54,0.54
139.22,2.51,2.02,2.51,2.01,-2.01,-1.95,-2.00,0.50,0.49,0.49
140.61,2.43,1.98,2.44,1.99,-1.99,-1.93,-1.96,0.44,0.45,0.45
142.02,2.37,1.96,2.37,1.96,-1.96,-1.90,-1.91,0.41,0.41,0.41
143.44,2.31,1.94,2.31,1.94,-1.94,-1.88,-1.87,0.37,0.37,0.37
144.87,2.24,1.91,2.25,1.92,-1.91,-1.86,-1.83,0.33,0.33,0.33
146.32,2.18,1.89,2.18,1.89,-1.89,-1.84,-1.79,0.30,0.30,0.29
147.78,2.12,1.86,2.12,1.86,-1.86,-1.82,-1.75,0.26,0.26,0.26
149.26,2.05,1.83,2.05,1.83,-1.83,-1.80,-1.70,0.22,0.22,0.22
150.75,1.98,1.80,1.99,1.80,-1.81,-1.78,-1.66,0.18,0.18,0.18
152.26,1.93,1.78,1.92,1.78,-1.78,-1.76,-1.62,0.15,0.14,0.15
153.78,1.86,1.75,1.87,1.75,-1.75,-1.74,-1.58,0.11,0.11,0.11
155.32,1.81,1.73,1.81,1.73,-1.73,-1.72,-1.54,0.08,0.08,0.08
156.88,1.75,1.71,1.75,1.71,-1.71,-1.70,-1.50,0.05,0.04,0.04
158.44,1.69,1.68,1.69,1.68,-1.68,-1.68,-1.46,0.01,0.01,0.01
160.03,1.64,1.66,1.64,1.66,-1.66,-1.65,-1.42,-0.02,-0.02,-0.02
161.63,1.58,1.63,1.58,1.64,-1.64,-1.63,-1.38,-0.06,-0.05,-0.05
163.24,1.53,1.61,1.53,1.62,-1.61,-1.60,-1.34,-0.08,-0.08,-0.08
164.88,1.48,1.59,1.48,1.59,-1.59,-1.58,-1.31,-0.11,-0.11,-0.11
166.53,1.43,1.56,1.43,1.57,-1.56,-1.55,-1.27,-0.13,-0.13,-0.13
168.19,1.37,1.53,1.37,1.53,-1.53,-1.52,-1.23,-0.16,-0.16,-0.16
169.87,1.32,1.51,1.32,1.50,-1.51,-1.49,-1.20,-0.19,-0.19,-0.19
171.57,1.26,1.47,1.27,1.48,-1.48,-1.45,-1.16,-0.22,-0.21,-0.21
173.29,1.22,1.45,1.22,1.45,-1.45,-1.42,-1.13,-0.23,-0.23,-0.23
175.02,1.16,1.42,1.17,1.42,-1.42,-1.39,-1.10,-0.26,-0.25,-0.26
176.77,1.12,1.39,1.12,1.39,-1.39,-1.35,-1.06,-0.27,-0.27,-0.27
178.54,1.06,1.36,1.07,1.36,-1.36,-1.31,-1.03,-0.30,-0.29,-0.30
180.32,1.02,1.33,1.02,1.33,-1.33,-1.28,-1.00,-0.31,-0.31,-0.31
182.13,0.96,1.29,0.96,1.30,-1.29,-1.24,-0.97,-0.33,-0.33,-0.33
183.95,0.91,1.26,0.91,1.26,-1.26,-1.20,-0.94,-0.35,-0.35,-0.35
185.79,0.86,1.23,0.86,1.23,-1.22,-1.17,-0.91,-0.36,-0.37,-0.36
187.65,0.80,1.19,0.80,1.19,-1.19,-1.13,-0.88,-0.39,-0.39,-0.39
189.52,0.74,1.15,0.75,1.15,-1.15,-1.09,-0.86,-0.41,-0.40,-0.41
191.42,0.69,1.11,0.69,1.11,-1.11,-1.05,-0.83,-0.42,-0.42,-0.42
193.33,0.64,1.08,0.64,1.07,-1.07,-1.02,-0.80,-0.43,-0.44,-0.43
195.27,0.58,1.03,0.59,1.04,-1.04,-0.98,-0.78,-0.46,-0.45,-0.45
197.22,0.54,1.01,0.53,1.00,-1.00,-0.95,-0.75,-0.46,-0.47,-0.47
199.19,0.48,0.96,0.48,0.97,-0.96,-0.91,-0.73,-0.48,-0.48,-0.48
201.18,0.43,0.93,0.43,0.93,-0.93,-0.88,-0.70,-0.50,-0.49,-0.49
203.19,0.39,0.90,0.38,0.89,-0.90,-0.85,-0.68,-0.50,-0.51,-0.51
205.23,0.33,0.86,0.34,0.86,-0.86,-0.82,-0.66,-0.53,-0.52,-0.53
207.28,0.29,0.83,0.29,0.83,-0.83,-0.79,-0.64,-0.54,-0.54,-0.54
209.35,0.24,0.80,0.24,0.79,-0.80,-0.76,-0.62,-0.55,-0.56,-0.55
211.44,0.19,0.76,0.20,0.77,-0.76,-0.73,-0.59,-0.57,-0.57,-0.57
213.56,0.15,0.73,0.15,0.73,-0.73,-0.70,-0.57,-0.58,-0.58,-0.58
215.69,0.11,0.71,0.11,0.70,-0.70,-0.68,-0.55,-0.59,-0.60,-0.60
217.85,0.06,0.67,0.06,0.67,-0.67,-0.65,-0.53,-0.61,-0.61,-0.61
220.03,0.02,0.64,0.02,0.64,-0.64,-0.63,-0.52,-0.62,-0.62,-0.62
222.23,-0.02,0.61,-0.02,0.61,-0.61,-0.60,-0.50,-0.63,-0.63,-0.63
224.45,-0.06,0.59,-0.06,0.58,-0.58,-0.58,-0.48,-0.64,-0.65,-0.64
226.70,-0.11,0.55,-0.10,0.55,-0.56,-0.56,-0.46,-0.66,-0.66,-0.66
228.96,-0.14,0.53,-0.14,0.53,-0.53,-0.54,-0.45,-0.67,-0.67,-0.67
231.25,-0.17,0.51,-0.18,0.50,-0.51,-0.52,-0.43,-0.67,-0.68,-0.68
233.57,-0.22,0.48,-0.21,0.48,-0.48,-0.50,-0.41,-0.70,-0.69,-0.70
235.90,-0.25,0.46,-0.25,0.46,-0.46,-0.48,-0.40,-0.71,-0.71,-0.71
238.26,-0.28,0.44,-0.28,0.44,-0.44,-0.46,-0.38,-0.72,-0.72,-0.72
240.64,-0.32,0.42,-0.31,0.42,-0.41,-0.44,-0.37,-0.73,-0.73,-0.73
243.05,-0.34,0.41,-0.35,0.40,-0.39,-0.42,-0.36,-0.73,-0.74,-0.74
245.48,-0.38,0.37,-0.38,0.37,-0.37,-0.41,-0.34,-0.75,-0.75,-0.75
247.93,-0.42,0.34,-0.41,0.35,-0.35,-0.39,-0.33,-0.77,-0.76,-0.76
250.41,-0.44,0.33,-0.44,0.33,-0.33,-0.38,-0.32,-0.77,-0.77,-0.77
252.92,-0.47,0.32,-0.47,0.31,-0.31,-0.36,-0.31,-0.78,-0.78,-0.79
255.45,-0.50,0.29,-0.50,0.30,-0.30,-0.35,-0.29,-0.79,-0.79,-0.79
258.00,-0.53,0.27,-0.53,0.28,-0.28,-0.34,-0.28,-0.81,-0.80,-0.80
260.58,-0.55,0.27,-0.55,0.26,-0.26,-0.32,-0.27,-0.81,-0.81,-0.82
263.19,-0.58,0.24,-0.58,0.25,-0.25,-0.31,-0.26,-0.83,-0.83,-0.82
265.82,-0.60,0.24,-0.60,0.24,-0.23,-0.30,-0.25,-0.83,-0.83,-0.84
268.48,-0.63,0.22,-0.63,0.22,-0.22,-0.29,-0.24,-0.85,-0.85,-0.85
271.16,-0.65,0.21,-0.65,0.21,-0.21,-0.28,-0.23,-0.85,-0.86,-0.86
273.87,-0.68,0.19,-0.68,0.19,-0.19,-0.26,-0.22,-0.87,-0.87,-0.87
276.61,-0.70,0.18,-0.70,0.18,-0.18,-0.25,-0.22,-0.88,-0.88,-0.88
279.38,-0.73,0.16,-0.73,0.16,-0.17,-0.24,-0.21,-0.90,-0.89,-0.89
282.17,-0.75,0.15,-0.75,0.15,-0.16,-0.23,-0.20,-0.91,-0.91,-0.90
284.99,-0.78,0.14,-0.78,0.14,-0.15,-0.22,-0.19,-0.93,-0.92,-0.92
287.84,-0.80,0.13,-0.79,0.14,-0.14,-0.22,-0.19,-0.94,-0.93,-0.93
290.72,-0.81,0.14,-0.81,0.13,-0.13,-0.21,-0.18,-0.94,-0.94,-0.95
293.63,-0.83,0.12,-0.83,0.13,-0.12,-0.20,-0.17,-0.95,-0.95,-0.95
296.57,-0.85,0.12,-0.85,0.12,-0.11,-0.19,-0.16,-0.96,-0.96,-0.97
299.53,-0.87,0.11,-0.87,0.11,-0.10,-0.18,-0.16,-0.97,-0.98,-0.98
302.53,-0.90,0.09,-0.89,0.10,-0.10,-0.17,-0.15,-0.99,-0.99,-0.98
305.55,-0.91,0.09,-0.91,0.08,-0.08,-0.17,-0.15,-0.99,-1.00,-1.00
308.61,-0.93,0.07,-0.93,0.07,-0.07,-0.16,-0.14,-1.00,-1.00,-1.00
311.69,-0.95,0.06,-0.95,0.06,-0.06,-0.15,-0.13,-1.01,-1.01,-1.01
314.81,-0.96,0.06,-0.96,0.05,-0.05,-0.14,-0.13,-1.01,-1.02,-1.02
317.96,-0.98,0.04,-0.98,0.05,-0.05,-0.14,-0.12,-1.02,-1.02,-1.02
321.14,-0.99,0.04,-0.99,0.04,-0.04,-0.13,-0.12,-1.02,-1.03,-1.02
324.35,-1.01,0.03,-1.01,0.03,-0.03,-0.13,-0.11,-1.04,-1.04,-1.04
327.59,-1.03,0.01,-1.02,0.02,-0.02,-0.12,-0.10,-1.05,-1.04,-1.04
330.87,-1.04,0.02,-1.04,0.01,-0.01,-0.11,-0.10,-1.05,-1.05,-1.05
334.18,-1.05,0.01,-1.06,0.00,0.00,-0.11,-0.09,-1.05,-1.05,-1.06
337.52,-1.08,-0.02,-1.07,-0.01,0.01,-0.10,-0.09,-1.07,-1.06,-1.06
340.90,-1.09,-0.02,-1.09,-0.02,0.02,-0.10,-0.08,-1.07,-1.07,-1.07
344.30,-1.11,-0.03,-1.11,-0.03,0.03,-0.09,-0.08,-1.08,-1.08,-1.07
347.75,-1.12,-0.03,-1.12,-0.03,0.03,-0.08,-0.07,-1.09,-1.09,-1.09
351.23,-1.13,-0.03,-1.13,-0.04,0.04,-0.08,-0.07,-1.09,-1.10,-1.10
354.74,-1.15,-0.04,-1.15,-0.04,0.04,-0.07,-0.06,-1.11,-1.10,-1.11
358.28,-1.17,-0.06,-1.16,-0.05,0.05,-0.07,-0.06,-1.12,-1.12,-1.11
361.87,-1.17,-0.04,-1.18,-0.05,0.05,-0.06,-0.05,-1.12,-1.13,-1.13
365.49,-1.19,-0.05,-1.19,-0.05,0.05,-0.06,-0.05,-1.14,-1.14,-1.14
369.14,-1.20,-0.05,-1.20,-0.05,0.05,-0.06,-0.04,-1.15,-1.15,-1.15
372.83,-1.21,-0.05,-1.21,-0.05,0.05,-0.05,-0.03,-1.16,-1.16,-1.16
376.56,-1.22,-0.05,-1.22,-0.05,0.05,-0.05,-0.03,-1.17,-1.17,-1.17
380.33,-1.23,-0.04,-1.23,-0.05,0.05,-0.04,-0.02,-1.18,-1.18,-1.18
384.13,-1.25,-0.05,-1.25,-0.05,0.05,-0.04,-0.02,-1.20,-1.19,-1.20
387.97,-1.26,-0.05,-1.26,-0.05,0.05,-0.03,-0.01,-1.21,-1.21,-1.21
391.85,-1.28,-0.06,-1.28,-0.06,0.06,-0.03,-0.01,-1.22,-1.22,-1.22
395.77,-1.29,-0.06,-1.29,-0.06,0.06,-0.02,-0.00,-1.23,-1.23,-1.23
399.73,-1.30,-0.06,-1.30,-0.06,0.06,-0.02,0.00,-1.24,-1.24,-1.24
403.72,-1.31,-0.07,-1.31,-0.06,0.06,-0.02,0.01,-1.25,-1.25,-1.24
407.76,-1.32,-0.06,-1.32,-0.06,0.06,-0.01,0.01,-1.26,-1.26,-1.25
411.84,-1.33,-0.06,-1.33,-0.06,0.06,-0.01,0.02,-1.27,-1.26,-1.27
415.96,-1.34,-0.06,-1.34,-0.06,0.06,-0.00,0.02,-1.27,-1.27,-1.28
420.12,-1.35,-0.06,-1.35,-0.06,0.07,-0.00,0.03,-1.28,-1.29,-1.29
424.32,-1.37,-0.07,-1.36,-0.07,0.07,0.00,0.04,-1.30,-1.30,-1.30
428.56,-1.38,-0.07,-1.38,-0.07,0.07,0.01,0.04,-1.31,-1.31,-1.31
432.85,-1.39,-0.07,-1.39,-0.07,0.07,0.01,0.05,-1.32,-1.32,-1.32
437.18,-1.41,-0.08,-1.41,-0.07,0.07,0.01,0.05,-1.34,-1.33,-1.33
441.55,-1.42,-0.08,-1.42,-0.07,0.07,0.02,0.06,-1.34,-1.35,-1.34
445.96,-1.44,-0.07,-1.44,-0.08,0.08,0.02,0.06,-1.36,-1.36,-1.36
450.42,-1.45,-0.07,-1.45,-0.08,0.08,0.03,0.07,-1.37,-1.38,-1.38
454.93,-1.47,-0.08,-1.47,-0.08,0.07,0.03,0.08,-1.39,-1.39,-1.39
459.48,-1.48,-0.07,-1.48,-0.07,0.07,0.03,0.08,-1.41,-1.41,-1.41
464.07,-1.49,-0.07,-1.49,-0.07,0.07,0.04,0.09,-1.42,-1.42,-1.42
468.71,-1.50,-0.07,-1.50,-0.07,0.07,0.04,0.09,-1.43,-1.43,-1.43
473.40,-1.51,-0.07,-1.51,-0.07,0.07,0.04,0.10,-1.44,-1.44,-1.44
478.13,-1.52,-0.06,-1.52,-0.06,0.07,0.05,0.10,-1.45,-1.45,-1.46
482.91,-1.53,-0.06,-1.53,-0.06,0.07,0.05,0.11,-1.46,-1.46,-1.47
