frequency,raw,error,smoothed,error_smoothed,equalization,parametric_eq,fixed_band_eq,equalized_raw,equalized_smoothed,target
20.00,-1.42,-6.77,-1.42,-6.77,6.03,5.71,0.94,4.61,4.61,5.36
20.20,-1.26,-6.61,-1.26,-6.62,6.03,5.63,0.97,4.77,4.77,5.36
20.40,-1.11,-6.47,-1.10,-6.46,6.02,5.55,1.00,4.91,4.92,5.36
20.61,-0.95,-6.32,-0.95,-6.31,5.99,5.46,1.04,5.04,5.04,5.36
20.81,-0.80,-6.16,-0.80,-6.16,5.95,5.38,1.07,5.15,5.15,5.36
21.02,-0.65,-6.01,-0.65,-6.02,5.89,5.29,1.10,5.25,5.25,5.36
21.23,-0.51,-5.88,-0.50,-5.88,5.82,5.21,1.14,5.31,5.32,5.37
21.44,-0.36,-5.74,-0.36,-5.74,5.74,5.13,1.18,5.38,5.38,5.38
21.66,-0.22,-5.60,-0.22,-5.60,5.62,5.04,1.21,5.40,5.40,5.38
21.87,-0.08,-5.47,-0.08,-5.46,5.49,4.96,1.25,5.41,5.41,5.39
22.09,0.06,-5.32,0.06,-5.32,5.35,4.87,1.29,5.41,5.41,5.38
22.31,0.20,-5.19,0.20,-5.18,5.20,4.78,1.33,5.40,5.40,5.39
22.54,0.33,-5.05,0.34,-5.05,5.05,4.70,1.37,5.38,5.39,5.38
22.76,0.47,-4.92,0.47,-4.92,4.92,4.61,1.42,5.39,5.38,5.39
22.99,0.60,-4.79,0.60,-4.78,4.78,4.52,1.46,5.38,5.38,5.39
23.22,0.73,-4.65,0.73,-4.65,4.65,4.44,1.51,5.38,5.38,5.38
23.45,0.86,-4.51,0.86,-4.51,4.51,4.35,1.55,5.38,5.38,5.38
23.69,1.00,-4.38,1.00,-4.37,4.38,4.26,1.60,5.38,5.38,5.38
23.92,1.13,-4.24,1.13,-4.24,4.25,4.17,1.65,5.38,5.38,5.37
24.16,1.26,-4.11,1.26,-4.12,4.12,4.08,1.69,5.38,5.38,5.37
24.40,1.38,-4.00,1.39,-3.99,3.99,3.99,1.74,5.37,5.37,5.38
24.65,1.51,-3.87,1.51,-3.87,3.86,3.90,1.79,5.37,5.37,5.38
24.89,1.64,-3.74,1.64,-3.74,3.73,3.81,1.84,5.37,5.37,5.38
25.14,1.77,-3.60,1.77,-3.60,3.60,3.72,1.89,5.37,5.38,5.37
25.39,1.90,-3.47,1.90,-3.47,3.47,3.63,1.94,5.38,5.38,5.37
25.65,2.03,-3.34,2.03,-3.34,3.35,3.54,1.99,5.38,5.38,5.37
25.91,2.15,-3.22,2.15,-3.22,3.22,3.45,2.04,5.37,5.37,5.37
26.16,2.27,-3.10,2.27,-3.10,3.10,3.36,2.08,5.37,5.37,5.38
26.43,2.39,-2.99,2.39,-2.98,2.97,3.27,2.13,5.36,5.37,5.38
26.69,2.51,-2.85,2.51,-2.86,2.86,3.18,2.18,5.37,5.37,5.36
26.96,2.63,-2.73,2.63,-2.74,2.74,3.09,2.22,5.37,5.37,5.36
27.23,2.74,-2.62,2.74,-2.62,2.62,2.99,2.26,5.36,5.37,5.36
27.50,2.85,-2.51,2.85,-2.51,2.51,2.90,2.30,5.36,5.36,5.36
27.77,2.96,-2.41,2.96,-2.40,2.40,2.81,2.34,5.36,5.36,5.37
28.05,3.07,-2.30,3.07,-2.29,2.29,2.72,2.38,5.36,5.36,5.37
28.33,3.17,-2.18,3.17,-2.19,2.19,2.62,2.41,5.36,5.36,5.36
28.62,3.28,-2.07,3.28,-2.08,2.08,2.53,2.44,5.36,5.36,5.35
28.90,3.37,-1.99,3.37,-1.98,1.98,2.44,2.46,5.35,5.36,5.36
29.19,3.47,-1.89,3.47,-1.89,1.88,2.34,2.48,5.35,5.35,5.36
29.48,3.56,-1.79,3.56,-1.79,1.79,2.25,2.49,5.35,5.35,5.35
29.78,3.66,-1.69,3.66,-1.69,1.69,2.16,2.50,5.35,5.35,5.35
30.08,3.75,-1.61,3.75,-1.60,1.60,2.06,2.51,5.35,5.35,5.36
30.38,3.84,-1.50,3.84,-1.51,1.51,1.97,2.51,5.35,5.35,5.34
30.68,3.92,-1.43,3.92,-1.43,1.43,1.87,2.50,5.35,5.35,5.35
30.99,4.00,-1.35,4.00,-1.34,1.34,1.78,2.49,5.34,5.35,5.35
31.30,4.09,-1.26,4.08,-1.27,1.26,1.69,2.47,5.35,5.35,5.35
31.61,4.16,-1.19,4.16,-1.18,1.19,1.59,2.45,5.35,5.35,5.36
31.93,4.24,-1.10,4.24,-1.11,1.11,1.50,2.42,5.35,5.35,5.34
32.24,4.31,-1.04,4.31,-1.04,1.04,1.41,2.39,5.35,5.35,5.35
32.57,4.38,-0.97,4.38,-0.97,0.97,1.31,2.35,5.35,5.35,5.35
32.89,4.44,-0.90,4.44,-0.90,0.90,1.22,2.30,5.34,5.35,5.35
33.22,4.51,-0.83,4.51,-0.83,0.83,1.13,2.25,5.34,5.34,5.34
33.55,4.57,-0.77,4.57,-0.77,0.76,1.04,2.19,5.33,5.34,5.34
33.89,4.64,-0.70,4.64,-0.69,0.69,0.94,2.13,5.33,5.33,5.34
34.23,4.70,-0.62,4.70,-0.62,0.62,0.85,2.07,5.32,5.32,5.32
34.57,4.77,-0.54,4.77,-0.55,0.54,0.76,2.00,5.32,5.31,5.31
34.92,4.83,-0.47,4.83,-0.47,0.47,0.67,1.92,5.30,5.30,5.30
35.27,4.89,-0.40,4.89,-0.39,0.39,0.58,1.85,5.28,5.28,5.29
35.62,4.96,-0.30,4.95,-0.31,0.31,0.49,1.77,5.27,5.26,5.26
35.97,5.01,-0.23,5.01,-0.23,0.23,0.40,1.68,5.24,5.24,5.25
36.33,5.07,-0.15,5.07,-0.15,0.15,0.31,1.60,5.22,5.22,5.22
36.70,5.13,-0.07,5.13,-0.07,0.07,0.22,1.51,5.20,5.20,5.20
37.06,5.19,0.02,5.19,0.02,-0.01,0.13,1.42,5.18,5.18,5.18
37.43,5.24,0.09,5.24,0.09,-0.09,0.05,1.33,5.15,5.15,5.15
37.81,5.30,0.17,5.30,0.17,-0.17,-0.04,1.23,5.13,5.13,5.13
38.19,5.35,0.24,5.35,0.25,-0.25,-0.12,1.14,5.10,5.11,5.11
38.57,5.41,0.32,5.41,0.32,-0.32,-0.21,1.04,5.09,5.08,5.09
38.95,5.46,0.40,5.46,0.40,-0.40,-0.29,0.94,5.06,5.06,5.06
39.34,5.51,0.47,5.51,0.48,-0.47,-0.37,0.84,5.04,5.04,5.04
39.74,5.56,0.55,5.56,0.54,-0.54,-0.45,0.74,5.02,5.02,5.01
40.14,5.60,0.60,5.60,0.61,-0.61,-0.53,0.64,5.00,5.00,5.00
40.54,5.64,0.66,5.65,0.67,-0.67,-0.61,0.54,4.97,4.97,4.98
40.94,5.69,0.74,5.69,0.73,-0.73,-0.69,0.44,4.96,4.95,4.96
41.35,5.73,0.79,5.73,0.79,-0.80,-0.76,0.34,4.94,4.94,4.94
41.76,5.77,0.86,5.77,0.86,-0.86,-0.84,0.24,4.92,4.92,4.91
42.18,5.81,0.91,5.81,0.91,-0.91,-0.91,0.14,4.90,4.89,4.90
42.60,5.84,0.97,5.85,0.97,-0.97,-0.98,0.03,4.87,4.87,4.87
43.03,5.88,1.03,5.88,1.03,-1.03,-1.05,-0.07,4.85,4.85,4.85
43.46,5.91,1.09,5.91,1.08,-1.08,-1.11,-0.17,4.83,4.83,4.83
43.90,5.94,1.13,5.94,1.14,-1.13,-1.18,-0.28,4.81,4.81,4.81
44.33,5.97,1.19,5.97,1.18,-1.18,-1.24,-0.38,4.79,4.78,4.78
44.78,5.99,1.23,5.99,1.23,-1.23,-1.30,-0.48,4.76,4.76,4.76
45.23,6.02,1.27,6.02,1.28,-1.28,-1.36,-0.59,4.74,4.74,4.75
45.68,6.05,1.34,6.05,1.33,-1.33,-1.42,-0.69,4.72,4.72,4.72
46.13,6.08,1.40,6.08,1.39,-1.38,-1.47,-0.80,4.70,4.69,4.69
46.60,6.09,1.43,6.10,1.43,-1.43,-1.52,-0.90,4.66,4.67,4.66
47.06,6.11,1.47,6.11,1.48,-1.48,-1.57,-1.01,4.63,4.63,4.64
47.53,6.13,1.52,6.13,1.53,-1.53,-1.62,-1.11,4.60,4.60,4.61
48.01,6.14,1.58,6.14,1.58,-1.58,-1.67,-1.21,4.56,4.56,4.56
48.49,6.15,1.62,6.15,1.63,-1.63,-1.71,-1.32,4.52,4.52,4.53
48.97,6.16,1.68,6.16,1.68,-1.68,-1.75,-1.42,4.48,4.48,4.49
49.46,6.17,1.72,6.17,1.73,-1.72,-1.79,-1.53,4.45,4.45,4.45
49.96,6.18,1.79,6.18,1.78,-1.77,-1.83,-1.63,4.41,4.41,4.39
50.46,6.18,1.82,6.18,1.82,-1.82,-1.87,-1.74,4.37,4.37,4.36
50.96,6.18,1.85,6.19,1.86,-1.86,-1.90,-1.84,4.32,4.33,4.33
51.47,6.19,1.90,6.19,1.90,-1.90,-1.94,-1.94,4.29,4.29,4.29
51.99,6.19,1.94,6.19,1.94,-1.94,-1.97,-2.04,4.26,4.26,4.25
52.51,6.19,1.97,6.19,1.97,-1.97,-2.00,-2.14,4.22,4.21,4.22
53.03,6.18,2.00,6.18,2.00,-2.01,-2.04,-2.24,4.17,4.17,4.18
53.56,6.17,2.03,6.18,2.04,-2.04,-2.07,-2.34,4.13,4.13,4.14
54.10,6.18,2.09,6.18,2.08,-2.08,-2.10,-2.43,4.10,4.10,4.09
54.64,6.17,2.11,6.17,2.12,-2.11,-2.13,-2.53,4.06,4.06,4.06
55.18,6.17,2.15,6.17,2.15,-2.14,-2.17,-2.62,4.03,4.03,4.02
55.74,6.16,2.18,6.16,2.17,-2.18,-2.20,-2.71,3.99,3.99,3.98
56.29,6.16,2.21,6.16,2.20,-2.21,-2.23,-2.79,3.96,3.95,3.96
56.86,6.15,2.21,6.16,2.23,-2.23,-2.27,-2.87,3.92,3.92,3.94
57.42,6.16,2.27,6.16,2.26,-2.26,-2.30,-2.95,3.90,3.90,3.89
58.00,6.16,2.30,6.16,2.29,-2.29,-2.33,-3.02,3.87,3.87,3.86
58.58,6.16,2.32,6.16,2.32,-2.32,-2.37,-3.09,3.84,3.84,3.84
59.16,6.15,2.34,6.15,2.35,-2.35,-2.40,-3.15,3.80,3.80,3.81
59.76,6.15,2.37,6.15,2.38,-2.39,-2.43,-3.21,3.76,3.76,3.78
60.35,6.15,2.43,6.15,2.42,-2.43,-2.47,-3.27,3.72,3.72,3.73
60.96,6.15,2.47,6.15,2.47,-2.47,-2.50,-3.32,3.68,3.67,3.68
61.57,6.14,2.52,6.14,2.52,-2.51,-2.53,-3.36,3.63,3.63,3.62
62.18,6.13,2.56,6.14,2.57,-2.56,-2.56,-3.40,3.58,3.58,3.57
62.80,6.13,2.61,6.13,2.61,-2.60,-2.59,-3.43,3.53,3.53,3.52
63.43,6.12,2.64,6.12,2.64,-2.64,-2.62,-3.46,3.49,3.49,3.48
64.07,6.11,2.67,6.11,2.67,-2.67,-2.65,-3.48,3.44,3.44,3.44
64.71,6.10,2.70,6.10,2.70,-2.70,-2.68,-3.49,3.40,3.40,3.40
65.35,6.09,2.73,6.09,2.73,-2.73,-2.70,-3.51,3.36,3.36,3.36
66.01,6.08,2.76,6.08,2.76,-2.76,-2.73,-3.51,3.32,3.32,3.32
66.67,6.07,2.78,6.07,2.79,-2.79,-2.76,-3.51,3.28,3.28,3.29
67.33,6.06,2.82,6.06,2.82,-2.82,-2.79,-3.51,3.24,3.24,3.24
68.01,6.05,2.85,6.05,2.85,-2.85,-2.82,-3.51,3.20,3.21,3.20
68.69,6.05,2.89,6.05,2.88,-2.88,-2.85,-3.50,3.17,3.17,3.16
69.37,6.03,2.90,6.04,2.91,-2.91,-2.89,-3.48,3.12,3.13,3.13
70.07,6.03,2.94,6.03,2.94,-2.95,-2.92,-3.47,3.09,3.08,3.09
70.77,6.02,2.97,6.02,2.97,-2.98,-2.95,-3.45,3.04,3.04,3.05
71.48,6.02,3.02,6.02,3.01,-3.02,-2.99,-3.43,3.00,3.00,3.01
72.19,6.01,3.05,6.02,3.06,-3.06,-3.02,-3.41,2.95,2.96,2.96
72.91,6.02,3.11,6.02,3.10,-3.10,-3.06,-3.39,2.92,2.92,2.91
73.64,6.01,3.14,6.01,3.14,-3.14,-3.10,-3.36,2.87,2.87,2.87
74.38,6.01,3.18,6.01,3.18,-3.18,-3.14,-3.34,2.83,2.83,2.83
75.12,6.01,3.22,6.01,3.22,-3.22,-3.18,-3.32,2.79,2.79,2.79
75.87,6.01,3.25,6.01,3.25,-3.25,-3.21,-3.29,2.76,2.76,2.76
76.63,6.01,3.29,6.01,3.28,-3.28,-3.25,-3.27,2.73,2.73,2.72
77.40,6.00,3.30,6.00,3.31,-3.31,-3.28,-3.25,2.69,2.70,2.70
78.17,6.00,3.34,6.00,3.33,-3.33,-3.31,-3.22,2.67,2.67,2.66
78.95,5.98,3.34,5.98,3.35,-3.35,-3.33,-3.20,2.63,2.64,2.64
79.74,5.97,3.36,5.97,3.36,-3.36,-3.35,-3.18,2.61,2.61,2.61
80.54,5.95,3.37,5.95,3.37,-3.37,-3.36,-3.17,2.58,2.58,2.58
81.35,5.93,3.39,5.93,3.38,-3.38,-3.37,-3.15,2.55,2.55,2.54
82.16,5.91,3.38,5.91,3.39,-3.39,-3.37,-3.14,2.52,2.52,2.53
82.98,5.88,3.39,5.89,3.39,-3.39,-3.37,-3.12,2.49,2.49,2.49
83.81,5.86,3.40,5.86,3.40,-3.39,-3.36,-3.12,2.47,2.46,2.47
84.65,5.83,3.40,5.83,3.40,-3.39,-3.35,-3.11,2.44,2.43,2.43
85.50,5.79,3.39,5.80,3.39,-3.39,-3.34,-3.10,2.40,2.40,2.40
86.35,5.76,3.39,5.76,3.39,-3.39,-3.34,-3.10,2.37,2.37,2.37
87.22,5.72,3.37,5.72,3.38,-3.38,-3.33,-3.10,2.34,2.34,2.35
88.09,5.69,3.38,5.69,3.38,-3.38,-3.32,-3.10,2.31,2.31,2.31
88.97,5.65,3.36,5.65,3.37,-3.37,-3.32,-3.10,2.28,2.28,2.29
89.86,5.62,3.37,5.62,3.37,-3.37,-3.31,-3.11,2.26,2.25,2.25
90.76,5.58,3.36,5.58,3.36,-3.36,-3.31,-3.12,2.22,2.22,2.22
91.66,5.55,3.37,5.55,3.36,-3.36,-3.31,-3.13,2.19,2.19,2.18
92.58,5.51,3.35,5.52,3.36,-3.36,-3.31,-3.14,2.15,2.16,2.16
93.51,5.49,3.37,5.49,3.36,-3.36,-3.32,-3.16,2.13,2.12,2.13
94.44,5.46,3.36,5.46,3.36,-3.37,-3.32,-3.18,2.09,2.09,2.10
95.39,5.43,3.37,5.43,3.37,-3.38,-3.33,-3.20,2.05,2.05,2.06
96.34,5.40,3.39,5.40,3.39,-3.39,-3.34,-3.22,2.01,2.01,2.01
97.30,5.37,3.39,5.37,3.40,-3.40,-3.35,-3.24,1.97,1.97,1.98
98.28,5.35,3.42,5.35,3.42,-3.41,-3.36,-3.27,1.94,1.94,1.93
99.26,5.31,3.43,5.32,3.43,-3.42,-3.37,-3.30,1.89,1.90,1.89
100.25,5.29,3.44,5.29,3.44,-3.43,-3.39,-3.33,1.86,1.86,1.85
101.25,5.26,3.44,5.26,3.44,-3.44,-3.40,-3.36,1.82,1.82,1.82
102.27,5.23,3.44,5.23,3.44,-3.45,-3.42,-3.39,1.78,1.78,1.79
103.29,5.20,3.45,5.20,3.45,-3.45,-3.43,-3.43,1.75,1.75,1.75
104.32,5.17,3.46,5.17,3.46,-3.46,-3.45,-3.46,1.71,1.72,1.72
105.37,5.15,3.47,5.15,3.47,-3.46,-3.47,-3.50,1.69,1.68,1.68
106.42,5.12,3.47,5.12,3.47,-3.47,-3.49,-3.53,1.65,1.65,1.65
107.48,5.09,3.48,5.09,3.48,-3.48,-3.51,-3.57,1.62,1.62,1.61
108.56,5.06,3.48,5.06,3.48,-3.48,-3.53,-3.60,1.58,1.58,1.58
109.64,5.03,3.49,5.03,3.49,-3.49,-3.54,-3.64,1.54,1.54,1.54
110.74,5.00,3.49,5.00,3.50,-3.50,-3.56,-3.67,1.50,1.51,1.51
111.85,4.98,3.51,4.98,3.51,-3.51,-3.58,-3.71,1.47,1.47,1.47
112.97,4.95,3.52,4.95,3.52,-3.52,-3.60,-3.74,1.43,1.43,1.43
114.10,4.92,3.53,4.92,3.53,-3.54,-3.62,-3.77,1.38,1.38,1.39
115.24,4.88,3.54,4.89,3.55,-3.55,-3.64,-3.80,1.33,1.33,1.34
116.39,4.86,3.58,4.86,3.57,-3.57,-3.66,-3.83,1.29,1.28,1.28
117.55,4.83,3.60,4.83,3.60,-3.59,-3.68,-3.85,1.24,1.23,1.23
118.73,4.79,3.62,4.80,3.62,-3.61,-3.70,-3.87,1.18,1.18,1.17
119.92,4.76,3.64,4.76,3.64,-3.64,-3.71,-3.89,1.13,1.13,1.12
121.12,4.73,3.65,4.73,3.65,-3.66,-3.73,-3.91,1.07,1.07,1.08
122.33,4.69,3.68,4.70,3.68,-3.68,-3.75,-3.92,1.01,1.02,1.02
123.55,4.66,3.70,4.66,3.70,-3.70,-3.76,-3.93,0.96,0.96,0.96
124.79,4.63,3.73,4.63,3.72,-3.73,-3.78,-3.93,0.91,0.90,0.90
126.03,4.59,3.75,4.59,3.75,-3.75,-3.79,-3.94,0.84,0.84,0.84
127.29,4.55,3.77,4.55,3.77,-3.77,-3.81,-3.93,0.78,0.78,0.78
128.57,4.52,3.80,4.52,3.80,-3.80,-3.82,-3.93,0.73,0.72,0.72
129.85,4.48,3.82,4.48,3.82,-3.82,-3.83,-3.92,0.66,0.67,0.66
131.15,4.45,3.84,4.45,3.84,-3.84,-3.84,-3.91,0.62,0.61,0.61
132.46,4.41,3.85,4.41,3.86,-3.85,-3.85,-3.90,0.56,0.56,0.56
133.79,4.38,3.87,4.38,3.87,-3.87,-3.86,-3.88,0.51,0.51,0.51
135.12,4.35,3.88,4.35,3.87,-3.88,-3.86,-3.86,0.47,0.47,0.47
136.48,4.31,3.87,4.32,3.89,-3.88,-3.87,-3.84,0.43,0.43,0.44
137.84,4.29,3.89,4.28,3.89,-3.89,-3.87,-3.82,0.40,0.40,0.40
139.22,4.25,3.90,4.25,3.89,-3.89,-3.87,-3.79,0.36,0.36,0.35
140.61,4.21,3.88,4.22,3.89,-3.89,-3.87,-3.77,0.32,0.33,0.33
142.02,4.18,3.88,4.18,3.88,-3.88,-3.87,-3.74,0.30,0.30,0.30
143.44,4.15,3.88,4.15,3.88,-3.88,-3.87,-3.71,0.27,0.27,0.27
144.87,4.11,3.86,4.12,3.87,-3.87,-3.87,-3.68,0.24,0.24,0.25
146.32,4.08,3.86,4.08,3.86,-3.86,-3.86,-3.65,0.22,0.22,0.22
147.78,4.04,3.85,4.04,3.85,-3.85,-3.85,-3.62,0.19,0.19,0.19
149.26,4.00,3.84,4.00,3.84,-3.84,-3.84,-3.60,0.16,0.16,0.16
150.75,3.96,3.84,3.96,3.83,-3.83,-3.83,-3.57,0.13,0.13,0.12
152.26,3.92,3.81,3.92,3.82,-3.82,-3.82,-3.54,0.10,0.10,0.11
153.78,3.88,3.81,3.88,3.81,-3.81,-3.81,-3.52,0.07,0.07,0.07
155.32,3.84,3.79,3.84,3.79,-3.80,-3.80,-3.49,0.05,0.04,0.05
156.88,3.79,3.78,3.80,3.79,-3.79,-3.78,-3.47,0.01,0.01,0.01
158.44,3.75,3.78,3.75,3.78,-3.78,-3.77,-3.45,-0.03,-0.03,-0.03
160.03,3.71,3.77,3.71,3.77,-3.77,-3.76,-3.43,-0.06,-0.06,-0.06
161.63,3.66,3.75,3.67,3.76,-3.76,-3.75,-3.42,-0.10,-0.10,-0.09
163.24,3.62,3.76,3.63,3.76,-3.76,-3.75,-3.40,-0.14,-0.13,-0.13
164.88,3.59,3.77,3.59,3.76,-3.76,-3.74,-3.39,-0.16,-0.17,-0.17
166.53,3.55,3.76,3.55,3.76,-3.75,-3.74,-3.38,-0.20,-0.20,-0.21
168.19,3.50,3.74,3.51,3.75,-3.75,-3.74,-3.37,-0.25,-0.24,-0.24
169.87,3.47,3.75,3.47,3.74,-3.75,-3.74,-3.36,-0.28,-0.28,-0.28
171.57,3.43,3.74,3.43,3.74,-3.74,-3.75,-3.36,-0.31,-0.31,-0.31
173.29,3.40,3.74,3.40,3.74,-3.74,-3.75,-3.36,-0.34,-0.34,-0.34
175.02,3.36,3.74,3.36,3.74,-3.74,-3.76,-3.37,-0.38,-0.38,-0.38
176.77,3.32,3.73,3.33,3.74,-3.74,-3.77,-3.37,-0.41,-0.41,-0.41
178.54,3.29,3.73,3.29,3.73,-3.73,-3.78,-3.38,-0.44,-0.44,-0.44
180.32,3.26,3.74,3.26,3.73,-3.73,-3.78,-3.39,-0.47,-0.48,-0.48
182.13,3.22,3.73,3.22,3.73,-3.73,-3.79,-3.40,-0.51,-0.51,-0.51
183.95,3.18,3.73,3.19,3.73,-3.73,-3.80,-3.42,-0.55,-0.54,-0.54
185.79,3.16,3.74,3.15,3.73,-3.73,-3.81,-3.44,-0.57,-0.58,-0.58
187.65,3.12,3.73,3.12,3.73,-3.73,-3.81,-3.45,-0.61,-0.61,-0.61
189.52,3.09,3.74,3.09,3.73,-3.74,-3.82,-3.48,-0.64,-0.64,-0.65
191.42,3.06,3.73,3.06,3.73,-3.74,-3.82,-3.50,-0.68,-0.68,-0.67
193.33,3.04,3.75,3.04,3.74,-3.74,-3.82,-3.53,-0.70,-0.71,-0.70
195.27,3.00,3.74,3.01,3.75,-3.75,-3.82,-3.56,-0.75,-0.74,-0.74
197.22,2.98,3.76,2.98,3.76,-3.75,-3.82,-3.59,-0.77,-0.77,-0.78
199.19,2.95,3.76,2.95,3.76,-3.75,-3.81,-3.62,-0.80,-0.80,-0.81
201.18,2.92,3.76,2.92,3.76,-3.76,-3.81,-3.66,-0.83,-0.83,-0.83
203.19,2.90,3.76,2.90,3.76,-3.76,-3.80,-3.69,-0.85,-0.86,-0.86
205.23,2.86,3.75,2.87,3.75,-3.75,-3.79,-3.73,-0.89,-0.89,-0.89
207.28,2.84,3.75,2.84,3.75,-3.75,-3.78,-3.77,-0.91,-0.92,-0.91
209.35,2.80,3.75,2.80,3.75,-3.75,-3.77,-3.80,-0.95,-0.94,-0.95
211.44,2.77,3.74,2.77,3.74,-3.74,-3.76,-3.84,-0.97,-0.97,-0.97
213.56,2.74,3.73,2.74,3.73,-3.74,-3.75,-3.88,-0.99,-0.99,-0.99
215.69,2.71,3.73,2.71,3.73,-3.73,-3.73,-3.92,-1.02,-1.02,-1.02
217.85,2.68,3.72,2.68,3.72,-3.72,-3.72,-3.95,-1.04,-1.04,-1.04
220.03,2.64,3.71,2.64,3.71,-3.71,-3.70,-3.99,-1.07,-1.07,-1.07
222.23,2.61,3.70,2.61,3.70,-3.70,-3.68,-4.02,-1.09,-1.09,-1.09
224.45,2.57,3.69,2.57,3.69,-3.69,-3.66,-4.05,-1.12,-1.11,-1.11
226.70,2.54,3.68,2.54,3.68,-3.67,-3.64,-4.08,-1.13,-1.13,-1.14
228.96,2.51,3.66,2.51,3.66,-3.66,-3.62,-4.11,-1.15,-1.15,-1.15
231.25,2.47,3.64,2.47,3.64,-3.64,-3.60,-4.13,-1.17,-1.17,-1.17
233.57,2.43,3.62,2.44,3.63,-3.63,-3.58,-4.15,-1.20,-1.19,-1.19
235.90,2.40,3.62,2.40,3.61,-3.61,-3.56,-4.17,-1.21,-1.21,-1.22
238.26,2.36,3.60,2.36,3.59,-3.59,-3.54,-4.18,-1.23,-1.23,-1.24
240.64,2.32,3.56,2.33,3.57,-3.57,-3.52,-4.18,-1.25,-1.24,-1.24
243.05,2.29,3.55,2.29,3.54,-3.55,-3.49,-4.19,-1.26,-1.26,-1.25
245.48,2.25,3.52,2.25,3.52,-3.52,-3.47,-4.18,-1.27,-1.27,-1.27
247.93,2.21,3.50,2.21,3.50,-3.50,-3.44,-4.17,-1.28,-1.28,-1.29
250.41,2.17,3.47,2.17,3.47,-3.47,-3.42,-4.16,-1.30,-1.30,-1.30
252.92,2.13,3.44,2.13,3.44,-3.44,-3.39,-4.14,-1.31,-1.31,-1.31
255.45,2.09,3.41,2.09,3.41,-3.41,-3.37,-4.12,-1.32,-1.32,-1.32
258.00,2.04,3.37,2.04,3.38,-3.38,-3.34,-4.09,-1.34,-1.33,-1.33
260.58,2.00,3.34,2.00,3.34,-3.34,-3.32,-4.05,-1.34,-1.34,-1.34
263.19,1.96,3.32,1.96,3.31,-3.31,-3.29,-4.01,-1.35,-1.35,-1.35
265.82,1.92,3.28,1.92,3.28,-3.28,-3.27,-3.97,-1.36,-1.36,-1.36
268.48,1.87,3.25,1.87,3.25,-3.25,-3.24,-3.92,-1.38,-1.38,-1.38
271.16,1.83,3.21,1.83,3.21,-3.22,-3.21,-3.87,-1.39,-1.39,-1.38
273.87,1.78,3.18,1.79,3.18,-3.19,-3.19,-3.81,-1.41,-1.40,-1.40
276.61,1.75,3.16,1.75,3.16,-3.16,-3.16,-3.75,-1.41,-1.41,-1.41
279.38,1.70,3.13,1.71,3.13,-3.13,-3.13,-3.69,-1.43,-1.42,-1.43
282.17,1.67,3.11,1.67,3.10,-3.10,-3.10,-3.62,-1.43,-1.43,-1.43
284.99,1.63,3.07,1.63,3.07,-3.07,-3.08,-3.56,-1.44,-1.44,-1.44
287.84,1.59,3.02,1.60,3.04,-3.04,-3.05,-3.49,-1.45,-1.45,-1.43
290.72,1.56,3.02,1.56,3.01,-3.01,-3.02,-3.42,-1.45,-1.45,-1.46
293.63,1.53,2.99,1.53,2.99,-2.99,-2.99,-3.34,-1.45,-1.46,-1.46
296.57,1.49,2.96,1.49,2.96,-2.96,-2.96,-3.27,-1.46,-1.46,-1.47
299.53,1.46,2.93,1.46,2.93,-2.93,-2.93,-3.20,-1.47,-1.47,-1.47
302.53,1.42,2.90,1.42,2.90,-2.90,-2.90,-3.12,-1.48,-1.48,-1.47
305.55,1.39,2.87,1.39,2.87,-2.87,-2.87,-3.05,-1.48,-1.48,-1.48
308.61,1.36,2.83,1.36,2.84,-2.84,-2.84,-2.97,-1.48,-1.48,-1.47
311.69,1.33,2.81,1.33,2.81,-2.81,-2.80,-2.90,-1.48,-1.48,-1.48
314.81,1.30,2.78,1.30,2.78,-2.78,-2.77,-2.83,-1.47,-1.47,-1.48
317.96,1.27,2.75,1.27,2.75,-2.74,-2.74,-2.76,-1.47,-1.47,-1.48
321.14,1.24,2.72,1.24,2.71,-2.71,-2.70,-2.68,-1.47,-1.48,-1.48
324.35,1.20,2.68,1.20,2.68,-2.68,-2.67,-2.61,-1.48,-1.48,-1.48
327.59,1.17,2.63,1.17,2.64,-2.65,-2.63,-2.54,-1.48,-1.48,-1.46
330.87,1.14,2.62,1.14,2.61,-2.62,-2.59,-2.48,-1.48,-1.48,-1.47
334.18,1.12,2.60,1.12,2.59,-2.58,-2.56,-2.41,-1.46,-1.47,-1.48
337.52,1.08,2.55,1.09,2.56,-2.55,-2.52,-2.35,-1.47,-1.47,-1.47
340.90,1.06,2.52,1.06,2.52,-2.52,-2.48,-2.28,-1.46,-1.46,-1.46
344.30,1.02,2.49,1.02,2.49,-2.49,-2.44,-2.22,-1.47,-1.46,-1.46
347.75,0.99,2.45,0.99,2.45,-2.46,-2.40,-2.16,-1.46,-1.46,-1.46
351.23,0.96,2.43,0.96,2.42,-2.42,-2.36,-2.10,-1.46,-1.46,-1.47
354.74,0.92,2.37,0.93,2.39,-2.39,-2.32,-2.05,-1.47,-1.46,-1.45
358.28,0.89,2.35,0.89,2.35,-2.35,-2.28,-1.99,-1.46,-1.46,-1.46
361.87,0.86,2.33,0.86,2.32,-2.32,-2.24,-1.94,-1.46,-1.46,-1.47
365.49,0.82,2.28,0.82,2.28,-2.28,-2.20,-1.88,-1.46,-1.46,-1.46
369.14,0.77,2.23,0.78,2.24,-2.24,-2.16,-1.83,-1.47,-1.46,-1.46
372.83,0.74,2.20,0.74,2.20,-2.20,-2.11,-1.78,-1.46,-1.46,-1.46
376.56,0.69,2.16,0.69,2.16,-2.16,-2.07,-1.74,-1.47,-1.46,-1.47
380.33,0.65,2.12,0.65,2.12,-2.11,-2.03,-1.69,-1.46,-1.46,-1.46
384.13,0.60,2.07,0.60,2.06,-2.06,-1.99,-1.64,-1.46,-1.46,-1.47
387.97,0.55,2.01,0.55,2.01,-2.01,-1.95,-1.60,-1.46,-1.46,-1.46
391.85,0.49,1.95,0.50,1.96,-1.96,-1.91,-1.56,-1.47,-1.46,-1.46
395.77,0.45,1.91,0.45,1.90,-1.91,-1.87,-1.52,-1.46,-1.46,-1.46
399.73,0.40,1.85,0.40,1.85,-1.85,-1.83,-1.48,-1.45,-1.46,-1.45
403.72,0.35,1.79,0.35,1.80,-1.80,-1.79,-1.44,-1.45,-1.45,-1.44
407.76,0.30,1.75,0.30,1.75,-1.75,-1.75,-1.40,-1.45,-1.45,-1.44
411.84,0.26,1.71,0.26,1.70,-1.70,-1.71,-1.37,-1.44,-1.44,-1.45
415.96,0.21,1.65,0.21,1.66,-1.65,-1.67,-1.33,-1.44,-1.44,-1.44
420.12,0.16,1.61,0.16,1.61,-1.60,-1.63,-1.30,-1.44,-1.44,-1.45
424.32,0.11,1.56,0.12,1.56,-1.56,-1.59,-1.26,-1.45,-1.44,-1.45
428.56,0.07,1.50,0.07,1.51,-1.51,-1.55,-1.23,-1.44,-1.44,-1.43
432.85,0.03,1.46,0.03,1.46,-1.47,-1.51,-1.20,-1.43,-1.44,-1.43
437.18,-0.03,1.41,-0.02,1.42,-1.42,-1.47,-1.17,-1.45,-1.44,-1.44
441.55,-0.06,1.39,-0.06,1.38,-1.38,-1.43,-1.14,-1.43,-1.44,-1.44
445.96,-0.11,1.34,-0.11,1.33,-1.33,-1.39,-1.11,-1.44,-1.44,-1.44
450.42,-0.16,1.29,-0.15,1.29,-1.29,-1.35,-1.08,-1.45,-1.44,-1.45
454.93,-0.20,1.25,-0.20,1.25,-1.24,-1.31,-1.05,-1.44,-1.44,-1.45
459.48,-0.24,1.21,-0.24,1.20,-1.20,-1.28,-1.02,-1.44,-1.44,-1.45
464.07,-0.28,1.16,-0.28,1.16,-1.16,-1.24,-0.99,-1.44,-1.44,-1.44
468.71,-0.32,1.11,-0.32,1.12,-1.12,-1.20,-0.96,-1.44,-1.44,-1.43
473.40,-0.35,1.08,-0.35,1.08,-1.08,-1.16,-0.93,-1.43,-1.44,-1.43
478.13,-0.39,1.04,-0.38,1.05,-1.05,-1.12,-0.90,-1.44,-1.43,-1.43
482.91,-0.41,1.02,-0.42,1.01,-1.01,-1.08,-0.88,-1.42,-1.43,-1.43
487.74,-0.45,0.98,-0.45,0.98,-0.98,-1.05,-0.85,-1.43,-1.43,-1.43
492.62,-0.49,0.94,-0.48,0.95,-0.95,-1.01,-0.82,-1.44,-1.43,-1.43
497.55,-0.51,0.92,-0.52,0.92,-0.92,-0.97,-0.79,-1.42,-1.43,-1.43
502.52,-0.55,0.88,-0.55,0.88,-0.88,-0.93,-0.76,-1.43,-1.43,-1.43
507.55,-0.58,0.85,-0.58,0.85,-0.85,-0.89,-0.73,-1.43,-1.43,-1.42
512.62,-0.61,0.82,-0.61,0.81,-0.82,-0.85,-0.70,-1.42,-1.43,-1.42
517.75,-0.64,0.78,-0.64,0.78,-0.78,-0.81,-0.68,-1.42,-1.42,-1.42
