frequency,raw,error,smoothed,error_smoothed,equalization,parametric_eq,fixed_band_eq,equalized_raw,equalized_smoothed,target
20.00,0.33,-0.10,0.33,-0.09,0.10,-0.52,-0.36,0.43,0.43,0.43
20.20,0.38,-0.05,0.38,-0.05,0.05,-0.53,-0.37,0.43,0.43,0.43
20.40,0.44,0.00,0.44,-0.00,0.00,-0.54,-0.38,0.44,0.44,0.44
20.61,0.49,0.04,0.49,0.05,-0.05,-0.55,-0.39,0.44,0.44,0.45
20.81,0.54,0.09,0.54,0.09,-0.09,-0.56,-0.41,0.45,0.45,0.45
21.02,0.59,0.13,0.59,0.14,-0.14,-0.57,-0.42,0.45,0.45,0.46
21.23,0.65,0.19,0.65,0.19,-0.19,-0.59,-0.43,0.46,0.46,0.46
21.44,0.70,0.23,0.70,0.23,-0.23,-0.60,-0.45,0.47,0.47,0.47
21.66,0.75,0.27,0.75,0.28,-0.28,-0.61,-0.46,0.47,0.47,0.48
21.87,0.80,0.32,0.80,0.32,-0.32,-0.62,-0.47,0.48,0.48,0.48
22.09,0.85,0.36,0.85,0.36,-0.37,-0.63,-0.49,0.48,0.48,0.49
22.31,0.90,0.40,0.90,0.41,-0.41,-0.65,-0.50,0.49,0.49,0.50
22.54,0.95,0.45,0.95,0.45,-0.45,-0.66,-0.52,0.50,0.50,0.50
22.76,1.01,0.50,1.01,0.50,-0.50,-0.67,-0.53,0.52,0.51,0.51
22.99,1.06,0.54,1.06,0.54,-0.54,-0.69,-0.55,0.52,0.52,0.52
23.22,1.10,0.57,1.11,0.58,-0.58,-0.70,-0.57,0.52,0.53,0.53
23.45,1.15,0.61,1.15,0.61,-0.61,-0.71,-0.58,0.54,0.54,0.54
23.69,1.20,0.65,1.20,0.65,-0.65,-0.73,-0.60,0.55,0.54,0.55
23.92,1.24,0.68,1.24,0.69,-0.69,-0.74,-0.62,0.55,0.55,0.56
24.16,1.29,0.72,1.29,0.72,-0.73,-0.76,-0.63,0.56,0.57,0.57
24.40,1.34,0.76,1.34,0.76,-0.76,-0.77,-0.65,0.58,0.58,0.58
24.65,1.39,0.79,1.39,0.80,-0.80,-0.79,-0.67,0.59,0.59,0.60
24.89,1.44,0.83,1.44,0.83,-0.83,-0.80,-0.69,0.61,0.61,0.61
25.14,1.48,0.86,1.48,0.87,-0.87,-0.82,-0.71,0.62,0.62,0.62
25.39,1.53,0.90,1.53,0.90,-0.90,-0.83,-0.73,0.63,0.63,0.63
25.65,1.57,0.93,1.57,0.93,-0.93,-0.85,-0.75,0.64,0.64,0.64
25.91,1.61,0.95,1.61,0.96,-0.96,-0.87,-0.77,0.65,0.65,0.66
26.16,1.66,0.99,1.66,0.99,-0.99,-0.88,-0.79,0.67,0.66,0.67
26.43,1.70,1.02,1.70,1.02,-1.02,-0.90,-0.81,0.68,0.68,0.68
26.69,1.74,1.05,1.74,1.05,-1.05,-0.92,-0.83,0.69,0.69,0.69
26.96,1.78,1.07,1.78,1.08,-1.08,-0.93,-0.84,0.70,0.70,0.71
27.23,1.82,1.10,1.82,1.10,-1.10,-0.95,-0.86,0.72,0.72,0.72
27.50,1.86,1.12,1.86,1.13,-1.13,-0.97,-0.88,0.73,0.73,0.74
27.77,1.90,1.15,1.90,1.15,-1.15,-0.99,-0.90,0.75,0.75,0.75
28.05,1.94,1.17,1.94,1.17,-1.17,-1.00,-0.92,0.77,0.76,0.77
28.33,1.97,1.19,1.97,1.20,-1.20,-1.02,-0.94,0.77,0.78,0.78
28.62,2.01,1.21,2.01,1.22,-1.22,-1.04,-0.96,0.79,0.79,0.80
28.90,2.05,1.24,2.05,1.24,-1.24,-1.06,-0.97,0.81,0.81,0.81
29.19,2.08,1.25,2.08,1.26,-1.26,-1.07,-0.99,0.82,0.82,0.83
29.48,2.11,1.27,2.12,1.28,-1.27,-1.09,-1.01,0.84,0.84,0.84
29.78,2.15,1.29,2.15,1.29,-1.29,-1.11,-1.02,0.86,0.86,0.86
30.08,2.18,1.31,2.18,1.31,-1.30,-1.12,-1.04,0.88,0.87,0.87
30.38,2.20,1.31,2.20,1.32,-1.32,-1.14,-1.05,0.88,0.89,0.89
30.68,2.22,1.32,2.22,1.33,-1.33,-1.16,-1.06,0.89,0.90,0.90
30.99,2.25,1.33,2.25,1.33,-1.33,-1.17,-1.07,0.92,0.91,0.92
31.30,2.27,1.34,2.27,1.34,-1.34,-1.19,-1.09,0.93,0.93,0.93
31.61,2.29,1.34,2.29,1.35,-1.35,-1.20,-1.10,0.94,0.94,0.95
31.93,2.31,1.35,2.31,1.35,-1.35,-1.22,-1.11,0.96,0.96,0.96
32.24,2.33,1.35,2.33,1.36,-1.36,-1.23,-1.12,0.97,0.97,0.98
32.57,2.35,1.36,2.35,1.36,-1.36,-1.24,-1.12,0.99,0.99,0.99
32.89,2.37,1.36,2.37,1.36,-1.37,-1.26,-1.13,1.00,1.00,1.01
33.22,2.39,1.37,2.39,1.37,-1.37,-1.27,-1.14,1.02,1.02,1.02
33.55,2.40,1.36,2.40,1.37,-1.37,-1.28,-1.14,1.03,1.03,1.04
33.89,2.42,1.37,2.42,1.37,-1.37,-1.29,-1.15,1.05,1.05,1.05
34.23,2.43,1.36,2.43,1.37,-1.37,-1.29,-1.15,1.06,1.06,1.07
34.57,2.44,1.36,2.44,1.36,-1.36,-1.30,-1.16,1.08,1.08,1.08
34.92,2.45,1.36,2.45,1.36,-1.35,-1.31,-1.16,1.10,1.09,1.09
35.27,2.45,1.34,2.45,1.35,-1.35,-1.31,-1.17,1.10,1.11,1.11
35.62,2.45,1.33,2.45,1.33,-1.33,-1.31,-1.17,1.12,1.12,1.12
35.97,2.45,1.32,2.45,1.32,-1.32,-1.31,-1.18,1.13,1.13,1.13
36.33,2.44,1.30,2.44,1.31,-1.31,-1.31,-1.18,1.13,1.13,1.14
36.70,2.44,1.29,2.44,1.29,-1.29,-1.30,-1.19,1.15,1.14,1.15
37.06,2.43,1.27,2.43,1.28,-1.28,-1.30,-1.19,1.15,1.15,1.16
37.43,2.43,1.26,2.43,1.26,-1.26,-1.29,-1.20,1.17,1.17,1.17
37.81,2.42,1.24,2.42,1.24,-1.24,-1.28,-1.20,1.18,1.18,1.18
38.19,2.41,1.22,2.41,1.23,-1.22,-1.26,-1.21,1.19,1.19,1.19
38.57,2.40,1.20,2.40,1.20,-1.20,-1.24,-1.21,1.20,1.20,1.20
38.95,2.39,1.18,2.39,1.18,-1.18,-1.22,-1.22,1.21,1.21,1.21
39.34,2.37,1.15,2.37,1.15,-1.15,-1.20,-1.23,1.22,1.22,1.22
39.74,2.35,1.12,2.35,1.12,-1.13,-1.17,-1.24,1.22,1.22,1.23
40.14,2.32,1.09,2.33,1.10,-1.10,-1.14,-1.24,1.22,1.23,1.23
40.54,2.31,1.07,2.31,1.07,-1.07,-1.11,-1.25,1.24,1.24,1.24
40.94,2.29,1.04,2.29,1.04,-1.04,-1.07,-1.26,1.25,1.25,1.25
41.35,2.27,1.01,2.27,1.02,-1.01,-1.03,-1.27,1.26,1.26,1.26
41.76,2.25,0.98,2.25,0.98,-0.98,-0.98,-1.29,1.27,1.27,1.27
42.18,2.23,0.95,2.23,0.95,-0.95,-0.94,-1.30,1.28,1.28,1.28
42.60,2.20,0.91,2.20,0.92,-0.92,-0.88,-1.31,1.28,1.28,1.29
43.03,2.18,0.88,2.18,0.88,-0.88,-0.83,-1.33,1.30,1.30,1.30
43.46,2.15,0.84,2.15,0.85,-0.84,-0.77,-1.34,1.31,1.31,1.31
43.90,2.13,0.81,2.13,0.81,-0.80,-0.72,-1.36,1.33,1.33,1.32
44.33,2.10,0.76,2.10,0.77,-0.76,-0.66,-1.38,1.34,1.34,1.34
44.78,2.07,0.72,2.07,0.72,-0.72,-0.60,-1.40,1.35,1.35,1.35
45.23,2.03,0.67,2.03,0.67,-0.67,-0.54,-1.42,1.36,1.36,1.36
45.68,2.00,0.62,2.00,0.63,-0.63,-0.48,-1.44,1.37,1.37,1.38
46.13,1.97,0.58,1.97,0.59,-0.59,-0.43,-1.46,1.38,1.39,1.39
46.60,1.96,0.55,1.95,0.55,-0.55,-0.38,-1.48,1.41,1.40,1.41
47.06,1.94,0.52,1.94,0.52,-0.53,-0.33,-1.51,1.41,1.41,1.42
47.53,1.93,0.49,1.93,0.50,-0.50,-0.30,-1.53,1.43,1.43,1.44
48.01,1.93,0.48,1.93,0.49,-0.49,-0.27,-1.56,1.44,1.44,1.45
48.49,1.95,0.48,1.95,0.48,-0.49,-0.26,-1.58,1.46,1.46,1.47
48.97,1.97,0.49,1.97,0.49,-0.49,-0.25,-1.61,1.48,1.48,1.48
49.46,1.99,0.49,1.99,0.50,-0.49,-0.26,-1.64,1.50,1.50,1.50
49.96,2.02,0.51,2.02,0.51,-0.51,-0.28,-1.67,1.51,1.51,1.51
50.46,2.05,0.53,2.05,0.53,-0.53,-0.31,-1.70,1.52,1.52,1.52
50.96,2.09,0.55,2.09,0.55,-0.55,-0.35,-1.73,1.54,1.53,1.54
51.47,2.13,0.58,2.13,0.59,-0.59,-0.40,-1.76,1.54,1.54,1.55
51.99,2.18,0.62,2.18,0.62,-0.63,-0.46,-1.79,1.55,1.55,1.56
52.51,2.24,0.67,2.24,0.67,-0.68,-0.53,-1.82,1.56,1.56,1.57
53.03,2.30,0.72,2.31,0.73,-0.73,-0.61,-1.86,1.57,1.58,1.58
53.56,2.39,0.79,2.39,0.79,-0.79,-0.69,-1.89,1.60,1.59,1.60
54.10,2.47,0.86,2.47,0.86,-0.86,-0.78,-1.92,1.61,1.61,1.61
54.64,2.55,0.93,2.55,0.94,-0.93,-0.87,-1.96,1.62,1.62,1.62
55.18,2.63,1.01,2.63,1.01,-1.01,-0.96,-1.99,1.62,1.62,1.62
55.74,2.72,1.09,2.72,1.09,-1.09,-1.06,-2.02,1.63,1.63,1.63
56.29,2.81,1.17,2.81,1.18,-1.18,-1.15,-2.05,1.63,1.63,1.64
56.86,2.91,1.27,2.91,1.27,-1.27,-1.25,-2.09,1.64,1.64,1.64
57.42,3.01,1.36,3.01,1.36,-1.37,-1.34,-2.12,1.64,1.64,1.65
58.00,3.11,1.46,3.11,1.46,-1.46,-1.43,-2.15,1.65,1.65,1.65
58.58,3.21,1.55,3.21,1.56,-1.56,-1.53,-2.18,1.65,1.65,1.66
59.16,3.32,1.66,3.32,1.66,-1.66,-1.61,-2.21,1.66,1.66,1.66
59.76,3.42,1.76,3.42,1.76,-1.76,-1.70,-2.24,1.66,1.66,1.66
60.35,3.52,1.86,3.52,1.86,-1.85,-1.79,-2.27,1.67,1.66,1.66
60.96,3.61,1.95,3.61,1.95,-1.95,-1.87,-2.29,1.66,1.66,1.66
61.57,3.70,2.04,3.70,2.04,-2.04,-1.96,-2.32,1.66,1.66,1.66
62.18,3.78,2.12,3.78,2.12,-2.13,-2.04,-2.34,1.65,1.65,1.66
62.80,3.86,2.20,3.87,2.21,-2.21,-2.12,-2.37,1.65,1.65,1.66
63.43,3.95,2.29,3.95,2.29,-2.29,-2.20,-2.39,1.66,1.66,1.66
64.07,4.03,2.38,4.03,2.38,-2.37,-2.28,-2.41,1.66,1.66,1.65
64.71,4.10,2.45,4.10,2.45,-2.45,-2.35,-2.43,1.65,1.65,1.65
65.35,4.17,2.52,4.17,2.53,-2.53,-2.43,-2.46,1.64,1.65,1.65
66.01,4.25,2.60,4.25,2.60,-2.61,-2.51,-2.47,1.64,1.64,1.65
66.67,4.33,2.68,4.33,2.68,-2.69,-2.58,-2.49,1.64,1.64,1.65
67.33,4.41,2.76,4.41,2.77,-2.77,-2.66,-2.51,1.64,1.64,1.65
68.01,4.49,2.85,4.50,2.86,-2.86,-2.73,-2.53,1.63,1.64,1.64
68.69,4.59,2.95,4.59,2.95,-2.95,-2.80,-2.55,1.64,1.64,1.64
69.37,4.68,3.04,4.68,3.04,-3.04,-2.88,-2.57,1.64,1.64,1.64
70.07,4.77,3.13,4.77,3.13,-3.13,-2.95,-2.59,1.64,1.64,1.64
70.77,4.86,3.22,4.86,3.22,-3.23,-3.02,-2.60,1.63,1.63,1.64
71.48,4.95,3.31,4.95,3.32,-3.32,-3.10,-2.62,1.63,1.63,1.64
72.19,5.05,3.41,5.05,3.41,-3.41,-3.17,-2.64,1.64,1.64,1.64
72.91,5.16,3.51,5.15,3.51,-3.51,-3.25,-2.66,1.65,1.65,1.65
73.64,5.25,3.60,5.25,3.60,-3.60,-3.32,-2.68,1.65,1.65,1.65
74.38,5.35,3.69,5.35,3.70,-3.70,-3.39,-2.71,1.65,1.65,1.66
75.12,5.44,3.78,5.45,3.79,-3.79,-3.47,-2.73,1.65,1.65,1.66
75.87,5.55,3.88,5.55,3.88,-3.89,-3.54,-2.76,1.66,1.66,1.67
76.63,5.65,3.97,5.65,3.97,-3.98,-3.62,-2.78,1.67,1.67,1.68
77.40,5.75,4.06,5.75,4.07,-4.06,-3.69,-2.81,1.69,1.69,1.69
78.17,5.85,4.15,5.85,4.15,-4.15,-3.76,-2.84,1.70,1.70,1.70
78.95,5.94,4.23,5.94,4.23,-4.22,-3.84,-2.87,1.72,1.71,1.71
79.74,6.02,4.30,6.02,4.30,-4.30,-3.91,-2.90,1.72,1.72,1.72
80.54,6.09,4.36,6.09,4.37,-4.37,-3.99,-2.94,1.73,1.73,1.73
81.35,6.16,4.42,6.16,4.42,-4.43,-4.06,-2.98,1.73,1.73,1.74
82.16,6.23,4.48,6.23,4.48,-4.48,-4.14,-3.02,1.75,1.74,1.75
82.98,6.29,4.53,6.29,4.54,-4.54,-4.21,-3.06,1.75,1.76,1.76
83.81,6.36,4.59,6.35,4.59,-4.59,-4.28,-3.10,1.77,1.77,1.77
84.65,6.41,4.63,6.41,4.63,-4.64,-4.36,-3.15,1.77,1.77,1.78
85.50,6.46,4.67,6.47,4.68,-4.68,-4.43,-3.20,1.78,1.78,1.79
86.35,6.52,4.72,6.52,4.72,-4.73,-4.50,-3.25,1.79,1.79,1.80
87.22,6.57,4.76,6.57,4.76,-4.76,-4.57,-3.31,1.81,1.81,1.81
88.09,6.62,4.80,6.62,4.80,-4.80,-4.64,-3.36,1.82,1.82,1.82
88.97,6.67,4.83,6.66,4.83,-4.83,-4.70,-3.42,1.84,1.84,1.84
89.86,6.70,4.85,6.70,4.86,-4.85,-4.77,-3.48,1.85,1.85,1.85
90.76,6.73,4.87,6.73,4.87,-4.87,-4.83,-3.55,1.86,1.87,1.86
91.66,6.76,4.88,6.76,4.89,-4.88,-4.90,-3.62,1.88,1.88,1.88
92.58,6.78,4.89,6.78,4.89,-4.89,-4.96,-3.69,1.89,1.89,1.89
93.51,6.79,4.89,6.79,4.89,-4.89,-5.01,-3.76,1.90,1.90,1.90
94.44,6.79,4.87,6.80,4.88,-4.89,-5.07,-3.83,1.90,1.91,1.92
95.39,6.81,4.88,6.81,4.88,-4.89,-5.12,-3.91,1.92,1.92,1.93
96.34,6.83,4.88,6.83,4.88,-4.89,-5.17,-3.99,1.94,1.94,1.95
97.30,6.85,4.89,6.85,4.89,-4.89,-5.21,-4.07,1.96,1.96,1.96
98.28,6.87,4.90,6.87,4.90,-4.90,-5.26,-4.15,1.97,1.97,1.97
99.26,6.88,4.90,6.88,4.90,-4.90,-5.29,-4.24,1.98,1.98,1.98
100.25,6.90,4.90,6.90,4.91,-4.91,-5.33,-4.32,1.99,2.00,2.00
101.25,6.93,4.92,6.93,4.92,-4.92,-5.36,-4.41,2.01,2.01,2.01
102.27,6.95,4.93,6.95,4.93,-4.94,-5.39,-4.50,2.01,2.01,2.02
103.29,6.97,4.95,6.97,4.95,-4.96,-5.41,-4.59,2.01,2.01,2.02
104.32,6.99,4.96,7.00,4.97,-4.98,-5.43,-4.67,2.01,2.01,2.03
105.37,7.03,4.99,7.03,5.00,-5.01,-5.44,-4.76,2.02,2.02,2.04
106.42,7.07,5.03,7.07,5.03,-5.04,-5.45,-4.85,2.03,2.03,2.04
107.48,7.11,5.07,7.11,5.07,-5.07,-5.46,-4.94,2.04,2.04,2.04
108.56,7.15,5.11,7.15,5.11,-5.10,-5.46,-5.02,2.05,2.05,2.04
109.64,7.17,5.13,7.17,5.14,-5.12,-5.45,-5.10,2.05,2.05,2.04
110.74,7.19,5.15,7.18,5.15,-5.13,-5.44,-5.18,2.06,2.05,2.04
111.85,7.18,5.14,7.18,5.15,-5.13,-5.43,-5.26,2.05,2.05,2.04
112.97,7.16,5.13,7.16,5.13,-5.12,-5.41,-5.33,2.04,2.04,2.03
114.10,7.13,5.10,7.13,5.10,-5.11,-5.39,-5.40,2.02,2.02,2.03
115.24,7.09,5.07,7.09,5.08,-5.08,-5.36,-5.46,2.01,2.01,2.02
116.39,7.06,5.04,7.06,5.05,-5.05,-5.33,-5.51,2.01,2.01,2.02
117.55,7.03,5.02,7.03,5.02,-5.02,-5.30,-5.56,2.01,2.01,2.01
118.73,7.00,4.99,6.99,4.99,-4.99,-5.26,-5.60,2.01,2.00,2.01
119.92,6.95,4.95,6.96,4.96,-4.96,-5.22,-5.64,1.99,2.00,2.00
121.12,6.92,4.92,6.92,4.93,-4.93,-5.18,-5.66,1.99,1.99,2.00
122.33,6.90,4.90,6.90,4.90,-4.91,-5.13,-5.68,1.99,1.99,2.00
123.55,6.88,4.88,6.88,4.88,-4.89,-5.08,-5.69,1.99,1.99,2.00
124.79,6.86,4.86,6.86,4.87,-4.87,-5.03,-5.69,1.99,1.99,2.00
126.03,6.85,4.85,6.85,4.85,-4.86,-4.97,-5.68,1.99,1.99,2.00
127.29,6.84,4.84,6.84,4.84,-4.85,-4.91,-5.67,1.99,1.99,2.00
128.57,6.82,4.82,6.83,4.83,-4.84,-4.85,-5.64,1.98,1.99,2.00
129.85,6.82,4.82,6.82,4.82,-4.82,-4.79,-5.61,2.00,2.00,2.00
131.15,6.81,4.81,6.81,4.81,-4.81,-4.73,-5.57,2.00,2.01,2.00
132.46,6.80,4.80,6.80,4.80,-4.79,-4.66,-5.52,2.01,2.01,2.00
133.79,6.78,4.77,6.77,4.77,-4.76,-4.60,-5.46,2.02,2.01,2.01
135.12,6.73,4.72,6.73,4.73,-4.73,-4.53,-5.39,2.00,2.01,2.01
136.48,6.69,4.68,6.69,4.68,-4.69,-4.46,-5.32,2.00,2.00,2.01
137.84,6.64,4.63,6.64,4.64,-4.64,-4.39,-5.25,2.00,2.01,2.01
139.22,6.60,4.59,6.60,4.59,-4.59,-4.33,-5.17,2.01,2.01,2.01
140.61,6.55,4.54,6.55,4.54,-4.53,-4.26,-5.08,2.02,2.01,2.01
142.02,6.48,4.46,6.49,4.47,-4.48,-4.19,-4.99,2.00,2.01,2.02
143.44,6.44,4.42,6.43,4.41,-4.42,-4.12,-4.90,2.02,2.01,2.02
144.87,6.36,4.34,6.37,4.36,-4.37,-4.05,-4.80,1.99,2.00,2.02
146.32,6.32,4.31,6.32,4.31,-4.31,-3.98,-4.70,2.01,2.01,2.01
147.78,6.26,4.25,6.26,4.25,-4.26,-3.91,-4.60,2.00,2.00,2.01
149.26,6.22,4.21,6.21,4.21,-4.21,-3.84,-4.50,2.01,2.01,2.01
150.75,6.15,4.14,6.16,4.15,-4.15,-3.77,-4.40,2.00,2.01,2.01
152.26,6.11,4.10,6.11,4.10,-4.10,-3.71,-4.30,2.01,2.01,2.01
153.78,6.05,4.05,6.05,4.05,-4.04,-3.64,-4.20,2.01,2.01,2.00
155.32,5.99,3.99,5.99,3.99,-3.98,-3.57,-4.10,2.01,2.01,2.00
156.88,5.91,3.91,5.91,3.92,-3.92,-3.51,-4.00,1.99,1.99,2.00
158.44,5.84,3.84,5.84,3.84,-3.85,-3.44,-3.90,1.99,1.98,2.00
160.03,5.76,3.77,5.77,3.78,-3.79,-3.38,-3.80,1.97,1.98,1.99
161.63,5.71,3.72,5.71,3.72,-3.72,-3.32,-3.70,1.99,1.99,1.99
163.24,5.65,3.67,5.63,3.66,-3.65,-3.25,-3.61,2.00,1.98,1.98
164.88,5.55,3.57,5.56,3.59,-3.58,-3.19,-3.52,1.97,1.98,1.98
166.53,5.48,3.51,5.48,3.51,-3.51,-3.13,-3.42,1.97,1.97,1.97
168.19,5.41,3.45,5.40,3.44,-3.45,-3.07,-3.33,1.96,1.95,1.96
169.87,5.31,3.36,5.33,3.38,-3.38,-3.01,-3.25,1.93,1.95,1.95
171.57,5.25,3.31,5.25,3.31,-3.31,-2.96,-3.16,1.94,1.93,1.94
173.29,5.18,3.25,5.16,3.24,-3.25,-2.90,-3.08,1.93,1.92,1.93
175.02,5.07,3.15,5.09,3.17,-3.18,-2.84,-3.00,1.89,1.91,1.92
176.77,5.01,3.11,5.01,3.11,-3.11,-2.79,-2.92,1.90,1.90,1.90
178.54,4.94,3.05,4.94,3.05,-3.04,-2.73,-2.84,1.90,1.89,1.89
180.32,4.86,2.99,4.86,2.99,-2.97,-2.68,-2.77,1.89,1.88,1.87
182.13,4.77,2.91,4.76,2.91,-2.90,-2.63,-2.69,1.87,1.86,1.86
183.95,4.64,2.80,4.66,2.82,-2.82,-2.57,-2.62,1.82,1.84,1.84
185.79,4.56,2.74,4.55,2.73,-2.74,-2.52,-2.56,1.82,1.81,1.82
187.65,4.46,2.65,4.46,2.65,-2.66,-2.47,-2.49,1.80,1.80,1.81
189.52,4.36,2.57,4.36,2.58,-2.58,-2.42,-2.43,1.78,1.78,1.79
191.42,4.27,2.50,4.27,2.50,-2.50,-2.37,-2.37,1.77,1.76,1.77
193.33,4.17,2.42,4.17,2.42,-2.43,-2.32,-2.31,1.74,1.75,1.75
195.27,4.08,2.34,4.08,2.35,-2.35,-2.27,-2.25,1.73,1.73,1.74
197.22,4.00,2.28,3.99,2.28,-2.28,-2.22,-2.19,1.72,1.72,1.72
199.19,3.90,2.20,3.90,2.21,-2.20,-2.17,-2.14,1.70,1.70,1.70
201.18,3.80,2.13,3.80,2.13,-2.13,-2.12,-2.09,1.67,1.68,1.67
203.19,3.70,2.05,3.70,2.05,-2.05,-2.07,-2.04,1.65,1.65,1.65
205.23,3.60,1.97,3.60,1.97,-1.97,-2.01,-1.99,1.63,1.63,1.63
207.28,3.50,1.89,3.50,1.89,-1.90,-1.96,-1.94,1.60,1.60,1.61
209.35,3.40,1.81,3.40,1.82,-1.82,-1.91,-1.90,1.58,1.58,1.59
211.44,3.30,1.74,3.30,1.74,-1.74,-1.85,-1.85,1.56,1.56,1.56
213.56,3.20,1.66,3.20,1.66,-1.67,-1.79,-1.81,1.53,1.53,1.54
215.69,3.10,1.59,3.10,1.59,-1.59,-1.73,-1.77,1.50,1.51,1.51
217.85,3.00,1.52,3.01,1.53,-1.52,-1.67,-1.74,1.48,1.49,1.48
220.03,2.92,1.46,2.92,1.46,-1.45,-1.60,-1.70,1.47,1.47,1.46
222.23,2.83,1.39,2.82,1.39,-1.38,-1.53,-1.66,1.45,1.44,1.44
224.45,2.73,1.32,2.73,1.32,-1.32,-1.46,-1.63,1.41,1.41,1.41
226.70,2.63,1.24,2.64,1.25,-1.26,-1.39,-1.60,1.37,1.38,1.39
228.96,2.55,1.18,2.56,1.19,-1.20,-1.31,-1.57,1.35,1.36,1.37
231.25,2.50,1.15,2.49,1.14,-1.15,-1.24,-1.54,1.35,1.34,1.35
233.57,2.44,1.10,2.44,1.10,-1.11,-1.17,-1.51,1.33,1.33,1.34
235.90,2.38,1.06,2.39,1.07,-1.07,-1.10,-1.49,1.31,1.32,1.32
238.26,2.36,1.05,2.35,1.05,-1.05,-1.05,-1.46,1.31,1.31,1.31
240.64,2.33,1.03,2.33,1.03,-1.03,-1.00,-1.44,1.30,1.30,1.30
243.05,2.31,1.02,2.31,1.02,-1.02,-0.98,-1.42,1.29,1.29,1.29
245.48,2.29,1.01,2.29,1.01,-1.02,-0.96,-1.40,1.27,1.28,1.28
247.93,2.28,1.01,2.28,1.01,-1.02,-0.97,-1.38,1.26,1.26,1.27
250.41,2.27,1.01,2.27,1.01,-1.02,-0.99,-1.36,1.25,1.25,1.26
252.92,2.27,1.02,2.27,1.03,-1.03,-1.01,-1.34,1.24,1.24,1.25
255.45,2.28,1.04,2.28,1.04,-1.04,-1.05,-1.33,1.24,1.24,1.24
258.00,2.29,1.06,2.29,1.06,-1.05,-1.09,-1.32,1.24,1.24,1.23
260.58,2.29,1.06,2.29,1.07,-1.06,-1.13,-1.30,1.23,1.23,1.23
263.19,2.29,1.07,2.29,1.07,-1.07,-1.17,-1.29,1.22,1.22,1.22
265.82,2.29,1.08,2.29,1.08,-1.08,-1.21,-1.28,1.21,1.21,1.21
268.48,2.29,1.09,2.29,1.09,-1.09,-1.24,-1.27,1.20,1.20,1.20
271.16,2.29,1.10,2.29,1.10,-1.10,-1.28,-1.27,1.19,1.19,1.19
273.87,2.29,1.11,2.29,1.11,-1.10,-1.31,-1.26,1.19,1.18,1.18
276.61,2.28,1.11,2.28,1.11,-1.11,-1.33,-1.25,1.17,1.17,1.17
279.38,2.27,1.11,2.27,1.12,-1.12,-1.36,-1.25,1.15,1.15,1.16
282.17,2.27,1.12,2.27,1.12,-1.13,-1.38,-1.25,1.14,1.14,1.15
284.99,2.27,1.13,2.28,1.14,-1.14,-1.40,-1.25,1.13,1.13,1.14
287.84,2.29,1.16,2.29,1.16,-1.16,-1.42,-1.25,1.13,1.13,1.13
290.72,2.30,1.18,2.30,1.18,-1.18,-1.43,-1.25,1.12,1.12,1.12
293.63,2.31,1.20,2.31,1.21,-1.21,-1.45,-1.25,1.10,1.11,1.11
296.57,2.33,1.23,2.33,1.23,-1.24,-1.46,-1.25,1.09,1.09,1.10
299.53,2.36,1.27,2.36,1.27,-1.28,-1.47,-1.25,1.08,1.08,1.09
302.53,2.39,1.31,2.39,1.32,-1.33,-1.48,-1.26,1.06,1.07,1.08
305.55,2.44,1.38,2.44,1.38,-1.38,-1.49,-1.27,1.06,1.06,1.06
308.61,2.49,1.44,2.49,1.44,-1.44,-1.50,-1.27,1.05,1.05,1.05
311.69,2.54,1.50,2.54,1.51,-1.50,-1.51,-1.28,1.04,1.04,1.04
314.81,2.59,1.57,2.59,1.57,-1.57,-1.52,-1.29,1.02,1.02,1.02
317.96,2.64,1.63,2.64,1.64,-1.65,-1.53,-1.30,0.99,0.99,1.01
321.14,2.70,1.71,2.70,1.72,-1.72,-1.54,-1.31,0.98,0.98,0.99
324.35,2.77,1.79,2.77,1.80,-1.80,-1.55,-1.33,0.97,0.97,0.98
327.59,2.85,1.89,2.84,1.89,-1.88,-1.56,-1.34,0.97,0.97,0.96
330.87,2.91,1.96,2.91,1.97,-1.96,-1.57,-1.35,0.95,0.95,0.95
334.18,2.97,2.04,2.97,2.04,-2.03,-1.58,-1.37,0.94,0.94,0.93
337.52,3.02,2.10,3.02,2.11,-2.11,-1.59,-1.39,0.91,0.92,0.92
340.90,3.07,2.17,3.07,2.17,-2.18,-1.59,-1.40,0.89,0.89,0.90
344.30,3.12,2.23,3.12,2.24,-2.24,-1.60,-1.42,0.88,0.88,0.89
347.75,3.16,2.29,3.16,2.30,-2.30,-1.61,-1.44,0.86,0.86,0.87
351.23,3.21,2.36,3.21,2.36,-2.36,-1.62,-1.47,0.85,0.85,0.85
354.74,3.24,2.40,3.24,2.41,-2.41,-1.63,-1.49,0.83,0.84,0.84
358.28,3.27,2.45,3.27,2.45,-2.45,-1.64,-1.51,0.82,0.82,0.82
361.87,3.28,2.48,3.28,2.48,-2.48,-1.65,-1.54,0.80,0.81,0.80
365.49,3.29,2.50,3.29,2.51,-2.50,-1.66,-1.56,0.79,0.79,0.79
369.14,3.29,2.52,3.29,2.52,-2.51,-1.67,-1.59,0.78,0.78,0.77
372.83,3.28,2.52,3.27,2.52,-2.51,-1.68,-1.62,0.77,0.76,0.76
376.56,3.24,2.50,3.24,2.50,-2.51,-1.70,-1.65,0.73,0.73,0.74
380.33,3.20,2.48,3.21,2.49,-2.50,-1.71,-1.68,0.70,0.71,0.72
384.13,3.17,2.46,3.17,2.47,-2.48,-1.72,-1.71,0.69,0.69,0.71
387.97,3.15,2.46,3.15,2.46,-2.46,-1.73,-1.74,0.69,0.69,0.69
391.85,3.12,2.44,3.12,2.44,-2.43,-1.74,-1.77,0.69,0.68,0.68
395.77,3.08,2.41,3.08,2.42,-2.41,-1.75,-1.80,0.67,0.68,0.67
399.73,3.04,2.38,3.04,2.38,-2.38,-1.76,-1.83,0.66,0.66,0.66
403.72,3.00,2.35,3.00,2.35,-2.35,-1.78,-1.87,0.65,0.65,0.65
407.76,2.95,2.31,2.95,2.32,-2.32,-1.79,-1.90,0.63,0.63,0.64
411.84,2.90,2.28,2.90,2.28,-2.29,-1.80,-1.94,0.61,0.61,0.62
415.96,2.86,2.25,2.86,2.26,-2.27,-1.81,-1.97,0.59,0.60,0.61
420.12,2.83,2.23,2.83,2.23,-2.24,-1.82,-2.00,0.59,0.59,0.60
424.32,2.80,2.21,2.80,2.21,-2.21,-1.84,-2.04,0.59,0.59,0.59
428.56,2.76,2.18,2.76,2.19,-2.18,-1.85,-2.07,0.58,0.58,0.58
432.85,2.72,2.16,2.72,2.16,-2.15,-1.86,-2.10,0.57,0.57,0.56
437.18,2.67,2.12,2.67,2.12,-2.12,-1.87,-2.14,0.55,0.56,0.55
441.55,2.62,2.08,2.62,2.09,-2.09,-1.88,-2.17,0.53,0.53,0.54
445.96,2.57,2.05,2.57,2.05,-2.06,-1.90,-2.20,0.51,0.51,0.52
450.42,2.51,2.01,2.52,2.02,-2.03,-1.91,-2.22,0.48,0.49,0.50
454.93,2.48,1.99,2.48,1.99,-2.01,-1.92,-2.25,0.47,0.47,0.49
459.48,2.44,1.97,2.44,1.98,-1.99,-1.93,-2.27,0.45,0.46,0.47
464.07,2.42,1.97,2.42,1.97,-1.96,-1.94,-2.30,0.46,0.45,0.45
468.71,2.39,1.96,2.39,1.96,-1.94,-1.95,-2.32,0.45,0.44,0.43
473.40,2.35,1.93,2.35,1.94,-1.92,-1.96,-2.33,0.43,0.43,0.42
478.13,2.31,1.91,2.31,1.91,-1.90,-1.97,-2.35,0.41,0.41,0.40
482.91,2.26,1.87,2.26,1.88,-1.88,-1.98,-2.36,0.38,0.38,0.39
487.74,2.22,1.85,2.22,1.85,-1.86,-1.99,-2.37,0.36,0.36,0.37
492.62,2.18,1.82,2.18,1.82,-1.83,-2.00,-2.38,0.35,0.35,0.36
497.55,2.15,1.80,2.15,1.80,-1.81,-2.01,-2.38,0.34,0.33,0.35
502.52,2.12,1.78,2.12,1.79,-1.80,-2.02,-2.38,0.32,0.33,0.34
507.55,2.10,1.77,2.10,1.78,-1.78,-2.03,-2.38,0.32,0.32,0.33
512.62,2.09,1.78,2.08,1.77,-1.77,-2.03,-2.38,0.32,0.32,0.31
517.75,2.06,1.76,2.06,1.76,-1.75,-2.04,-2.37,0.31,0.31,0.30
522.93,2.02,1.74,2.03,1.75,-1.74,-2.05,-2.36,0.28,0.29,0.28
528.16,1.99,1.73,1.99,1.73,-1.73,-2.05,-2.34,0.26,0.26,0.26
533.44,1.95,1.71,1.95,1.71,-1.72,-2.06,-2.33,0.23,0.23,0.24
538.77,1.91,1.69,1.91,1.70,-1.71,-2.06,-2.31,0.20,0.21,0.22
544.16,1.88,1.68,1.88,1.68,-1.69,-2.06,-2.29,0.19,0.18,0.20
