frequency,raw,error,smoothed,error_smoothed,equalization,parametric_eq,fixed_band_eq,equalized_raw,equalized_smoothed,target
20.00,1.37,-3.71,1.37,-3.71,3.71,3.43,0.83,5.08,5.08,5.08
20.20,1.42,-3.66,1.42,-3.66,3.66,3.39,0.85,5.08,5.08,5.08
20.40,1.46,-3.61,1.46,-3.61,3.62,3.35,0.88,5.08,5.08,5.07
20.61,1.50,-3.57,1.50,-3.57,3.57,3.31,0.91,5.07,5.07,5.07
20.81,1.54,-3.52,1.54,-3.52,3.52,3.27,0.94,5.06,5.06,5.06
21.02,1.58,-3.48,1.58,-3.48,3.47,3.22,0.96,5.05,5.05,5.06
21.23,1.62,-3.43,1.62,-3.43,3.42,3.18,1.00,5.04,5.05,5.05
21.44,1.67,-3.38,1.67,-3.38,3.37,3.13,1.03,5.04,5.04,5.05
21.66,1.72,-3.32,1.72,-3.32,3.32,3.09,1.06,5.04,5.04,5.04
21.87,1.77,-3.27,1.77,-3.26,3.27,3.04,1.09,5.04,5.04,5.04
22.09,1.82,-3.21,1.82,-3.21,3.21,2.99,1.13,5.03,5.03,5.03
22.31,1.87,-3.16,1.87,-3.16,3.16,2.94,1.16,5.03,5.03,5.03
22.54,1.92,-3.11,1.92,-3.10,3.10,2.89,1.20,5.02,5.02,5.03
22.76,1.97,-3.04,1.97,-3.05,3.05,2.84,1.23,5.02,5.02,5.01
22.99,2.02,-2.99,2.02,-2.99,3.00,2.79,1.27,5.02,5.01,5.01
23.22,2.06,-2.94,2.06,-2.94,2.95,2.74,1.31,5.01,5.01,5.00
23.45,2.11,-2.89,2.11,-2.90,2.90,2.69,1.35,5.01,5.00,5.00
23.69,2.15,-2.85,2.15,-2.85,2.85,2.64,1.39,5.00,5.00,5.00
23.92,2.19,-2.80,2.19,-2.80,2.80,2.59,1.43,4.99,5.00,4.99
24.16,2.24,-2.75,2.24,-2.76,2.75,2.54,1.47,4.99,4.99,4.99
24.40,2.28,-2.71,2.28,-2.71,2.71,2.48,1.51,4.99,4.99,4.99
24.65,2.32,-2.67,2.32,-2.66,2.66,2.43,1.56,4.98,4.98,4.99
24.89,2.37,-2.61,2.37,-2.61,2.61,2.38,1.60,4.98,4.98,4.98
25.14,2.42,-2.56,2.42,-2.56,2.56,2.33,1.64,4.98,4.98,4.98
25.39,2.47,-2.51,2.47,-2.51,2.51,2.28,1.69,4.98,4.98,4.98
25.65,2.52,-2.46,2.52,-2.46,2.46,2.23,1.73,4.98,4.98,4.98
25.91,2.56,-2.42,2.56,-2.41,2.41,2.18,1.77,4.97,4.98,4.98
26.16,2.61,-2.36,2.61,-2.37,2.36,2.13,1.82,4.98,4.97,4.98
26.43,2.65,-2.32,2.65,-2.32,2.32,2.08,1.86,4.97,4.97,4.97
26.69,2.70,-2.26,2.70,-2.27,2.27,2.04,1.90,4.97,4.97,4.96
26.96,2.74,-2.22,2.74,-2.22,2.22,1.99,1.94,4.96,4.96,4.96
27.23,2.79,-2.17,2.78,-2.18,2.18,1.94,1.98,4.97,4.96,4.96
27.50,2.82,-2.14,2.83,-2.13,2.13,1.89,2.02,4.95,4.96,4.96
27.77,2.87,-2.09,2.87,-2.09,2.08,1.85,2.05,4.95,4.95,4.96
28.05,2.92,-2.03,2.91,-2.04,2.04,1.80,2.08,4.96,4.95,4.95
28.33,2.95,-2.00,2.96,-1.99,1.99,1.76,2.11,4.94,4.95,4.95
28.62,3.00,-1.95,3.00,-1.94,1.94,1.71,2.14,4.94,4.94,4.94
28.90,3.04,-1.89,3.04,-1.90,1.90,1.67,2.17,4.94,4.94,4.93
29.19,3.08,-1.85,3.08,-1.85,1.85,1.62,2.19,4.93,4.93,4.93
29.48,3.11,-1.82,3.12,-1.81,1.81,1.58,2.21,4.92,4.93,4.93
29.78,3.16,-1.76,3.15,-1.77,1.77,1.54,2.23,4.93,4.92,4.92
30.08,3.19,-1.73,3.19,-1.73,1.73,1.49,2.24,4.92,4.92,4.92
30.38,3.23,-1.69,3.23,-1.69,1.69,1.45,2.24,4.92,4.92,4.92
30.68,3.26,-1.65,3.26,-1.65,1.65,1.41,2.25,4.91,4.91,4.91
30.99,3.30,-1.61,3.30,-1.62,1.61,1.37,2.25,4.91,4.91,4.91
31.30,3.33,-1.58,3.33,-1.58,1.58,1.33,2.24,4.91,4.91,4.91
31.61,3.37,-1.55,3.37,-1.54,1.54,1.29,2.23,4.91,4.91,4.92
31.93,3.41,-1.51,3.41,-1.51,1.51,1.25,2.22,4.91,4.91,4.92
32.24,3.45,-1.46,3.45,-1.47,1.47,1.21,2.20,4.92,4.92,4.91
32.57,3.48,-1.43,3.48,-1.43,1.43,1.17,2.18,4.91,4.92,4.91
32.89,3.52,-1.39,3.52,-1.39,1.40,1.14,2.16,4.92,4.91,4.91
33.22,3.55,-1.36,3.55,-1.36,1.36,1.10,2.13,4.91,4.91,4.91
33.55,3.58,-1.32,3.58,-1.32,1.32,1.06,2.09,4.90,4.90,4.90
33.89,3.62,-1.28,3.62,-1.28,1.28,1.03,2.06,4.90,4.90,4.90
34.23,3.65,-1.24,3.65,-1.24,1.24,0.99,2.02,4.89,4.89,4.89
34.57,3.69,-1.20,3.69,-1.20,1.20,0.96,1.98,4.89,4.89,4.89
34.92,3.72,-1.15,3.72,-1.15,1.16,0.92,1.93,4.88,4.88,4.87
35.27,3.75,-1.11,3.75,-1.11,1.11,0.89,1.89,4.86,4.87,4.86
35.62,3.78,-1.07,3.78,-1.07,1.07,0.85,1.84,4.85,4.85,4.85
35.97,3.81,-1.03,3.81,-1.03,1.03,0.82,1.79,4.84,4.84,4.84
36.33,3.84,-0.99,3.84,-0.99,0.98,0.79,1.73,4.82,4.82,4.83
36.70,3.87,-0.94,3.87,-0.94,0.94,0.75,1.68,4.81,4.81,4.81
37.06,3.91,-0.88,3.90,-0.89,0.89,0.72,1.62,4.80,4.80,4.79
37.43,3.93,-0.85,3.94,-0.84,0.85,0.69,1.57,4.78,4.78,4.78
37.81,3.97,-0.80,3.96,-0.80,0.80,0.66,1.51,4.77,4.77,4.77
38.19,3.99,-0.76,3.99,-0.76,0.76,0.63,1.45,4.75,4.75,4.75
38.57,4.02,-0.73,4.02,-0.72,0.72,0.59,1.39,4.74,4.74,4.75
38.95,4.05,-0.68,4.05,-0.68,0.68,0.56,1.34,4.73,4.73,4.73
39.34,4.08,-0.64,4.08,-0.64,0.64,0.53,1.28,4.72,4.72,4.72
39.74,4.10,-0.61,4.10,-0.61,0.61,0.50,1.22,4.71,4.71,4.71
40.14,4.13,-0.57,4.13,-0.57,0.58,0.47,1.16,4.70,4.70,4.70
40.54,4.15,-0.54,4.15,-0.54,0.54,0.44,1.10,4.69,4.69,4.69
40.94,4.18,-0.51,4.18,-0.51,0.51,0.41,1.05,4.69,4.69,4.69
41.35,4.20,-0.48,4.20,-0.48,0.48,0.38,0.99,4.68,4.68,4.68
41.76,4.23,-0.45,4.23,-0.45,0.45,0.36,0.93,4.68,4.67,4.68
42.18,4.25,-0.42,4.25,-0.42,0.42,0.33,0.87,4.67,4.67,4.67
42.60,4.27,-0.39,4.27,-0.39,0.39,0.30,0.82,4.66,4.66,4.66
43.03,4.30,-0.36,4.30,-0.36,0.36,0.27,0.76,4.66,4.66,4.66
43.46,4.32,-0.33,4.32,-0.33,0.34,0.24,0.71,4.66,4.65,4.65
43.90,4.34,-0.30,4.34,-0.31,0.31,0.21,0.65,4.65,4.65,4.64
44.33,4.36,-0.29,4.36,-0.28,0.28,0.19,0.60,4.64,4.64,4.65
44.78,4.38,-0.26,4.38,-0.26,0.26,0.16,0.55,4.64,4.64,4.64
45.23,4.40,-0.23,4.40,-0.23,0.23,0.13,0.49,4.63,4.63,4.63
45.68,4.42,-0.21,4.42,-0.21,0.21,0.10,0.44,4.63,4.63,4.63
46.13,4.45,-0.17,4.44,-0.18,0.18,0.07,0.39,4.63,4.62,4.62
46.60,4.46,-0.16,4.47,-0.15,0.15,0.05,0.34,4.61,4.62,4.62
47.06,4.49,-0.12,4.49,-0.12,0.12,0.02,0.29,4.61,4.61,4.61
47.53,4.51,-0.09,4.51,-0.09,0.09,-0.01,0.24,4.60,4.60,4.60
48.01,4.52,-0.07,4.52,-0.06,0.06,-0.03,0.19,4.58,4.58,4.59
48.49,4.54,-0.03,4.54,-0.03,0.03,-0.06,0.14,4.57,4.57,4.57
48.97,4.56,0.00,4.56,0.00,-0.00,-0.09,0.09,4.56,4.56,4.56
49.46,4.58,0.03,4.58,0.04,-0.03,-0.12,0.04,4.55,4.54,4.55
49.96,4.60,0.08,4.59,0.07,-0.07,-0.14,-0.00,4.53,4.53,4.52
50.46,4.60,0.09,4.61,0.10,-0.10,-0.17,-0.05,4.50,4.51,4.51
50.96,4.62,0.13,4.62,0.13,-0.13,-0.20,-0.10,4.49,4.49,4.49
51.47,4.63,0.15,4.63,0.16,-0.16,-0.22,-0.14,4.47,4.47,4.48
51.99,4.65,0.20,4.65,0.19,-0.19,-0.25,-0.19,4.46,4.46,4.45
52.51,4.66,0.22,4.66,0.22,-0.22,-0.28,-0.23,4.44,4.44,4.44
53.03,4.67,0.24,4.67,0.25,-0.25,-0.31,-0.27,4.42,4.42,4.43
53.56,4.68,0.28,4.68,0.28,-0.28,-0.33,-0.32,4.40,4.41,4.40
54.10,4.70,0.31,4.69,0.31,-0.30,-0.36,-0.36,4.40,4.39,4.39
54.64,4.70,0.33,4.70,0.33,-0.33,-0.39,-0.40,4.37,4.38,4.37
55.18,4.71,0.35,4.71,0.35,-0.35,-0.41,-0.44,4.36,4.36,4.36
55.74,4.72,0.37,4.72,0.37,-0.38,-0.44,-0.48,4.34,4.34,4.35
56.29,4.73,0.40,4.73,0.40,-0.40,-0.47,-0.52,4.32,4.32,4.33
56.86,4.74,0.43,4.74,0.43,-0.43,-0.50,-0.56,4.31,4.31,4.31
57.42,4.75,0.45,4.75,0.46,-0.46,-0.53,-0.60,4.29,4.30,4.30
58.00,4.77,0.49,4.77,0.49,-0.49,-0.55,-0.64,4.28,4.28,4.28
58.58,4.78,0.52,4.78,0.52,-0.52,-0.58,-0.67,4.26,4.26,4.26
59.16,4.78,0.54,4.78,0.55,-0.55,-0.61,-0.71,4.23,4.24,4.24
59.76,4.79,0.57,4.79,0.57,-0.58,-0.64,-0.74,4.21,4.21,4.22
60.35,4.79,0.60,4.79,0.60,-0.61,-0.67,-0.77,4.18,4.19,4.19
60.96,4.80,0.64,4.80,0.63,-0.64,-0.70,-0.80,4.16,4.17,4.16
61.57,4.81,0.67,4.81,0.67,-0.67,-0.72,-0.84,4.14,4.14,4.14
62.18,4.81,0.69,4.81,0.70,-0.70,-0.75,-0.87,4.11,4.11,4.12
62.80,4.81,0.73,4.81,0.73,-0.73,-0.78,-0.89,4.08,4.08,4.08
63.43,4.81,0.75,4.81,0.76,-0.76,-0.81,-0.92,4.05,4.05,4.06
64.07,4.82,0.80,4.82,0.79,-0.79,-0.84,-0.95,4.03,4.02,4.02
64.71,4.82,0.83,4.82,0.82,-0.82,-0.87,-0.97,4.00,3.99,3.99
65.35,4.82,0.85,4.82,0.86,-0.85,-0.90,-1.00,3.97,3.97,3.97
66.01,4.82,0.88,4.82,0.88,-0.88,-0.93,-1.02,3.94,3.94,3.94
66.67,4.83,0.92,4.82,0.91,-0.91,-0.96,-1.05,3.92,3.91,3.91
67.33,4.82,0.94,4.82,0.94,-0.94,-0.99,-1.07,3.88,3.88,3.88
68.01,4.82,0.97,4.82,0.98,-0.98,-1.02,-1.09,3.84,3.85,3.85
68.69,4.83,1.01,4.82,1.00,-1.01,-1.06,-1.12,3.82,3.82,3.82
69.37,4.82,1.03,4.82,1.04,-1.04,-1.09,-1.14,3.78,3.78,3.79
70.07,4.82,1.07,4.82,1.07,-1.07,-1.12,-1.16,3.75,3.75,3.75
70.77,4.82,1.10,4.82,1.10,-1.10,-1.15,-1.18,3.71,3.71,3.72
71.48,4.82,1.15,4.82,1.14,-1.14,-1.18,-1.20,3.68,3.68,3.67
72.19,4.81,1.17,4.81,1.18,-1.17,-1.21,-1.23,3.64,3.64,3.64
72.91,4.81,1.21,4.81,1.21,-1.20,-1.25,-1.25,3.61,3.61,3.60
73.64,4.80,1.24,4.80,1.23,-1.23,-1.28,-1.27,3.57,3.57,3.56
74.38,4.80,1.26,4.80,1.26,-1.27,-1.31,-1.29,3.53,3.53,3.54
75.12,4.79,1.29,4.79,1.29,-1.30,-1.34,-1.32,3.49,3.49,3.50
75.87,4.79,1.33,4.79,1.33,-1.33,-1.38,-1.34,3.46,3.45,3.46
76.63,4.78,1.36,4.78,1.37,-1.37,-1.41,-1.37,3.41,3.42,3.42
77.40,4.78,1.40,4.78,1.40,-1.40,-1.44,-1.39,3.38,3.38,3.38
78.17,4.77,1.44,4.77,1.44,-1.43,-1.48,-1.42,3.34,3.33,3.33
78.95,4.76,1.47,4.76,1.47,-1.47,-1.51,-1.45,3.29,3.29,3.29
79.74,4.75,1.50,4.75,1.51,-1.50,-1.55,-1.48,3.25,3.25,3.25
80.54,4.74,1.54,4.74,1.54,-1.54,-1.58,-1.51,3.20,3.20,3.20
81.35,4.74,1.57,4.73,1.57,-1.57,-1.62,-1.54,3.17,3.16,3.16
82.16,4.72,1.60,4.72,1.61,-1.61,-1.65,-1.57,3.11,3.12,3.12
82.98,4.71,1.64,4.71,1.64,-1.64,-1.68,-1.60,3.07,3.07,3.07
83.81,4.71,1.68,4.70,1.67,-1.67,-1.72,-1.64,3.04,3.03,3.03
84.65,4.69,1.71,4.69,1.71,-1.71,-1.75,-1.67,2.98,2.99,2.98
85.50,4.68,1.75,4.68,1.74,-1.74,-1.79,-1.71,2.94,2.94,2.93
86.35,4.67,1.78,4.67,1.78,-1.78,-1.82,-1.75,2.89,2.89,2.89
87.22,4.65,1.81,4.65,1.81,-1.81,-1.86,-1.79,2.84,2.84,2.84
88.09,4.64,1.85,4.64,1.84,-1.84,-1.90,-1.83,2.80,2.79,2.79
88.97,4.62,1.87,4.62,1.88,-1.88,-1.93,-1.87,2.74,2.75,2.75
89.86,4.61,1.91,4.61,1.91,-1.91,-1.97,-1.92,2.70,2.70,2.70
90.76,4.60,1.95,4.60,1.94,-1.94,-2.00,-1.96,2.66,2.65,2.65
91.66,4.58,1.98,4.58,1.98,-1.98,-2.04,-2.01,2.60,2.60,2.60
92.58,4.56,2.01,4.56,2.01,-2.01,-2.07,-2.06,2.55,2.55,2.55
93.51,4.55,2.05,4.55,2.05,-2.05,-2.11,-2.11,2.50,2.50,2.50
94.44,4.53,2.08,4.53,2.08,-2.08,-2.14,-2.16,2.45,2.44,2.45
95.39,4.51,2.12,4.51,2.12,-2.12,-2.18,-2.21,2.39,2.39,2.39
96.34,4.49,2.16,4.49,2.16,-2.16,-2.22,-2.27,2.33,2.33,2.33
97.30,4.47,2.19,4.47,2.20,-2.20,-2.25,-2.32,2.27,2.27,2.28
98.28,4.46,2.24,4.45,2.24,-2.24,-2.29,-2.38,2.22,2.22,2.22
99.26,4.43,2.28,4.44,2.28,-2.28,-2.32,-2.43,2.15,2.16,2.15
100.25,4.42,2.32,4.42,2.32,-2.32,-2.36,-2.49,2.10,2.10,2.10
101.25,4.40,2.36,4.40,2.36,-2.36,-2.39,-2.55,2.04,2.03,2.04
102.27,4.37,2.40,4.38,2.40,-2.40,-2.43,-2.61,1.97,1.97,1.97
103.29,4.36,2.45,4.35,2.44,-2.44,-2.46,-2.67,1.92,1.91,1.91
104.32,4.33,2.49,4.33,2.49,-2.48,-2.50,-2.73,1.85,1.85,1.84
105.37,4.31,2.52,4.31,2.52,-2.52,-2.53,-2.79,1.79,1.79,1.79
106.42,4.29,2.56,4.29,2.56,-2.56,-2.57,-2.85,1.73,1.73,1.73
107.48,4.26,2.59,4.26,2.60,-2.59,-2.60,-2.90,1.66,1.67,1.67
108.56,4.24,2.64,4.24,2.63,-2.63,-2.64,-2.96,1.61,1.61,1.60
109.64,4.21,2.66,4.21,2.66,-2.66,-2.67,-3.02,1.55,1.55,1.55
110.74,4.18,2.69,4.18,2.70,-2.70,-2.71,-3.07,1.48,1.49,1.49
111.85,4.16,2.74,4.16,2.73,-2.73,-2.74,-3.12,1.43,1.42,1.42
112.97,4.13,2.77,4.13,2.77,-2.77,-2.77,-3.17,1.36,1.36,1.36
114.10,4.10,2.80,4.10,2.80,-2.80,-2.81,-3.22,1.30,1.30,1.30
115.24,4.07,2.83,4.07,2.83,-2.84,-2.84,-3.27,1.23,1.23,1.24
116.39,4.04,2.87,4.04,2.87,-2.87,-2.88,-3.31,1.17,1.17,1.17
117.55,4.01,2.91,4.01,2.91,-2.91,-2.91,-3.35,1.10,1.10,1.10
118.73,3.98,2.95,3.98,2.95,-2.95,-2.94,-3.39,1.03,1.03,1.03
119.92,3.95,2.99,3.95,2.99,-2.99,-2.97,-3.42,0.96,0.96,0.96
121.12,3.92,3.03,3.92,3.03,-3.03,-3.01,-3.45,0.89,0.89,0.89
122.33,3.89,3.08,3.89,3.07,-3.07,-3.04,-3.47,0.82,0.81,0.81
123.55,3.85,3.11,3.85,3.11,-3.11,-3.07,-3.49,0.74,0.74,0.74
124.79,3.82,3.15,3.82,3.15,-3.16,-3.10,-3.51,0.66,0.66,0.67
126.03,3.78,3.19,3.78,3.19,-3.20,-3.13,-3.52,0.58,0.59,0.59
127.29,3.75,3.24,3.75,3.24,-3.23,-3.16,-3.53,0.52,0.52,0.51
128.57,3.72,3.28,3.72,3.27,-3.27,-3.19,-3.53,0.45,0.45,0.44
129.85,3.68,3.31,3.69,3.31,-3.30,-3.22,-3.53,0.38,0.38,0.37
131.15,3.66,3.34,3.65,3.34,-3.34,-3.25,-3.53,0.32,0.32,0.32
132.46,3.62,3.36,3.62,3.37,-3.37,-3.28,-3.52,0.25,0.25,0.26
133.79,3.59,3.39,3.59,3.39,-3.39,-3.31,-3.51,0.20,0.20,0.20
135.12,3.56,3.42,3.56,3.42,-3.42,-3.33,-3.50,0.14,0.14,0.14
136.48,3.54,3.44,3.54,3.45,-3.45,-3.36,-3.48,0.09,0.09,0.10
137.84,3.52,3.48,3.51,3.47,-3.47,-3.39,-3.46,0.05,0.04,0.04
139.22,3.49,3.49,3.49,3.49,-3.49,-3.41,-3.44,-0.00,-0.00,-0.00
140.61,3.46,3.51,3.47,3.52,-3.52,-3.44,-3.41,-0.06,-0.05,-0.05
142.02,3.45,3.54,3.45,3.53,-3.54,-3.46,-3.39,-0.09,-0.09,-0.09
143.44,3.43,3.56,3.43,3.56,-3.55,-3.49,-3.36,-0.12,-0.13,-0.13
144.87,3.40,3.57,3.40,3.57,-3.57,-3.51,-3.34,-0.17,-0.17,-0.17
146.32,3.38,3.59,3.38,3.59,-3.58,-3.53,-3.31,-0.20,-0.21,-0.21
147.78,3.35,3.59,3.35,3.60,-3.60,-3.55,-3.28,-0.25,-0.24,-0.24
149.26,3.33,3.61,3.33,3.61,-3.61,-3.57,-3.25,-0.28,-0.28,-0.28
150.75,3.30,3.62,3.30,3.61,-3.62,-3.59,-3.22,-0.32,-0.32,-0.32
152.26,3.27,3.62,3.27,3.63,-3.62,-3.61,-3.20,-0.36,-0.35,-0.35
153.78,3.24,3.63,3.24,3.63,-3.63,-3.63,-3.17,-0.39,-0.39,-0.39
155.32,3.22,3.64,3.21,3.64,-3.64,-3.64,-3.15,-0.42,-0.42,-0.42
156.88,3.18,3.64,3.19,3.64,-3.64,-3.66,-3.12,-0.46,-0.46,-0.46
158.44,3.16,3.65,3.16,3.65,-3.65,-3.67,-3.10,-0.49,-0.49,-0.49
160.03,3.13,3.65,3.13,3.65,-3.65,-3.69,-3.08,-0.52,-0.53,-0.52
161.63,3.10,3.66,3.10,3.66,-3.66,-3.70,-3.06,-0.56,-0.56,-0.56
163.24,3.08,3.67,3.08,3.66,-3.66,-3.71,-3.04,-0.58,-0.59,-0.59
164.88,3.05,3.67,3.06,3.67,-3.67,-3.72,-3.02,-0.62,-0.61,-0.62
166.53,3.04,3.68,3.03,3.67,-3.67,-3.73,-3.01,-0.63,-0.64,-0.64
168.19,3.01,3.67,3.01,3.67,-3.68,-3.74,-3.00,-0.67,-0.67,-0.66
169.87,2.99,3.68,2.99,3.68,-3.68,-3.74,-2.99,-0.69,-0.69,-0.69
171.57,2.97,3.68,2.97,3.68,-3.69,-3.75,-2.98,-0.72,-0.71,-0.71
173.29,2.96,3.69,2.96,3.69,-3.69,-3.75,-2.98,-0.73,-0.73,-0.73
175.02,2.94,3.70,2.94,3.69,-3.69,-3.75,-2.97,-0.75,-0.75,-0.76
176.77,2.92,3.69,2.92,3.70,-3.70,-3.75,-2.97,-0.78,-0.77,-0.77
178.54,2.90,3.70,2.90,3.70,-3.70,-3.75,-2.98,-0.80,-0.80,-0.80
180.32,2.89,3.70,2.88,3.70,-3.70,-3.75,-2.98,-0.81,-0.82,-0.81
182.13,2.86,3.69,2.87,3.70,-3.70,-3.75,-2.99,-0.84,-0.83,-0.83
183.95,2.85,3.71,2.85,3.70,-3.70,-3.74,-3.00,-0.85,-0.85,-0.86
185.79,2.83,3.70,2.83,3.70,-3.70,-3.74,-3.01,-0.87,-0.87,-0.87
187.65,2.81,3.70,2.81,3.69,-3.69,-3.73,-3.02,-0.88,-0.88,-0.89
189.52,2.78,3.69,2.79,3.69,-3.69,-3.72,-3.04,-0.91,-0.90,-0.91
191.42,2.76,3.68,2.76,3.68,-3.68,-3.71,-3.05,-0.92,-0.92,-0.92
193.33,2.74,3.67,2.73,3.67,-3.67,-3.70,-3.07,-0.93,-0.94,-0.93
195.27,2.70,3.65,2.71,3.66,-3.66,-3.69,-3.10,-0.96,-0.95,-0.95
197.22,2.68,3.65,2.68,3.64,-3.64,-3.68,-3.12,-0.96,-0.97,-0.97
199.19,2.65,3.63,2.65,3.63,-3.63,-3.66,-3.14,-0.98,-0.98,-0.98
201.18,2.62,3.61,2.62,3.61,-3.62,-3.65,-3.17,-1.00,-1.00,-0.99
203.19,2.59,3.60,2.59,3.60,-3.60,-3.63,-3.20,-1.01,-1.01,-1.01
205.23,2.56,3.58,2.56,3.58,-3.58,-3.61,-3.22,-1.02,-1.02,-1.02
207.28,2.53,3.57,2.53,3.57,-3.56,-3.59,-3.25,-1.03,-1.04,-1.04
209.35,2.49,3.54,2.49,3.55,-3.54,-3.57,-3.28,-1.05,-1.05,-1.05
211.44,2.46,3.53,2.46,3.52,-3.52,-3.55,-3.31,-1.06,-1.07,-1.07
213.56,2.42,3.50,2.42,3.50,-3.50,-3.52,-3.34,-1.08,-1.08,-1.08
215.69,2.38,3.47,2.38,3.48,-3.47,-3.50,-3.37,-1.09,-1.09,-1.09
217.85,2.35,3.45,2.34,3.45,-3.45,-3.48,-3.40,-1.10,-1.10,-1.10
220.03,2.30,3.42,2.30,3.42,-3.42,-3.45,-3.43,-1.12,-1.11,-1.12
222.23,2.26,3.39,2.26,3.39,-3.39,-3.42,-3.45,-1.13,-1.13,-1.13
224.45,2.22,3.36,2.22,3.35,-3.36,-3.39,-3.48,-1.14,-1.14,-1.14
226.70,2.17,3.32,2.17,3.32,-3.32,-3.37,-3.50,-1.15,-1.15,-1.15
228.96,2.13,3.29,2.13,3.29,-3.29,-3.34,-3.52,-1.16,-1.16,-1.16
231.25,2.09,3.26,2.09,3.26,-3.26,-3.31,-3.54,-1.17,-1.18,-1.17
233.57,2.04,3.23,2.04,3.23,-3.23,-3.28,-3.55,-1.19,-1.19,-1.19
235.90,2.00,3.20,2.00,3.20,-3.20,-3.24,-3.56,-1.20,-1.20,-1.20
238.26,1.96,3.17,1.96,3.17,-3.17,-3.21,-3.57,-1.21,-1.21,-1.21
240.64,1.91,3.14,1.92,3.14,-3.14,-3.18,-3.57,-1.23,-1.22,-1.23
243.05,1.88,3.11,1.87,3.11,-3.10,-3.15,-3.57,-1.22,-1.23,-1.23
245.48,1.83,3.07,1.83,3.07,-3.07,-3.11,-3.57,-1.24,-1.24,-1.24
247.93,1.78,3.03,1.79,3.04,-3.04,-3.08,-3.56,-1.26,-1.25,-1.25
250.41,1.75,3.01,1.74,3.00,-3.01,-3.04,-3.55,-1.26,-1.26,-1.26
252.92,1.70,2.97,1.70,2.97,-2.97,-3.01,-3.53,-1.27,-1.27,-1.28
255.45,1.66,2.94,1.66,2.94,-2.94,-2.97,-3.51,-1.28,-1.28,-1.28
258.00,1.61,2.90,1.61,2.90,-2.91,-2.94,-3.48,-1.30,-1.30,-1.29
260.58,1.57,2.87,1.57,2.88,-2.88,-2.90,-3.45,-1.31,-1.30,-1.30
263.19,1.54,2.85,1.53,2.85,-2.85,-2.87,-3.42,-1.31,-1.31,-1.31
265.82,1.50,2.83,1.50,2.82,-2.82,-2.83,-3.38,-1.32,-1.32,-1.33
268.48,1.45,2.78,1.46,2.79,-2.79,-2.79,-3.33,-1.34,-1.33,-1.33
271.16,1.42,2.77,1.41,2.76,-2.76,-2.76,-3.29,-1.34,-1.34,-1.35
273.87,1.37,2.72,1.37,2.73,-2.73,-2.72,-3.24,-1.36,-1.36,-1.35
276.61,1.33,2.70,1.33,2.70,-2.70,-2.68,-3.19,-1.37,-1.37,-1.37
279.38,1.29,2.66,1.29,2.67,-2.67,-2.64,-3.13,-1.38,-1.38,-1.37
282.17,1.26,2.65,1.26,2.64,-2.65,-2.61,-3.08,-1.39,-1.39,-1.39
284.99,1.22,2.62,1.22,2.62,-2.62,-2.57,-3.02,-1.40,-1.40,-1.40
287.84,1.18,2.60,1.18,2.60,-2.60,-2.53,-2.96,-1.42,-1.41,-1.42
290.72,1.15,2.58,1.15,2.57,-2.57,-2.50,-2.90,-1.42,-1.43,-1.43
293.63,1.11,2.55,1.11,2.55,-2.55,-2.46,-2.84,-1.44,-1.44,-1.44
296.57,1.07,2.52,1.07,2.52,-2.52,-2.42,-2.77,-1.45,-1.45,-1.45
299.53,1.04,2.50,1.04,2.50,-2.49,-2.39,-2.71,-1.45,-1.46,-1.46
302.53,1.00,2.47,1.00,2.47,-2.47,-2.35,-2.64,-1.47,-1.47,-1.47
305.55,0.96,2.44,0.96,2.44,-2.44,-2.31,-2.58,-1.48,-1.48,-1.48
308.61,0.92,2.40,0.92,2.40,-2.41,-2.28,-2.52,-1.49,-1.49,-1.48
311.69,0.88,2.37,0.88,2.37,-2.38,-2.24,-2.45,-1.50,-1.49,-1.49
314.81,0.85,2.35,0.85,2.34,-2.34,-2.21,-2.39,-1.49,-1.50,-1.50
317.96,0.81,2.31,0.81,2.31,-2.31,-2.17,-2.33,-1.50,-1.50,-1.50
321.14,0.77,2.28,0.77,2.28,-2.28,-2.13,-2.26,-1.51,-1.51,-1.51
324.35,0.73,2.25,0.73,2.24,-2.24,-2.10,-2.20,-1.51,-1.51,-1.52
327.59,0.69,2.21,0.69,2.21,-2.21,-2.06,-2.14,-1.52,-1.52,-1.52
330.87,0.65,2.18,0.65,2.18,-2.18,-2.03,-2.08,-1.53,-1.53,-1.53
334.18,0.61,2.15,0.61,2.14,-2.14,-2.00,-2.03,-1.53,-1.53,-1.54
337.52,0.56,2.10,0.57,2.11,-2.11,-1.96,-1.97,-1.55,-1.54,-1.54
340.90,0.53,2.08,0.52,2.07,-2.07,-1.93,-1.91,-1.54,-1.55,-1.55
344.30,0.48,2.03,0.48,2.04,-2.04,-1.90,-1.86,-1.56,-1.56,-1.55
347.75,0.44,2.00,0.44,2.01,-2.01,-1.86,-1.81,-1.57,-1.56,-1.56
351.23,0.40,1.98,0.40,1.97,-1.97,-1.83,-1.76,-1.57,-1.57,-1.58
354.74,0.36,1.95,0.36,1.94,-1.94,-1.80,-1.70,-1.58,-1.58,-1.59
358.28,0.31,1.90,0.31,1.91,-1.91,-1.77,-1.66,-1.60,-1.59,-1.59
361.87,0.27,1.87,0.27,1.87,-1.87,-1.73,-1.61,-1.60,-1.60,-1.60
365.49,0.23,1.84,0.23,1.84,-1.84,-1.70,-1.56,-1.61,-1.61,-1.61
369.14,0.18,1.80,0.18,1.81,-1.81,-1.67,-1.52,-1.63,-1.62,-1.62
372.83,0.14,1.78,0.14,1.77,-1.77,-1.64,-1.47,-1.63,-1.64,-1.64
376.56,0.09,1.74,0.09,1.74,-1.74,-1.61,-1.43,-1.65,-1.65,-1.65
380.33,0.05,1.71,0.05,1.71,-1.71,-1.58,-1.39,-1.66,-1.66,-1.66
384.13,0.01,1.68,0.01,1.68,-1.68,-1.55,-1.35,-1.67,-1.67,-1.67
387.97,-0.04,1.64,-0.04,1.64,-1.64,-1.52,-1.31,-1.68,-1.68,-1.68
391.85,-0.09,1.60,-0.09,1.61,-1.61,-1.49,-1.27,-1.70,-1.69,-1.69
395.77,-0.13,1.57,-0.13,1.57,-1.57,-1.46,-1.24,-1.70,-1.70,-1.70
399.73,-0.17,1.55,-0.17,1.54,-1.54,-1.44,-1.20,-1.71,-1.71,-1.72
403.72,-0.21,1.51,-0.21,1.51,-1.51,-1.41,-1.17,-1.72,-1.72,-1.72
407.76,-0.26,1.47,-0.26,1.47,-1.47,-1.38,-1.14,-1.73,-1.73,-1.73
411.84,-0.30,1.44,-0.30,1.44,-1.44,-1.35,-1.10,-1.74,-1.74,-1.74
415.96,-0.34,1.41,-0.34,1.41,-1.41,-1.33,-1.07,-1.75,-1.75,-1.75
420.12,-0.39,1.37,-0.39,1.37,-1.37,-1.30,-1.04,-1.76,-1.76,-1.76
424.32,-0.43,1.34,-0.43,1.34,-1.34,-1.27,-1.01,-1.77,-1.77,-1.77
428.56,-0.48,1.30,-0.48,1.31,-1.31,-1.25,-0.98,-1.79,-1.79,-1.78
432.85,-0.52,1.27,-0.52,1.27,-1.28,-1.22,-0.96,-1.80,-1.79,-1.79
437.18,-0.56,1.24,-0.56,1.24,-1.24,-1.20,-0.93,-1.80,-1.81,-1.80
441.55,-0.60,1.22,-0.60,1.22,-1.21,-1.17,-0.90,-1.81,-1.82,-1.82
445.96,-0.65,1.19,-0.65,1.19,-1.18,-1.15,-0.88,-1.83,-1.83,-1.84
450.42,-0.69,1.16,-0.69,1.15,-1.15,-1.13,-0.85,-1.84,-1.84,-1.85
454.93,-0.74,1.12,-0.74,1.12,-1.12,-1.10,-0.83,-1.86,-1.86,-1.86
459.48,-0.79,1.09,-0.79,1.09,-1.09,-1.08,-0.81,-1.88,-1.88,-1.88
464.07,-0.83,1.06,-0.83,1.06,-1.06,-1.06,-0.79,-1.89,-1.89,-1.89
468.71,-0.87,1.03,-0.87,1.03,-1.03,-1.03,-0.76,-1.90,-1.90,-1.90
473.40,-0.91,1.00,-0.91,1.00,-1.00,-1.01,-0.74,-1.91,-1.91,-1.91
478.13,-0.96,0.97,-0.95,0.97,-0.97,-0.99,-0.72,-1.93,-1.92,-1.93
482.91,-0.99,0.95,-1.00,0.94,-0.94,-0.97,-0.70,-1.93,-1.94,-1.94
487.74,-1.04,0.91,-1.04,0.92,-0.91,-0.94,-0.68,-1.95,-1.95,-1.95
492.62,-1.08,0.88,-1.08,0.88,-0.88,-0.92,-0.66,-1.96,-1.96,-1.96
497.55,-1.12,0.85,-1.12,0.85,-0.85,-0.90,-0.65,-1.97,-1.98,-1.97
502.52,-1.17,0.81,-1.17,0.82,-0.82,-0.88,-0.63,-1.99,-1.99,-1.98
507.55,-1.21,0.79,-1.21,0.79,-0.79,-0.86,-0.61,-2.00,-2.00,-2.00
512.62,-1.25,0.76,-1.25,0.76,-0.76,-0.84,-0.59,-2.01,-2.01,-2.01
