frequency,raw,error,smoothed,error_smoothed,equalization,parametric_eq,fixed_band_eq,equalized_raw,equalized_smoothed,target
20.00,-4.87,-3.12,-4.87,-3.11,3.11,1.60,0.38,-1.76,-1.76,-1.75
20.20,-4.80,-3.05,-4.80,-3.05,3.05,1.69,0.39,-1.75,-1.75,-1.75
20.40,-4.73,-2.99,-4.73,-2.99,2.99,1.79,0.40,-1.74,-1.75,-1.74
20.61,-4.66,-2.93,-4.66,-2.93,2.93,1.88,0.42,-1.74,-1.74,-1.73
20.81,-4.59,-2.86,-4.59,-2.86,2.86,1.97,0.43,-1.73,-1.73,-1.73
21.02,-4.52,-2.80,-4.52,-2.79,2.80,2.06,0.45,-1.73,-1.72,-1.72
21.23,-4.44,-2.72,-4.45,-2.73,2.73,2.14,0.46,-1.71,-1.72,-1.72
21.44,-4.37,-2.66,-4.37,-2.66,2.66,2.20,0.48,-1.71,-1.71,-1.71
21.66,-4.30,-2.60,-4.30,-2.59,2.59,2.26,0.49,-1.71,-1.71,-1.70
21.87,-4.22,-2.52,-4.23,-2.53,2.52,2.30,0.51,-1.70,-1.70,-1.70
22.09,-4.15,-2.46,-4.15,-2.46,2.45,2.33,0.53,-1.70,-1.70,-1.69
22.31,-4.07,-2.39,-4.07,-2.38,2.38,2.34,0.55,-1.69,-1.69,-1.68
22.54,-3.99,-2.31,-3.99,-2.31,2.31,2.33,0.57,-1.69,-1.68,-1.68
22.76,-3.90,-2.23,-3.91,-2.23,2.23,2.31,0.58,-1.67,-1.67,-1.67
22.99,-3.82,-2.16,-3.82,-2.16,2.16,2.28,0.60,-1.66,-1.66,-1.66
23.22,-3.74,-2.09,-3.75,-2.09,2.10,2.23,0.62,-1.65,-1.65,-1.65
23.45,-3.67,-2.03,-3.67,-2.03,2.03,2.17,0.64,-1.64,-1.64,-1.64
23.69,-3.60,-1.97,-3.60,-1.97,1.97,2.10,0.66,-1.64,-1.63,-1.63
23.92,-3.52,-1.90,-3.53,-1.91,1.91,2.02,0.69,-1.61,-1.63,-1.62
24.16,-3.47,-1.86,-3.47,-1.85,1.85,1.94,0.71,-1.62,-1.62,-1.61
24.40,-3.40,-1.80,-3.40,-1.80,1.79,1.85,0.73,-1.61,-1.61,-1.60
24.65,-3.32,-1.74,-3.32,-1.74,1.73,1.77,0.75,-1.59,-1.59,-1.58
24.89,-3.24,-1.67,-3.25,-1.67,1.67,1.68,0.77,-1.57,-1.58,-1.57
25.14,-3.17,-1.61,-3.17,-1.61,1.61,1.59,0.79,-1.56,-1.56,-1.56
25.39,-3.10,-1.55,-3.10,-1.55,1.55,1.50,0.82,-1.55,-1.55,-1.55
25.65,-3.03,-1.49,-3.03,-1.49,1.49,1.42,0.84,-1.55,-1.54,-1.54
25.91,-2.95,-1.43,-2.95,-1.43,1.42,1.34,0.86,-1.53,-1.53,-1.53
26.16,-2.87,-1.36,-2.88,-1.36,1.36,1.26,0.88,-1.51,-1.51,-1.51
26.43,-2.80,-1.30,-2.80,-1.30,1.30,1.18,0.91,-1.50,-1.50,-1.50
26.69,-2.73,-1.24,-2.73,-1.24,1.24,1.11,0.93,-1.49,-1.49,-1.49
26.96,-2.66,-1.19,-2.66,-1.19,1.19,1.04,0.95,-1.48,-1.48,-1.48
27.23,-2.59,-1.13,-2.59,-1.13,1.13,0.97,0.97,-1.46,-1.46,-1.46
27.50,-2.52,-1.08,-2.52,-1.08,1.07,0.91,0.99,-1.45,-1.45,-1.44
27.77,-2.45,-1.02,-2.45,-1.02,1.02,0.85,1.00,-1.43,-1.43,-1.43
28.05,-2.38,-0.97,-2.38,-0.97,0.96,0.80,1.02,-1.42,-1.42,-1.41
28.33,-2.31,-0.91,-2.31,-0.91,0.91,0.74,1.04,-1.40,-1.40,-1.40
28.62,-2.24,-0.86,-2.25,-0.86,0.86,0.69,1.05,-1.38,-1.38,-1.39
28.90,-2.18,-0.81,-2.18,-0.81,0.81,0.65,1.06,-1.37,-1.37,-1.37
29.19,-2.11,-0.76,-2.11,-0.76,0.76,0.60,1.07,-1.35,-1.35,-1.35
29.48,-2.05,-0.71,-2.05,-0.71,0.71,0.56,1.08,-1.34,-1.34,-1.34
29.78,-1.99,-0.67,-2.00,-0.67,0.66,0.52,1.09,-1.33,-1.33,-1.32
30.08,-1.94,-0.63,-1.94,-0.62,0.62,0.48,1.10,-1.33,-1.32,-1.31
30.38,-1.87,-0.58,-1.87,-0.58,0.57,0.44,1.10,-1.31,-1.30,-1.30
30.68,-1.80,-0.52,-1.81,-0.52,0.52,0.41,1.10,-1.28,-1.28,-1.28
30.99,-1.73,-0.47,-1.74,-0.47,0.48,0.38,1.10,-1.26,-1.26,-1.27
31.30,-1.67,-0.42,-1.67,-0.42,0.43,0.34,1.10,-1.24,-1.24,-1.25
31.61,-1.61,-0.38,-1.62,-0.38,0.38,0.31,1.09,-1.23,-1.23,-1.23
31.93,-1.56,-0.34,-1.56,-0.34,0.34,0.29,1.08,-1.22,-1.22,-1.22
32.24,-1.51,-0.31,-1.51,-0.30,0.30,0.26,1.07,-1.22,-1.21,-1.20
32.57,-1.45,-0.26,-1.45,-0.26,0.25,0.23,1.06,-1.20,-1.20,-1.19
32.89,-1.39,-0.22,-1.40,-0.22,0.22,0.21,1.05,-1.18,-1.18,-1.17
33.22,-1.34,-0.18,-1.34,-0.17,0.18,0.18,1.03,-1.16,-1.16,-1.16
33.55,-1.28,-0.14,-1.28,-0.13,0.14,0.16,1.01,-1.14,-1.14,-1.14
33.89,-1.22,-0.09,-1.23,-0.10,0.11,0.14,0.99,-1.12,-1.12,-1.13
34.23,-1.18,-0.07,-1.18,-0.06,0.07,0.11,0.97,-1.11,-1.11,-1.11
34.57,-1.14,-0.04,-1.14,-0.04,0.03,0.09,0.94,-1.11,-1.11,-1.10
34.92,-1.10,-0.01,-1.10,-0.01,0.00,0.07,0.92,-1.10,-1.10,-1.09
35.27,-1.05,0.02,-1.05,0.02,-0.03,0.05,0.89,-1.09,-1.09,-1.08
35.62,-1.00,0.06,-1.00,0.06,-0.06,0.03,0.86,-1.07,-1.07,-1.06
35.97,-0.95,0.10,-0.95,0.10,-0.09,0.01,0.83,-1.05,-1.05,-1.05
36.33,-0.90,0.14,-0.91,0.14,-0.13,-0.01,0.80,-1.03,-1.04,-1.04
36.70,-0.87,0.16,-0.87,0.16,-0.16,-0.02,0.77,-1.03,-1.03,-1.03
37.06,-0.84,0.18,-0.84,0.19,-0.19,-0.04,0.74,-1.03,-1.03,-1.02
37.43,-0.80,0.21,-0.80,0.22,-0.22,-0.06,0.70,-1.03,-1.02,-1.01
37.81,-0.75,0.25,-0.75,0.25,-0.26,-0.08,0.67,-1.01,-1.01,-1.00
38.19,-0.70,0.29,-0.71,0.29,-0.29,-0.09,0.64,-0.99,-0.99,-0.99
38.57,-0.66,0.32,-0.66,0.33,-0.32,-0.11,0.60,-0.99,-0.98,-0.98
38.95,-0.61,0.36,-0.62,0.36,-0.36,-0.13,0.57,-0.97,-0.97,-0.97
39.34,-0.57,0.39,-0.57,0.39,-0.39,-0.14,0.53,-0.97,-0.97,-0.96
39.74,-0.53,0.42,-0.53,0.43,-0.43,-0.16,0.50,-0.96,-0.96,-0.95
40.14,-0.48,0.47,-0.49,0.47,-0.46,-0.17,0.46,-0.95,-0.95,-0.95
40.54,-0.44,0.50,-0.44,0.50,-0.50,-0.19,0.43,-0.94,-0.94,-0.94
40.94,-0.40,0.53,-0.40,0.53,-0.52,-0.20,0.39,-0.93,-0.93,-0.93
41.35,-0.37,0.55,-0.37,0.56,-0.55,-0.22,0.36,-0.92,-0.92,-0.92
41.76,-0.33,0.58,-0.34,0.58,-0.58,-0.24,0.32,-0.91,-0.91,-0.91
42.18,-0.30,0.60,-0.30,0.60,-0.60,-0.25,0.29,-0.91,-0.91,-0.90
42.60,-0.27,0.62,-0.27,0.62,-0.63,-0.27,0.25,-0.90,-0.90,-0.89
43.03,-0.24,0.64,-0.24,0.65,-0.65,-0.28,0.22,-0.90,-0.89,-0.88
43.46,-0.20,0.67,-0.20,0.67,-0.68,-0.30,0.18,-0.88,-0.88,-0.87
43.90,-0.15,0.71,-0.16,0.70,-0.70,-0.31,0.15,-0.85,-0.86,-0.86
44.33,-0.12,0.72,-0.12,0.73,-0.72,-0.33,0.11,-0.84,-0.84,-0.84
44.78,-0.08,0.75,-0.09,0.75,-0.74,-0.34,0.08,-0.83,-0.83,-0.83
45.23,-0.06,0.76,-0.06,0.76,-0.77,-0.36,0.04,-0.83,-0.83,-0.82
45.68,-0.03,0.77,-0.03,0.78,-0.79,-0.37,0.01,-0.82,-0.81,-0.80
46.13,0.01,0.80,0.00,0.80,-0.80,-0.39,-0.03,-0.80,-0.80,-0.79
46.60,0.04,0.81,0.04,0.81,-0.82,-0.40,-0.06,-0.78,-0.78,-0.77
47.06,0.07,0.83,0.07,0.83,-0.83,-0.42,-0.09,-0.76,-0.76,-0.76
47.53,0.09,0.83,0.09,0.84,-0.84,-0.44,-0.13,-0.75,-0.75,-0.74
48.01,0.11,0.84,0.11,0.84,-0.83,-0.45,-0.16,-0.73,-0.73,-0.73
48.49,0.12,0.83,0.11,0.83,-0.82,-0.47,-0.19,-0.70,-0.71,-0.71
48.97,0.11,0.81,0.11,0.81,-0.80,-0.48,-0.23,-0.69,-0.69,-0.70
49.46,0.09,0.77,0.08,0.77,-0.77,-0.50,-0.26,-0.68,-0.68,-0.68
49.96,0.05,0.72,0.05,0.73,-0.72,-0.52,-0.29,-0.68,-0.67,-0.67
50.46,0.01,0.67,0.01,0.67,-0.67,-0.53,-0.33,-0.66,-0.66,-0.66
50.96,-0.04,0.60,-0.04,0.60,-0.60,-0.55,-0.36,-0.65,-0.65,-0.64
51.47,-0.10,0.53,-0.10,0.53,-0.53,-0.57,-0.39,-0.63,-0.63,-0.63
51.99,-0.17,0.45,-0.17,0.45,-0.45,-0.59,-0.43,-0.62,-0.62,-0.62
52.51,-0.24,0.37,-0.24,0.37,-0.36,-0.60,-0.46,-0.61,-0.61,-0.61
53.03,-0.32,0.28,-0.32,0.28,-0.27,-0.62,-0.49,-0.60,-0.60,-0.60
53.56,-0.40,0.18,-0.40,0.19,-0.18,-0.64,-0.52,-0.59,-0.59,-0.58
54.10,-0.48,0.09,-0.48,0.09,-0.09,-0.66,-0.55,-0.58,-0.58,-0.57
54.64,-0.56,0.00,-0.56,0.00,-0.01,-0.68,-0.59,-0.57,-0.57,-0.56
55.18,-0.64,-0.08,-0.64,-0.08,0.08,-0.69,-0.62,-0.57,-0.56,-0.56
55.74,-0.71,-0.16,-0.71,-0.16,0.15,-0.71,-0.65,-0.56,-0.56,-0.55
56.29,-0.77,-0.23,-0.77,-0.22,0.22,-0.73,-0.68,-0.55,-0.55,-0.54
56.86,-0.82,-0.28,-0.82,-0.28,0.28,-0.75,-0.71,-0.54,-0.54,-0.54
57.42,-0.85,-0.32,-0.86,-0.32,0.32,-0.77,-0.73,-0.53,-0.54,-0.53
58.00,-0.88,-0.35,-0.89,-0.35,0.35,-0.79,-0.76,-0.53,-0.53,-0.53
58.58,-0.90,-0.38,-0.90,-0.37,0.37,-0.81,-0.79,-0.54,-0.53,-0.52
59.16,-0.90,-0.38,-0.90,-0.37,0.37,-0.84,-0.82,-0.54,-0.53,-0.52
59.76,-0.87,-0.35,-0.88,-0.35,0.35,-0.86,-0.84,-0.52,-0.53,-0.52
60.35,-0.84,-0.32,-0.85,-0.32,0.32,-0.88,-0.87,-0.52,-0.53,-0.52
60.96,-0.80,-0.28,-0.80,-0.28,0.27,-0.90,-0.89,-0.53,-0.53,-0.52
61.57,-0.74,-0.22,-0.74,-0.22,0.21,-0.92,-0.92,-0.53,-0.53,-0.52
62.18,-0.66,-0.14,-0.66,-0.14,0.13,-0.95,-0.94,-0.53,-0.53,-0.52
62.80,-0.56,-0.04,-0.57,-0.04,0.04,-0.97,-0.96,-0.52,-0.53,-0.52
63.43,-0.46,0.06,-0.46,0.06,-0.06,-0.99,-0.99,-0.53,-0.53,-0.52
64.07,-0.35,0.18,-0.35,0.18,-0.18,-1.02,-1.01,-0.53,-0.53,-0.53
64.71,-0.23,0.30,-0.23,0.30,-0.31,-1.04,-1.03,-0.54,-0.54,-0.53
65.35,-0.10,0.43,-0.10,0.43,-0.44,-1.07,-1.05,-0.54,-0.54,-0.53
66.01,0.04,0.57,0.04,0.57,-0.58,-1.09,-1.07,-0.54,-0.54,-0.53
66.67,0.19,0.72,0.18,0.72,-0.72,-1.12,-1.09,-0.53,-0.53,-0.53
67.33,0.33,0.86,0.33,0.86,-0.86,-1.14,-1.11,-0.53,-0.53,-0.53
68.01,0.47,1.01,0.46,1.00,-1.00,-1.17,-1.13,-0.53,-0.54,-0.54
68.69,0.59,1.13,0.59,1.14,-1.14,-1.19,-1.15,-0.55,-0.54,-0.54
69.37,0.72,1.26,0.72,1.27,-1.27,-1.22,-1.17,-0.55,-0.55,-0.54
70.07,0.86,1.40,0.85,1.40,-1.39,-1.25,-1.19,-0.54,-0.54,-0.54
70.77,0.98,1.52,0.98,1.52,-1.51,-1.28,-1.21,-0.54,-0.54,-0.54
71.48,1.09,1.63,1.09,1.63,-1.62,-1.31,-1.23,-0.54,-0.54,-0.54
72.19,1.19,1.73,1.19,1.73,-1.73,-1.33,-1.25,-0.54,-0.54,-0.54
72.91,1.28,1.81,1.28,1.82,-1.82,-1.36,-1.27,-0.55,-0.54,-0.53
73.64,1.38,1.91,1.38,1.91,-1.91,-1.39,-1.29,-0.53,-0.53,-0.53
74.38,1.47,1.99,1.47,1.99,-1.99,-1.42,-1.31,-0.52,-0.53,-0.52
75.12,1.55,2.07,1.55,2.07,-2.06,-1.45,-1.33,-0.52,-0.52,-0.52
75.87,1.62,2.13,1.62,2.13,-2.13,-1.48,-1.35,-0.51,-0.51,-0.51
76.63,1.68,2.18,1.68,2.19,-2.19,-1.51,-1.38,-0.51,-0.51,-0.50
77.40,1.75,2.24,1.75,2.24,-2.24,-1.55,-1.40,-0.50,-0.50,-0.49
78.17,1.81,2.29,1.81,2.29,-2.29,-1.58,-1.43,-0.48,-0.48,-0.48
78.95,1.86,2.33,1.86,2.33,-2.33,-1.61,-1.45,-0.47,-0.47,-0.47
79.74,1.91,2.37,1.90,2.37,-2.37,-1.64,-1.48,-0.46,-0.46,-0.46
80.54,1.94,2.39,1.94,2.39,-2.40,-1.67,-1.51,-0.46,-0.46,-0.45
81.35,1.97,2.41,1.97,2.42,-2.42,-1.71,-1.54,-0.45,-0.45,-0.44
82.16,2.01,2.44,2.00,2.44,-2.44,-1.74,-1.57,-0.43,-0.43,-0.43
82.98,2.03,2.45,2.03,2.45,-2.45,-1.77,-1.61,-0.42,-0.42,-0.42
83.81,2.05,2.46,2.04,2.46,-2.46,-1.81,-1.64,-0.41,-0.41,-0.41
84.65,2.05,2.45,2.05,2.46,-2.46,-1.84,-1.68,-0.41,-0.40,-0.40
85.50,2.06,2.45,2.06,2.45,-2.45,-1.87,-1.71,-0.40,-0.39,-0.39
86.35,2.07,2.45,2.06,2.45,-2.44,-1.91,-1.75,-0.38,-0.38,-0.38
87.22,2.06,2.43,2.06,2.44,-2.43,-1.94,-1.79,-0.37,-0.37,-0.37
88.09,2.06,2.42,2.05,2.42,-2.42,-1.97,-1.83,-0.36,-0.36,-0.36
88.97,2.05,2.39,2.05,2.40,-2.40,-2.01,-1.88,-0.35,-0.35,-0.34
89.86,2.04,2.37,2.04,2.38,-2.38,-2.04,-1.92,-0.35,-0.34,-0.33
90.76,2.04,2.36,2.04,2.36,-2.37,-2.07,-1.97,-0.33,-0.33,-0.32
91.66,2.04,2.34,2.04,2.35,-2.35,-2.11,-2.01,-0.31,-0.31,-0.30
92.58,2.04,2.33,2.04,2.33,-2.33,-2.14,-2.06,-0.29,-0.29,-0.29
93.51,2.04,2.32,2.04,2.32,-2.31,-2.17,-2.11,-0.27,-0.27,-0.28
94.44,2.04,2.30,2.03,2.30,-2.29,-2.20,-2.16,-0.26,-0.26,-0.26
95.39,2.03,2.28,2.03,2.28,-2.28,-2.24,-2.22,-0.25,-0.25,-0.25
96.34,2.03,2.26,2.02,2.26,-2.26,-2.27,-2.27,-0.23,-0.24,-0.23
97.30,2.02,2.24,2.02,2.25,-2.25,-2.30,-2.33,-0.23,-0.23,-0.22
98.28,2.02,2.23,2.02,2.23,-2.24,-2.33,-2.38,-0.22,-0.22,-0.21
99.26,2.03,2.23,2.03,2.23,-2.23,-2.36,-2.44,-0.20,-0.21,-0.20
100.25,2.04,2.22,2.04,2.23,-2.23,-2.38,-2.49,-0.19,-0.19,-0.18
101.25,2.06,2.23,2.06,2.23,-2.24,-2.41,-2.55,-0.18,-0.18,-0.17
102.27,2.08,2.24,2.08,2.25,-2.25,-2.44,-2.61,-0.17,-0.17,-0.16
103.29,2.11,2.27,2.11,2.27,-2.27,-2.46,-2.67,-0.16,-0.16,-0.16
104.32,2.14,2.29,2.14,2.29,-2.29,-2.49,-2.72,-0.15,-0.15,-0.15
105.37,2.17,2.31,2.17,2.32,-2.31,-2.51,-2.78,-0.15,-0.15,-0.14
106.42,2.20,2.34,2.20,2.34,-2.34,-2.53,-2.83,-0.15,-0.15,-0.14
107.48,2.23,2.37,2.23,2.37,-2.37,-2.55,-2.89,-0.15,-0.15,-0.14
108.56,2.26,2.40,2.26,2.40,-2.40,-2.57,-2.94,-0.15,-0.14,-0.14
109.64,2.29,2.43,2.29,2.43,-2.43,-2.59,-2.99,-0.14,-0.14,-0.14
110.74,2.32,2.46,2.31,2.46,-2.46,-2.60,-3.04,-0.14,-0.14,-0.14
111.85,2.34,2.48,2.34,2.49,-2.48,-2.62,-3.08,-0.15,-0.15,-0.14
112.97,2.36,2.51,2.35,2.51,-2.50,-2.63,-3.12,-0.15,-0.15,-0.15
114.10,2.37,2.52,2.37,2.53,-2.52,-2.64,-3.16,-0.15,-0.15,-0.15
115.24,2.38,2.54,2.38,2.54,-2.53,-2.65,-3.19,-0.16,-0.16,-0.16
116.39,2.39,2.55,2.38,2.55,-2.54,-2.66,-3.22,-0.16,-0.16,-0.16
117.55,2.38,2.55,2.38,2.55,-2.55,-2.66,-3.24,-0.18,-0.17,-0.17
118.73,2.38,2.55,2.38,2.55,-2.56,-2.67,-3.26,-0.18,-0.18,-0.17
119.92,2.37,2.55,2.37,2.55,-2.56,-2.67,-3.28,-0.20,-0.19,-0.18
121.12,2.38,2.56,2.37,2.56,-2.57,-2.67,-3.28,-0.19,-0.19,-0.18
122.33,2.38,2.56,2.38,2.57,-2.57,-2.66,-3.29,-0.19,-0.19,-0.18
123.55,2.39,2.57,2.39,2.57,-2.57,-2.66,-3.28,-0.18,-0.18,-0.18
124.79,2.39,2.57,2.38,2.57,-2.56,-2.65,-3.27,-0.17,-0.18,-0.18
126.03,2.38,2.56,2.38,2.56,-2.55,-2.65,-3.25,-0.18,-0.18,-0.18
127.29,2.36,2.54,2.36,2.54,-2.54,-2.64,-3.23,-0.18,-0.18,-0.18
128.57,2.34,2.52,2.34,2.52,-2.52,-2.62,-3.20,-0.18,-0.18,-0.18
129.85,2.32,2.50,2.31,2.50,-2.50,-2.61,-3.17,-0.18,-0.18,-0.18
131.15,2.29,2.47,2.29,2.47,-2.47,-2.59,-3.12,-0.18,-0.18,-0.18
132.46,2.26,2.44,2.26,2.44,-2.44,-2.58,-3.08,-0.18,-0.18,-0.18
133.79,2.23,2.40,2.23,2.40,-2.41,-2.56,-3.02,-0.18,-0.18,-0.17
135.12,2.20,2.37,2.20,2.37,-2.38,-2.53,-2.96,-0.18,-0.18,-0.17
136.48,2.17,2.34,2.17,2.34,-2.35,-2.51,-2.90,-0.18,-0.18,-0.17
137.84,2.15,2.32,2.14,2.32,-2.32,-2.49,-2.83,-0.17,-0.18,-0.17
139.22,2.12,2.29,2.12,2.29,-2.29,-2.46,-2.76,-0.18,-0.17,-0.17
140.61,2.10,2.27,2.10,2.27,-2.27,-2.43,-2.69,-0.17,-0.17,-0.17
142.02,2.08,2.24,2.08,2.24,-2.24,-2.40,-2.61,-0.17,-0.17,-0.16
143.44,2.06,2.22,2.05,2.22,-2.22,-2.37,-2.52,-0.16,-0.17,-0.16
144.87,2.03,2.19,2.03,2.20,-2.20,-2.34,-2.44,-0.17,-0.17,-0.16
146.32,2.01,2.18,2.01,2.18,-2.18,-2.30,-2.35,-0.17,-0.17,-0.17
147.78,1.99,2.16,1.98,2.16,-2.16,-2.27,-2.26,-0.18,-0.18,-0.17
149.26,1.97,2.14,1.97,2.14,-2.15,-2.23,-2.17,-0.18,-0.18,-0.17
150.75,1.95,2.12,1.95,2.13,-2.13,-2.20,-2.08,-0.18,-0.18,-0.17
152.26,1.94,2.11,1.93,2.11,-2.11,-2.16,-1.98,-0.17,-0.17,-0.17
153.78,1.92,2.10,1.91,2.10,-2.09,-2.12,-1.89,-0.17,-0.17,-0.18
155.32,1.89,2.07,1.89,2.07,-2.06,-2.08,-1.79,-0.18,-0.17,-0.18
156.88,1.86,2.04,1.85,2.04,-2.04,-2.03,-1.70,-0.18,-0.18,-0.18
158.44,1.82,2.00,1.82,2.01,-2.01,-1.99,-1.60,-0.19,-0.19,-0.18
160.03,1.78,1.97,1.78,1.97,-1.98,-1.95,-1.50,-0.20,-0.19,-0.19
161.63,1.75,1.94,1.74,1.94,-1.94,-1.90,-1.41,-0.20,-0.20,-0.19
163.24,1.71,1.91,1.71,1.91,-1.91,-1.86,-1.31,-0.20,-0.20,-0.20
164.88,1.67,1.87,1.67,1.87,-1.87,-1.81,-1.21,-0.21,-0.21,-0.20
166.53,1.63,1.84,1.62,1.84,-1.84,-1.76,-1.12,-0.22,-0.22,-0.21
168.19,1.58,1.80,1.58,1.81,-1.81,-1.71,-1.02,-0.24,-0.23,-0.22
169.87,1.54,1.77,1.54,1.77,-1.78,-1.66,-0.92,-0.24,-0.24,-0.23
171.57,1.51,1.75,1.50,1.74,-1.75,-1.61,-0.83,-0.24,-0.25,-0.24
173.29,1.46,1.71,1.46,1.72,-1.71,-1.56,-0.73,-0.26,-0.25,-0.25
175.02,1.42,1.68,1.42,1.68,-1.68,-1.51,-0.64,-0.26,-0.26,-0.26
176.77,1.37,1.65,1.36,1.64,-1.63,-1.46,-0.54,-0.27,-0.27,-0.28
178.54,1.30,1.59,1.30,1.60,-1.59,-1.40,-0.45,-0.29,-0.29,-0.29
180.32,1.23,1.54,1.23,1.54,-1.54,-1.35,-0.35,-0.31,-0.31,-0.31
182.13,1.16,1.48,1.16,1.49,-1.49,-1.29,-0.26,-0.33,-0.33,-0.32
183.95,1.09,1.43,1.08,1.43,-1.43,-1.23,-0.17,-0.35,-0.35,-0.34
185.79,1.01,1.37,1.01,1.37,-1.37,-1.17,-0.07,-0.37,-0.37,-0.36
187.65,0.93,1.30,0.93,1.31,-1.31,-1.11,0.02,-0.39,-0.38,-0.37
189.52,0.86,1.25,0.86,1.25,-1.25,-1.05,0.11,-0.39,-0.39,-0.39
191.42,0.78,1.19,0.78,1.19,-1.19,-0.99,0.20,-0.41,-0.41,-0.41
193.33,0.70,1.13,0.69,1.12,-1.12,-0.92,0.29,-0.42,-0.43,-0.43
195.27,0.60,1.04,0.60,1.05,-1.05,-0.86,0.38,-0.45,-0.45,-0.44
197.22,0.51,0.97,0.51,0.98,-0.98,-0.79,0.47,-0.47,-0.47,-0.46
199.19,0.42,0.90,0.41,0.90,-0.90,-0.72,0.56,-0.49,-0.49,-0.48
201.18,0.32,0.83,0.31,0.83,-0.82,-0.65,0.65,-0.51,-0.51,-0.51
203.19,0.21,0.74,0.21,0.74,-0.74,-0.57,0.73,-0.53,-0.53,-0.53
205.23,0.10,0.65,0.10,0.65,-0.65,-0.49,0.82,-0.56,-0.55,-0.55
207.28,-0.01,0.56,-0.01,0.56,-0.56,-0.41,0.90,-0.58,-0.58,-0.57
209.35,-0.13,0.46,-0.13,0.47,-0.47,-0.33,0.99,-0.60,-0.60,-0.59
211.44,-0.25,0.37,-0.25,0.37,-0.37,-0.25,1.07,-0.62,-0.62,-0.62
213.56,-0.38,0.26,-0.39,0.26,-0.26,-0.16,1.14,-0.65,-0.65,-0.64
215.69,-0.52,0.15,-0.52,0.16,-0.15,-0.06,1.22,-0.68,-0.67,-0.67
217.85,-0.66,0.04,-0.66,0.04,-0.04,0.03,1.29,-0.70,-0.70,-0.70
220.03,-0.80,-0.08,-0.81,-0.08,0.08,0.13,1.36,-0.72,-0.72,-0.72
222.23,-0.96,-0.22,-0.96,-0.21,0.21,0.24,1.43,-0.75,-0.74,-0.74
224.45,-1.11,-0.34,-1.12,-0.35,0.35,0.35,1.49,-0.76,-0.77,-0.77
226.70,-1.28,-0.49,-1.29,-0.49,0.49,0.47,1.55,-0.79,-0.79,-0.79
228.96,-1.46,-0.65,-1.46,-0.64,0.65,0.59,1.61,-0.82,-0.81,-0.81
231.25,-1.64,-0.81,-1.64,-0.80,0.80,0.71,1.66,-0.84,-0.83,-0.83
233.57,-1.80,-0.96,-1.81,-0.96,0.96,0.84,1.71,-0.84,-0.85,-0.84
235.90,-1.98,-1.12,-1.99,-1.12,1.13,0.98,1.75,-0.86,-0.86,-0.86
238.26,-2.16,-1.29,-2.17,-1.29,1.29,1.12,1.79,-0.87,-0.87,-0.87
240.64,-2.35,-1.47,-2.35,-1.46,1.46,1.27,1.82,-0.89,-0.89,-0.88
243.05,-2.52,-1.63,-2.52,-1.63,1.63,1.42,1.85,-0.90,-0.90,-0.89
245.48,-2.69,-1.79,-2.70,-1.79,1.79,1.58,1.87,-0.90,-0.91,-0.90
247.93,-2.86,-1.95,-2.86,-1.95,1.95,1.74,1.89,-0.91,-0.91,-0.91
250.41,-3.03,-2.11,-3.03,-2.11,2.11,1.90,1.90,-0.93,-0.93,-0.92
252.92,-3.19,-2.26,-3.19,-2.26,2.26,2.06,1.90,-0.94,-0.94,-0.93
255.45,-3.34,-2.40,-3.34,-2.40,2.40,2.23,1.90,-0.95,-0.94,-0.94
258.00,-3.47,-2.52,-3.48,-2.52,2.53,2.39,1.89,-0.94,-0.95,-0.95
260.58,-3.60,-2.65,-3.61,-2.65,2.65,2.54,1.88,-0.95,-0.95,-0.95
263.19,-3.72,-2.76,-3.73,-2.76,2.76,2.69,1.86,-0.96,-0.97,-0.96
265.82,-3.84,-2.87,-3.84,-2.86,2.85,2.83,1.84,-0.99,-0.99,-0.97
268.48,-3.93,-2.95,-3.93,-2.94,2.93,2.96,1.81,-1.00,-1.00,-0.98
271.16,-3.99,-3.00,-4.00,-3.00,3.00,3.06,1.78,-1.00,-1.00,-0.99
273.87,-4.04,-3.04,-4.05,-3.04,3.04,3.15,1.74,-1.00,-1.00,-1.00
276.61,-4.08,-3.07,-4.08,-3.07,3.07,3.22,1.70,-1.01,-1.01,-1.01
279.38,-4.11,-3.09,-4.11,-3.09,3.09,3.26,1.66,-1.03,-1.03,-1.02
282.17,-4.12,-3.09,-4.12,-3.09,3.09,3.27,1.61,-1.04,-1.04,-1.03
284.99,-4.12,-3.08,-4.12,-3.07,3.07,3.26,1.56,-1.05,-1.05,-1.04
287.84,-4.09,-3.04,-4.09,-3.04,3.04,3.22,1.51,-1.05,-1.05,-1.05
290.72,-4.05,-2.99,-4.06,-2.99,3.00,3.16,1.45,-1.06,-1.06,-1.06
293.63,-4.01,-2.94,-4.01,-2.94,2.94,3.08,1.39,-1.07,-1.07,-1.07
296.57,-3.96,-2.88,-3.96,-2.88,2.87,2.97,1.33,-1.09,-1.09,-1.08
299.53,-3.89,-2.80,-3.89,-2.80,2.79,2.86,1.27,-1.10,-1.10,-1.09
302.53,-3.81,-2.71,-3.81,-2.71,2.70,2.73,1.21,-1.11,-1.11,-1.10
305.55,-3.72,-2.60,-3.73,-2.61,2.60,2.59,1.14,-1.12,-1.12,-1.12
308.61,-3.63,-2.50,-3.63,-2.50,2.50,2.44,1.08,-1.14,-1.13,-1.13
311.69,-3.53,-2.39,-3.53,-2.38,2.38,2.29,1.01,-1.15,-1.15,-1.14
314.81,-3.42,-2.26,-3.43,-2.27,2.27,2.14,0.95,-1.15,-1.16,-1.16
317.96,-3.32,-2.15,-3.32,-2.14,2.15,1.98,0.88,-1.17,-1.17,-1.17
321.14,-3.21,-2.02,-3.21,-2.02,2.03,1.83,0.81,-1.18,-1.18,-1.19
324.35,-3.10,-1.90,-3.11,-1.90,1.91,1.69,0.74,-1.20,-1.20,-1.20
327.59,-3.00,-1.78,-3.01,-1.78,1.78,1.54,0.68,-1.22,-1.22,-1.22
330.87,-2.91,-1.68,-2.90,-1.67,1.66,1.40,0.61,-1.25,-1.24,-1.23
334.18,-2.79,-1.54,-2.79,-1.54,1.54,1.27,0.54,-1.26,-1.26,-1.25
337.52,-2.67,-1.41,-2.68,-1.41,1.41,1.14,0.47,-1.26,-1.27,-1.26
340.90,-2.56,-1.28,-2.56,-1.28,1.28,1.02,0.40,-1.28,-1.28,-1.28
344.30,-2.45,-1.16,-2.45,-1.15,1.15,0.90,0.34,-1.30,-1.30,-1.29
347.75,-2.33,-1.02,-2.33,-1.02,1.02,0.79,0.27,-1.32,-1.32,-1.31
351.23,-2.21,-0.88,-2.22,-0.89,0.88,0.68,0.20,-1.33,-1.33,-1.33
354.74,-2.10,-0.76,-2.10,-0.75,0.75,0.58,0.13,-1.35,-1.35,-1.34
358.28,-1.98,-0.62,-1.98,-0.61,0.62,0.48,0.07,-1.37,-1.36,-1.36
361.87,-1.85,-0.47,-1.86,-0.48,0.48,0.39,0.00,-1.37,-1.38,-1.38
365.49,-1.74,-0.35,-1.74,-0.35,0.35,0.30,-0.07,-1.39,-1.39,-1.39
369.14,-1.63,-0.22,-1.63,-0.22,0.22,0.21,-0.13,-1.42,-1.41,-1.41
372.83,-1.52,-0.10,-1.52,-0.09,0.09,0.13,-0.20,-1.44,-1.44,-1.42
376.56,-1.41,0.03,-1.41,0.03,-0.04,0.05,-0.26,-1.45,-1.45,-1.44
380.33,-1.30,0.16,-1.30,0.16,-0.16,-0.02,-0.33,-1.47,-1.46,-1.46
384.13,-1.19,0.28,-1.19,0.28,-0.28,-0.10,-0.39,-1.47,-1.47,-1.47
387.97,-1.09,0.40,-1.09,0.40,-0.38,-0.17,-0.46,-1.48,-1.48,-1.49
391.85,-1.00,0.50,-1.01,0.50,-0.48,-0.24,-0.52,-1.49,-1.49,-1.50
395.77,-0.93,0.58,-0.93,0.59,-0.58,-0.30,-0.59,-1.51,-1.51,-1.51
399.73,-0.86,0.66,-0.86,0.66,-0.66,-0.37,-0.65,-1.53,-1.53,-1.52
403.72,-0.80,0.73,-0.80,0.73,-0.74,-0.43,-0.71,-1.54,-1.54,-1.53
407.76,-0.74,0.80,-0.74,0.81,-0.81,-0.50,-0.78,-1.56,-1.56,-1.54
411.84,-0.68,0.88,-0.68,0.88,-0.88,-0.56,-0.84,-1.57,-1.57,-1.56
415.96,-0.62,0.95,-0.62,0.95,-0.95,-0.62,-0.90,-1.58,-1.58,-1.57
420.12,-0.56,1.02,-0.57,1.02,-1.02,-0.68,-0.96,-1.58,-1.59,-1.58
424.32,-0.52,1.07,-0.52,1.08,-1.08,-0.74,-1.02,-1.60,-1.60,-1.59
428.56,-0.46,1.14,-0.47,1.14,-1.14,-0.81,-1.08,-1.60,-1.61,-1.60
432.85,-0.42,1.20,-0.42,1.20,-1.19,-0.87,-1.14,-1.62,-1.62,-1.62
437.18,-0.38,1.25,-0.38,1.25,-1.24,-0.93,-1.19,-1.63,-1.63,-1.63
441.55,-0.35,1.29,-0.35,1.30,-1.29,-0.99,-1.25,-1.64,-1.64,-1.64
445.96,-0.32,1.34,-0.33,1.34,-1.33,-1.05,-1.30,-1.65,-1.66,-1.66
450.42,-0.31,1.37,-0.31,1.37,-1.37,-1.12,-1.35,-1.69,-1.68,-1.68
