frequency,raw,error,smoothed,error_smoothed,equalization,parametric_eq,fixed_band_eq,equalized_raw,equalized_smoothed,target
20.00,6.19,1.28,6.19,1.28,-1.27,-1.73,-0.93,4.91,4.91,4.91
20.20,6.20,1.32,6.20,1.32,-1.31,-1.74,-0.96,4.88,4.89,4.88
20.40,6.22,1.36,6.22,1.35,-1.35,-1.74,-0.99,4.86,4.86,4.86
20.61,6.23,1.39,6.23,1.39,-1.39,-1.75,-1.02,4.84,4.84,4.84
20.81,6.25,1.43,6.24,1.42,-1.43,-1.76,-1.05,4.82,4.82,4.82
21.02,6.26,1.46,6.26,1.46,-1.46,-1.76,-1.08,4.80,4.80,4.80
21.23,6.27,1.49,6.27,1.49,-1.49,-1.77,-1.11,4.77,4.78,4.78
21.44,6.29,1.53,6.28,1.52,-1.52,-1.77,-1.14,4.76,4.76,4.76
21.66,6.30,1.56,6.30,1.56,-1.55,-1.78,-1.17,4.74,4.74,4.74
21.87,6.31,1.58,6.31,1.59,-1.58,-1.79,-1.21,4.72,4.73,4.73
22.09,6.32,1.61,6.32,1.61,-1.61,-1.79,-1.24,4.71,4.71,4.71
22.31,6.34,1.64,6.33,1.64,-1.64,-1.80,-1.28,4.70,4.70,4.70
22.54,6.35,1.66,6.35,1.66,-1.66,-1.81,-1.31,4.69,4.69,4.69
22.76,6.36,1.68,6.36,1.68,-1.68,-1.81,-1.35,4.67,4.67,4.68
22.99,6.37,1.70,6.37,1.70,-1.71,-1.82,-1.39,4.66,4.66,4.66
23.22,6.38,1.72,6.38,1.73,-1.73,-1.83,-1.43,4.65,4.65,4.65
23.45,6.40,1.75,6.39,1.75,-1.75,-1.84,-1.47,4.65,4.64,4.64
23.69,6.41,1.77,6.41,1.78,-1.77,-1.84,-1.51,4.64,4.64,4.63
23.92,6.43,1.80,6.43,1.80,-1.79,-1.85,-1.55,4.64,4.63,4.63
24.16,6.44,1.82,6.44,1.81,-1.81,-1.86,-1.59,4.63,4.63,4.62
24.40,6.45,1.83,6.45,1.83,-1.83,-1.87,-1.64,4.62,4.62,4.62
24.65,6.46,1.85,6.46,1.85,-1.85,-1.88,-1.68,4.61,4.61,4.61
24.89,6.47,1.86,6.47,1.86,-1.87,-1.89,-1.72,4.60,4.60,4.61
25.14,6.48,1.88,6.48,1.88,-1.88,-1.90,-1.77,4.59,4.59,4.60
25.39,6.49,1.90,6.49,1.90,-1.90,-1.91,-1.81,4.59,4.59,4.59
25.65,6.50,1.91,6.50,1.92,-1.92,-1.92,-1.86,4.58,4.58,4.59
25.91,6.52,1.94,6.51,1.94,-1.93,-1.93,-1.90,4.58,4.58,4.57
26.16,6.53,1.95,6.53,1.95,-1.95,-1.94,-1.95,4.58,4.57,4.57
26.43,6.54,1.97,6.54,1.97,-1.97,-1.95,-1.99,4.57,4.57,4.57
26.69,6.55,1.99,6.55,1.98,-1.99,-1.96,-2.04,4.56,4.56,4.56
26.96,6.56,2.00,6.56,2.00,-2.00,-1.97,-2.08,4.56,4.56,4.56
27.23,6.57,2.02,6.57,2.02,-2.02,-1.99,-2.12,4.55,4.55,4.55
27.50,6.58,2.03,6.58,2.03,-2.03,-2.00,-2.17,4.55,4.55,4.55
27.77,6.59,2.04,6.59,2.05,-2.05,-2.01,-2.21,4.54,4.54,4.55
28.05,6.60,2.06,6.60,2.06,-2.06,-2.02,-2.25,4.54,4.54,4.53
28.33,6.61,2.08,6.61,2.08,-2.08,-2.04,-2.28,4.53,4.53,4.53
28.62,6.62,2.09,6.62,2.09,-2.09,-2.05,-2.32,4.53,4.53,4.53
28.90,6.63,2.11,6.63,2.10,-2.10,-2.07,-2.35,4.53,4.53,4.52
29.19,6.64,2.12,6.63,2.12,-2.11,-2.08,-2.39,4.52,4.52,4.52
29.48,6.64,2.12,6.64,2.13,-2.13,-2.09,-2.42,4.51,4.51,4.52
29.78,6.65,2.13,6.65,2.14,-2.14,-2.11,-2.45,4.51,4.51,4.51
30.08,6.66,2.15,6.66,2.15,-2.15,-2.12,-2.47,4.51,4.51,4.51
30.38,6.67,2.17,6.66,2.16,-2.16,-2.14,-2.49,4.51,4.50,4.50
30.68,6.67,2.17,6.67,2.17,-2.17,-2.15,-2.51,4.50,4.50,4.50
30.99,6.68,2.18,6.68,2.18,-2.18,-2.17,-2.53,4.50,4.50,4.50
31.30,6.69,2.19,6.68,2.19,-2.19,-2.18,-2.54,4.49,4.49,4.49
31.61,6.69,2.21,6.69,2.20,-2.21,-2.20,-2.55,4.48,4.48,4.48
31.93,6.70,2.22,6.70,2.22,-2.22,-2.21,-2.56,4.48,4.48,4.48
32.24,6.71,2.23,6.71,2.23,-2.23,-2.22,-2.57,4.47,4.47,4.48
32.57,6.72,2.25,6.72,2.25,-2.25,-2.24,-2.57,4.47,4.47,4.46
32.89,6.73,2.27,6.72,2.26,-2.26,-2.25,-2.57,4.47,4.46,4.46
33.22,6.73,2.27,6.73,2.28,-2.27,-2.26,-2.57,4.45,4.46,4.46
33.55,6.74,2.29,6.74,2.29,-2.29,-2.27,-2.57,4.45,4.45,4.45
33.89,6.75,2.30,6.74,2.30,-2.30,-2.28,-2.56,4.45,4.44,4.44
34.23,6.75,2.31,6.75,2.32,-2.32,-2.29,-2.55,4.43,4.44,4.44
34.57,6.76,2.33,6.76,2.33,-2.33,-2.30,-2.54,4.43,4.43,4.43
34.92,6.77,2.34,6.76,2.34,-2.34,-2.31,-2.53,4.43,4.42,4.42
35.27,6.77,2.35,6.77,2.35,-2.35,-2.32,-2.52,4.42,4.42,4.42
35.62,6.78,2.37,6.78,2.36,-2.36,-2.33,-2.50,4.42,4.41,4.41
35.97,6.78,2.37,6.78,2.37,-2.37,-2.33,-2.49,4.41,4.41,4.40
36.33,6.78,2.38,6.78,2.38,-2.38,-2.34,-2.48,4.40,4.40,4.40
36.70,6.78,2.38,6.78,2.38,-2.38,-2.35,-2.46,4.39,4.39,4.40
37.06,6.78,2.39,6.78,2.39,-2.39,-2.35,-2.45,4.39,4.39,4.39
37.43,6.78,2.40,6.78,2.39,-2.39,-2.36,-2.43,4.39,4.38,4.38
37.81,6.77,2.39,6.77,2.40,-2.39,-2.37,-2.42,4.37,4.38,4.37
38.19,6.77,2.40,6.76,2.40,-2.40,-2.37,-2.40,4.37,4.37,4.37
38.57,6.76,2.40,6.76,2.40,-2.40,-2.38,-2.39,4.35,4.35,4.35
38.95,6.75,2.40,6.75,2.40,-2.41,-2.39,-2.38,4.34,4.34,4.35
39.34,6.75,2.41,6.75,2.41,-2.41,-2.39,-2.36,4.33,4.33,4.33
39.74,6.75,2.42,6.75,2.42,-2.42,-2.40,-2.35,4.33,4.33,4.33
40.14,6.75,2.43,6.75,2.43,-2.43,-2.41,-2.34,4.32,4.32,4.31
40.54,6.75,2.44,6.75,2.44,-2.44,-2.42,-2.34,4.31,4.31,4.31
40.94,6.75,2.45,6.75,2.45,-2.44,-2.42,-2.33,4.30,4.30,4.30
41.35,6.75,2.45,6.75,2.45,-2.45,-2.43,-2.32,4.30,4.30,4.30
41.76,6.75,2.46,6.75,2.46,-2.46,-2.44,-2.32,4.29,4.29,4.29
42.18,6.75,2.46,6.75,2.46,-2.46,-2.45,-2.32,4.29,4.29,4.28
42.60,6.75,2.47,6.75,2.47,-2.47,-2.46,-2.31,4.28,4.28,4.28
43.03,6.75,2.47,6.75,2.47,-2.47,-2.47,-2.31,4.28,4.28,4.28
43.46,6.75,2.48,6.75,2.48,-2.48,-2.48,-2.32,4.27,4.27,4.27
43.90,6.75,2.48,6.75,2.48,-2.48,-2.49,-2.32,4.26,4.26,4.27
44.33,6.75,2.49,6.75,2.49,-2.49,-2.50,-2.33,4.26,4.26,4.26
44.78,6.75,2.50,6.75,2.50,-2.50,-2.52,-2.33,4.25,4.25,4.25
45.23,6.75,2.51,6.75,2.51,-2.51,-2.53,-2.34,4.24,4.24,4.24
45.68,6.75,2.52,6.75,2.52,-2.52,-2.54,-2.35,4.23,4.23,4.23
46.13,6.75,2.52,6.75,2.52,-2.53,-2.55,-2.37,4.22,4.22,4.22
46.60,6.75,2.53,6.75,2.53,-2.54,-2.57,-2.38,4.21,4.21,4.21
47.06,6.75,2.54,6.75,2.55,-2.55,-2.58,-2.40,4.20,4.20,4.20
47.53,6.75,2.56,6.75,2.56,-2.56,-2.60,-2.41,4.19,4.19,4.18
48.01,6.75,2.57,6.75,2.57,-2.57,-2.61,-2.43,4.18,4.18,4.17
48.49,6.75,2.58,6.75,2.58,-2.58,-2.63,-2.45,4.16,4.16,4.16
48.97,6.75,2.60,6.75,2.60,-2.60,-2.64,-2.48,4.15,4.15,4.15
49.46,6.75,2.61,6.75,2.61,-2.61,-2.66,-2.50,4.14,4.14,4.14
49.96,6.75,2.62,6.75,2.62,-2.62,-2.67,-2.52,4.13,4.13,4.13
50.46,6.75,2.63,6.75,2.63,-2.63,-2.69,-2.55,4.12,4.12,4.12
50.96,6.75,2.64,6.75,2.64,-2.64,-2.71,-2.58,4.11,4.11,4.10
51.47,6.75,2.65,6.75,2.65,-2.65,-2.73,-2.61,4.10,4.10,4.10
51.99,6.75,2.66,6.75,2.66,-2.66,-2.74,-2.64,4.09,4.09,4.09
52.51,6.75,2.67,6.75,2.67,-2.67,-2.76,-2.66,4.07,4.07,4.07
53.03,6.75,2.69,6.75,2.69,-2.69,-2.78,-2.70,4.06,4.06,4.06
53.56,6.75,2.70,6.75,2.70,-2.70,-2.80,-2.73,4.05,4.05,4.04
54.10,6.75,2.71,6.75,2.71,-2.71,-2.82,-2.76,4.04,4.04,4.04
54.64,6.75,2.72,6.75,2.73,-2.73,-2.84,-2.79,4.02,4.02,4.02
55.18,6.75,2.74,6.75,2.74,-2.74,-2.86,-2.82,4.01,4.01,4.01
55.74,6.75,2.76,6.75,2.75,-2.75,-2.88,-2.85,3.99,3.99,3.99
56.29,6.75,2.77,6.75,2.77,-2.77,-2.90,-2.88,3.98,3.98,3.98
56.86,6.75,2.78,6.75,2.78,-2.78,-2.92,-2.91,3.96,3.96,3.96
57.42,6.75,2.80,6.75,2.80,-2.80,-2.94,-2.94,3.95,3.95,3.95
58.00,6.75,2.81,6.75,2.82,-2.81,-2.96,-2.97,3.93,3.93,3.94
58.58,6.75,2.83,6.75,2.83,-2.83,-2.98,-3.00,3.92,3.92,3.92
59.16,6.75,2.85,6.75,2.85,-2.85,-3.00,-3.02,3.90,3.90,3.90
59.76,6.75,2.86,6.75,2.87,-2.87,-3.03,-3.05,3.88,3.88,3.88
60.35,6.75,2.88,6.75,2.89,-2.89,-3.05,-3.07,3.86,3.86,3.86
60.96,6.75,2.91,6.75,2.91,-2.91,-3.07,-3.09,3.84,3.84,3.84
61.57,6.75,2.93,6.75,2.93,-2.93,-3.09,-3.12,3.82,3.82,3.82
62.18,6.75,2.95,6.75,2.95,-2.95,-3.12,-3.13,3.79,3.79,3.79
62.80,6.75,2.98,6.75,2.98,-2.98,-3.14,-3.15,3.77,3.77,3.77
63.43,6.75,3.00,6.75,3.00,-3.00,-3.17,-3.17,3.74,3.74,3.74
64.07,6.75,3.03,6.75,3.03,-3.03,-3.19,-3.18,3.72,3.72,3.72
64.71,6.75,3.06,6.75,3.06,-3.06,-3.22,-3.20,3.69,3.69,3.69
65.35,6.75,3.08,6.75,3.08,-3.08,-3.24,-3.21,3.66,3.66,3.66
66.01,6.75,3.11,6.75,3.11,-3.11,-3.27,-3.22,3.64,3.64,3.64
66.67,6.75,3.14,6.75,3.14,-3.14,-3.29,-3.23,3.61,3.61,3.61
67.33,6.75,3.17,6.75,3.17,-3.17,-3.32,-3.24,3.58,3.58,3.58
68.01,6.75,3.20,6.75,3.20,-3.20,-3.34,-3.24,3.55,3.55,3.55
68.69,6.75,3.23,6.75,3.23,-3.23,-3.37,-3.25,3.52,3.52,3.52
69.37,6.75,3.26,6.75,3.27,-3.26,-3.40,-3.26,3.49,3.49,3.48
70.07,6.75,3.30,6.75,3.30,-3.29,-3.42,-3.26,3.45,3.45,3.45
70.77,6.75,3.33,6.75,3.33,-3.33,-3.45,-3.27,3.42,3.42,3.42
71.48,6.75,3.36,6.75,3.36,-3.36,-3.48,-3.28,3.39,3.39,3.39
72.19,6.75,3.39,6.75,3.39,-3.40,-3.50,-3.28,3.35,3.35,3.36
72.91,6.75,3.43,6.75,3.43,-3.43,-3.53,-3.29,3.32,3.32,3.32
73.64,6.76,3.47,6.75,3.47,-3.47,-3.56,-3.30,3.29,3.28,3.28
74.38,6.76,3.50,6.76,3.51,-3.51,-3.59,-3.31,3.25,3.25,3.26
75.12,6.77,3.55,6.77,3.55,-3.55,-3.62,-3.32,3.22,3.22,3.22
75.87,6.78,3.59,6.77,3.59,-3.58,-3.65,-3.33,3.19,3.19,3.19
76.63,6.77,3.62,6.77,3.62,-3.62,-3.68,-3.34,3.15,3.15,3.15
77.40,6.77,3.66,6.77,3.65,-3.65,-3.70,-3.36,3.12,3.12,3.11
78.17,6.76,3.68,6.76,3.68,-3.68,-3.73,-3.37,3.08,3.08,3.08
78.95,6.74,3.70,6.74,3.71,-3.71,-3.76,-3.39,3.03,3.04,3.03
79.74,6.73,3.74,6.72,3.73,-3.73,-3.80,-3.41,3.00,2.99,2.99
80.54,6.70,3.74,6.70,3.75,-3.75,-3.83,-3.44,2.95,2.95,2.96
81.35,6.68,3.77,6.68,3.77,-3.77,-3.86,-3.46,2.91,2.91,2.91
82.16,6.66,3.79,6.65,3.79,-3.79,-3.89,-3.49,2.87,2.87,2.87
82.98,6.63,3.81,6.63,3.81,-3.81,-3.92,-3.52,2.82,2.82,2.82
83.81,6.60,3.83,6.60,3.82,-3.82,-3.95,-3.55,2.77,2.78,2.77
84.65,6.57,3.83,6.57,3.84,-3.84,-3.98,-3.59,2.73,2.73,2.73
85.50,6.55,3.86,6.54,3.86,-3.86,-4.01,-3.63,2.69,2.68,2.69
86.35,6.52,3.88,6.52,3.88,-3.88,-4.05,-3.67,2.64,2.64,2.64
87.22,6.49,3.90,6.49,3.90,-3.90,-4.08,-3.71,2.59,2.59,2.59
88.09,6.47,3.93,6.46,3.93,-3.93,-4.11,-3.76,2.54,2.54,2.54
88.97,6.44,3.95,6.44,3.95,-3.96,-4.15,-3.81,2.48,2.48,2.49
89.86,6.42,3.98,6.42,3.99,-3.99,-4.18,-3.86,2.42,2.43,2.43
90.76,6.41,4.03,6.41,4.02,-4.03,-4.21,-3.91,2.37,2.37,2.38
91.66,6.40,4.07,6.40,4.07,-4.08,-4.25,-3.97,2.32,2.32,2.33
92.58,6.41,4.13,6.41,4.13,-4.13,-4.28,-4.03,2.27,2.27,2.28
93.51,6.42,4.20,6.41,4.19,-4.19,-4.32,-4.09,2.23,2.22,2.22
94.44,6.42,4.25,6.42,4.25,-4.25,-4.35,-4.16,2.17,2.17,2.17
95.39,6.43,4.31,6.43,4.31,-4.31,-4.39,-4.23,2.12,2.12,2.11
96.34,6.44,4.38,6.43,4.37,-4.37,-4.42,-4.30,2.07,2.06,2.06
97.30,6.44,4.42,6.44,4.43,-4.43,-4.46,-4.37,2.01,2.01,2.01
98.28,6.45,4.49,6.45,4.49,-4.48,-4.50,-4.45,1.96,1.96,1.96
99.26,6.45,4.54,6.44,4.54,-4.53,-4.53,-4.52,1.91,1.91,1.90
100.25,6.43,4.58,6.43,4.58,-4.58,-4.57,-4.60,1.85,1.85,1.85
101.25,6.41,4.62,6.41,4.62,-4.62,-4.61,-4.68,1.78,1.79,1.79
102.27,6.40,4.66,6.40,4.66,-4.66,-4.64,-4.77,1.74,1.73,1.73
103.29,6.38,4.70,6.38,4.70,-4.69,-4.68,-4.85,1.68,1.68,1.68
104.32,6.36,4.73,6.36,4.73,-4.72,-4.72,-4.93,1.64,1.63,1.63
105.37,6.33,4.75,6.33,4.75,-4.75,-4.76,-5.02,1.58,1.58,1.58
106.42,6.30,4.78,6.29,4.77,-4.77,-4.79,-5.10,1.53,1.53,1.52
107.48,6.26,4.78,6.26,4.79,-4.79,-4.83,-5.18,1.47,1.47,1.47
108.56,6.22,4.80,6.22,4.81,-4.81,-4.87,-5.27,1.41,1.42,1.42
109.64,6.19,4.83,6.19,4.82,-4.83,-4.91,-5.35,1.36,1.36,1.36
110.74,6.16,4.85,6.15,4.85,-4.85,-4.95,-5.43,1.31,1.30,1.31
111.85,6.12,4.87,6.12,4.87,-4.87,-4.99,-5.51,1.24,1.25,1.25
112.97,6.10,4.89,6.10,4.90,-4.91,-5.03,-5.58,1.19,1.19,1.20
114.10,6.09,4.94,6.08,4.94,-4.95,-5.07,-5.65,1.14,1.14,1.15
115.24,6.08,4.98,6.08,4.98,-4.99,-5.11,-5.72,1.09,1.09,1.09
116.39,6.08,5.04,6.08,5.04,-5.04,-5.15,-5.79,1.04,1.04,1.04
117.55,6.09,5.09,6.09,5.09,-5.09,-5.19,-5.84,1.00,0.99,1.00
118.73,6.10,5.16,6.09,5.15,-5.15,-5.23,-5.90,0.95,0.95,0.94
119.92,6.10,5.21,6.10,5.21,-5.20,-5.27,-5.95,0.90,0.90,0.89
121.12,6.10,5.26,6.10,5.26,-5.25,-5.31,-5.99,0.84,0.84,0.84
122.33,6.10,5.30,6.10,5.31,-5.31,-5.35,-6.03,0.79,0.79,0.79
123.55,6.10,5.36,6.10,5.35,-5.35,-5.39,-6.06,0.74,0.74,0.74
124.79,6.10,5.40,6.10,5.40,-5.40,-5.44,-6.08,0.70,0.70,0.70
126.03,6.10,5.45,6.10,5.44,-5.44,-5.48,-6.11,0.66,0.65,0.65
127.29,6.10,5.49,6.09,5.49,-5.49,-5.52,-6.12,0.61,0.61,0.61
128.57,6.09,5.53,6.09,5.53,-5.53,-5.56,-6.13,0.56,0.56,0.56
129.85,6.09,5.58,6.09,5.57,-5.57,-5.60,-6.12,0.51,0.51,0.51
131.15,6.09,5.62,6.09,5.62,-5.62,-5.64,-6.12,0.46,0.46,0.46
132.46,6.09,5.66,6.09,5.67,-5.68,-5.68,-6.11,0.41,0.42,0.43
133.79,6.11,5.73,6.10,5.73,-5.73,-5.72,-6.10,0.38,0.37,0.38
135.12,6.13,5.79,6.12,5.79,-5.79,-5.76,-6.08,0.33,0.33,0.33
136.48,6.14,5.85,6.15,5.86,-5.86,-5.80,-6.05,0.28,0.29,0.29
137.84,6.18,5.93,6.17,5.93,-5.93,-5.84,-6.03,0.25,0.24,0.24
139.22,6.20,6.00,6.20,6.00,-6.00,-5.88,-6.00,0.20,0.20,0.20
140.61,6.23,6.07,6.23,6.07,-6.07,-5.92,-5.96,0.16,0.16,0.16
142.02,6.28,6.15,6.27,6.15,-6.14,-5.96,-5.93,0.13,0.12,0.13
143.44,6.30,6.21,6.30,6.22,-6.22,-6.00,-5.89,0.08,0.09,0.08
144.87,6.34,6.29,6.33,6.29,-6.28,-6.04,-5.86,0.05,0.05,0.04
146.32,6.36,6.34,6.36,6.35,-6.35,-6.07,-5.82,0.01,0.01,0.01
147.78,6.39,6.41,6.39,6.41,-6.41,-6.11,-5.79,-0.03,-0.03,-0.02
149.26,6.41,6.47,6.41,6.47,-6.47,-6.15,-5.75,-0.06,-0.06,-0.06
150.75,6.44,6.53,6.43,6.53,-6.52,-6.18,-5.71,-0.09,-0.09,-0.09
152.26,6.45,6.57,6.45,6.57,-6.57,-6.22,-5.68,-0.12,-0.12,-0.13
153.78,6.46,6.62,6.46,6.61,-6.61,-6.25,-5.65,-0.15,-0.15,-0.16
155.32,6.46,6.64,6.46,6.65,-6.65,-6.29,-5.62,-0.19,-0.19,-0.19
156.88,6.46,6.68,6.46,6.68,-6.68,-6.32,-5.59,-0.22,-0.22,-0.22
158.44,6.45,6.70,6.44,6.70,-6.70,-6.35,-5.57,-0.25,-0.25,-0.25
160.03,6.43,6.71,6.43,6.72,-6.71,-6.38,-5.55,-0.29,-0.28,-0.28
161.63,6.41,6.72,6.41,6.72,-6.72,-6.41,-5.53,-0.32,-0.31,-0.32
163.24,6.40,6.73,6.39,6.73,-6.73,-6.44,-5.51,-0.33,-0.34,-0.34
164.88,6.36,6.72,6.37,6.73,-6.73,-6.47,-5.50,-0.37,-0.36,-0.37
166.53,6.34,6.73,6.34,6.73,-6.73,-6.49,-5.49,-0.39,-0.39,-0.40
168.19,6.31,6.73,6.30,6.72,-6.72,-6.52,-5.49,-0.41,-0.42,-0.42
169.87,6.26,6.70,6.27,6.71,-6.71,-6.54,-5.49,-0.45,-0.44,-0.44
171.57,6.23,6.70,6.23,6.70,-6.70,-6.57,-5.50,-0.47,-0.47,-0.47
173.29,6.20,6.69,6.19,6.68,-6.69,-6.59,-5.50,-0.49,-0.50,-0.49
175.02,6.16,6.68,6.16,6.68,-6.68,-6.61,-5.52,-0.53,-0.52,-0.52
176.77,6.13,6.66,6.13,6.67,-6.68,-6.63,-5.53,-0.55,-0.55,-0.54
178.54,6.12,6.68,6.11,6.67,-6.69,-6.64,-5.55,-0.57,-0.57,-0.56
180.32,6.11,6.69,6.10,6.69,-6.70,-6.66,-5.58,-0.59,-0.59,-0.58
182.13,6.10,6.70,6.10,6.71,-6.71,-6.67,-5.61,-0.61,-0.61,-0.61
183.95,6.10,6.72,6.10,6.73,-6.73,-6.69,-5.64,-0.63,-0.63,-0.63
185.79,6.11,6.76,6.10,6.75,-6.75,-6.70,-5.68,-0.64,-0.64,-0.65
187.65,6.10,6.77,6.10,6.77,-6.76,-6.71,-5.72,-0.66,-0.66,-0.67
189.52,6.09,6.78,6.09,6.78,-6.77,-6.72,-5.76,-0.68,-0.68,-0.69
191.42,6.08,6.79,6.08,6.78,-6.78,-6.72,-5.81,-0.70,-0.70,-0.71
193.33,6.06,6.79,6.06,6.78,-6.78,-6.73,-5.87,-0.72,-0.72,-0.73
195.27,6.03,6.77,6.03,6.78,-6.77,-6.73,-5.92,-0.74,-0.74,-0.75
197.22,6.00,6.76,6.00,6.76,-6.76,-6.73,-5.98,-0.76,-0.76,-0.76
199.19,5.96,6.74,5.96,6.74,-6.74,-6.73,-6.04,-0.78,-0.78,-0.78
201.18,5.93,6.71,5.93,6.72,-6.73,-6.73,-6.11,-0.80,-0.80,-0.79
203.19,5.90,6.70,5.90,6.70,-6.71,-6.72,-6.17,-0.81,-0.81,-0.80
205.23,5.88,6.69,5.87,6.69,-6.69,-6.72,-6.24,-0.81,-0.82,-0.81
207.28,5.85,6.67,5.85,6.68,-6.67,-6.71,-6.31,-0.83,-0.82,-0.82
209.35,5.83,6.67,5.83,6.66,-6.66,-6.70,-6.39,-0.83,-0.83,-0.84
211.44,5.81,6.65,5.80,6.65,-6.65,-6.69,-6.46,-0.84,-0.84,-0.84
213.56,5.78,6.63,5.77,6.63,-6.63,-6.67,-6.53,-0.85,-0.86,-0.86
215.69,5.74,6.61,5.75,6.61,-6.62,-6.66,-6.60,-0.88,-0.87,-0.87
217.85,5.72,6.60,5.72,6.60,-6.60,-6.64,-6.68,-0.88,-0.88,-0.88
220.03,5.71,6.59,5.70,6.59,-6.59,-6.62,-6.75,-0.88,-0.88,-0.88
222.23,5.68,6.57,5.68,6.58,-6.57,-6.60,-6.81,-0.89,-0.89,-0.90
224.45,5.65,6.56,5.65,6.55,-6.55,-6.58,-6.88,-0.90,-0.90,-0.91
226.70,5.61,6.53,5.61,6.53,-6.53,-6.56,-6.94,-0.92,-0.92,-0.92
228.96,5.58,6.50,5.58,6.50,-6.51,-6.54,-7.00,-0.93,-0.93,-0.92
231.25,5.56,6.49,5.55,6.48,-6.49,-6.51,-7.05,-0.93,-0.94,-0.93
233.57,5.53,6.47,5.53,6.47,-6.47,-6.49,-7.10,-0.94,-0.94,-0.94
235.90,5.51,6.45,5.51,6.45,-6.45,-6.47,-7.14,-0.94,-0.94,-0.94
238.26,5.49,6.44,5.48,6.43,-6.42,-6.44,-7.17,-0.94,-0.94,-0.95
240.64,5.46,6.41,5.46,6.41,-6.40,-6.42,-7.20,-0.94,-0.94,-0.95
243.05,5.43,6.38,5.43,6.38,-6.38,-6.40,-7.22,-0.95,-0.95,-0.95
245.48,5.41,6.35,5.40,6.35,-6.35,-6.37,-7.23,-0.94,-0.95,-0.95
247.93,5.37,6.32,5.37,6.32,-6.33,-6.35,-7.23,-0.96,-0.95,-0.95
250.41,5.35,6.30,5.35,6.30,-6.30,-6.33,-7.22,-0.95,-0.95,-0.95
252.92,5.32,6.27,5.32,6.27,-6.27,-6.31,-7.21,-0.95,-0.95,-0.95
255.45,5.30,6.24,5.29,6.24,-6.25,-6.29,-7.19,-0.95,-0.95,-0.95
258.00,5.27,6.22,5.27,6.22,-6.22,-6.26,-7.16,-0.95,-0.95,-0.95
260.58,5.24,6.19,5.24,6.19,-6.20,-6.24,-7.12,-0.96,-0.96,-0.95
263.19,5.22,6.17,5.21,6.17,-6.17,-6.22,-7.07,-0.95,-0.96,-0.96
265.82,5.19,6.15,5.19,6.15,-6.15,-6.19,-7.02,-0.96,-0.96,-0.96
268.48,5.17,6.13,5.17,6.13,-6.13,-6.17,-6.96,-0.96,-0.96,-0.96
271.16,5.15,6.11,5.14,6.10,-6.10,-6.15,-6.89,-0.96,-0.96,-0.97
273.87,5.11,6.08,5.11,6.08,-6.08,-6.12,-6.82,-0.97,-0.97,-0.97
276.61,5.08,6.04,5.08,6.05,-6.06,-6.09,-6.74,-0.98,-0.97,-0.97
279.38,5.06,6.03,5.06,6.03,-6.03,-6.07,-6.66,-0.97,-0.97,-0.97
282.17,5.05,6.01,5.04,6.01,-6.01,-6.04,-6.57,-0.96,-0.97,-0.97
284.99,5.02,5.99,5.02,5.99,-5.98,-6.01,-6.49,-0.96,-0.96,-0.97
287.84,4.98,5.95,4.98,5.96,-5.95,-5.98,-6.40,-0.97,-0.97,-0.98
290.72,4.95,5.93,4.94,5.93,-5.92,-5.95,-6.30,-0.98,-0.98,-0.98
293.63,4.91,5.89,4.91,5.89,-5.90,-5.92,-6.21,-0.99,-0.99,-0.99
296.57,4.88,5.87,4.88,5.87,-5.88,-5.89,-6.12,-1.00,-1.00,-0.99
299.53,4.86,5.84,4.86,5.84,-5.85,-5.85,-6.03,-0.99,-1.00,-0.98
302.53,4.84,5.83,4.84,5.83,-5.83,-5.82,-5.94,-0.99,-0.99,-0.99
305.55,4.83,5.82,4.82,5.81,-5.81,-5.79,-5.84,-0.98,-0.99,-0.99
308.61,4.81,5.79,4.81,5.80,-5.79,-5.75,-5.75,-0.99,-0.99,-0.99
311.69,4.79,5.78,4.79,5.78,-5.78,-5.72,-5.67,-0.99,-0.98,-0.99
314.81,4.78,5.76,4.77,5.76,-5.76,-5.68,-5.58,-0.98,-0.98,-0.98
317.96,4.76,5.74,4.76,5.74,-5.74,-5.64,-5.50,-0.98,-0.98,-0.99
321.14,4.74,5.72,4.74,5.72,-5.72,-5.61,-5.42,-0.98,-0.98,-0.98
324.35,4.72,5.70,4.71,5.70,-5.69,-5.57,-5.34,-0.98,-0.98,-0.98
327.59,4.68,5.66,4.69,5.67,-5.67,-5.53,-5.27,-0.99,-0.98,-0.98
330.87,4.67,5.65,4.66,5.64,-5.64,-5.49,-5.19,-0.97,-0.98,-0.98
334.18,4.64,5.61,4.63,5.61,-5.60,-5.46,-5.13,-0.97,-0.97,-0.97
337.52,4.60,5.57,4.60,5.57,-5.57,-5.42,-5.06,-0.97,-0.96,-0.97
340.90,4.57,5.53,4.56,5.53,-5.53,-5.38,-5.00,-0.96,-0.96,-0.97
344.30,4.52,5.49,4.52,5.49,-5.49,-5.34,-4.94,-0.97,-0.97,-0.97
347.75,4.48,5.45,4.48,5.44,-5.45,-5.30,-4.89,-0.97,-0.97,-0.97
351.23,4.43,5.40,4.43,5.40,-5.41,-5.26,-4.84,-0.99,-0.98,-0.97
354.74,4.40,5.36,4.40,5.37,-5.38,-5.22,-4.79,-0.98,-0.98,-0.96
358.28,4.37,5.33,4.37,5.34,-5.35,-5.18,-4.75,-0.98,-0.98,-0.97
361.87,4.35,5.32,4.35,5.31,-5.31,-5.14,-4.71,-0.96,-0.97,-0.97
365.49,4.32,5.29,4.32,5.29,-5.28,-5.10,-4.67,-0.96,-0.96,-0.97
369.14,4.29,5.26,4.29,5.26,-5.24,-5.06,-4.64,-0.95,-0.95,-0.97
372.83,4.25,5.22,4.25,5.22,-5.20,-5.02,-4.61,-0.96,-0.96,-0.97
376.56,4.20,5.16,4.20,5.17,-5.16,-4.98,-4.59,-0.97,-0.97,-0.97
380.33,4.15,5.12,4.15,5.12,-5.12,-4.94,-4.57,-0.98,-0.98,-0.97
384.13,4.10,5.07,4.10,5.07,-5.08,-4.90,-4.55,-0.98,-0.98,-0.97
387.97,4.06,5.03,4.06,5.03,-5.04,-4.85,-4.53,-0.98,-0.98,-0.97
391.85,4.03,4.99,4.03,4.99,-5.00,-4.81,-4.52,-0.97,-0.97,-0.96
395.77,4.00,4.96,4.00,4.96,-4.96,-4.77,-4.51,-0.96,-0.96,-0.96
399.73,3.98,4.93,3.97,4.93,-4.92,-4.73,-4.50,-0.94,-0.95,-0.96
403.72,3.94,4.89,3.94,4.89,-4.88,-4.69,-4.49,-0.94,-0.94,-0.96
407.76,3.90,4.85,3.90,4.85,-4.84,-4.65,-4.49,-0.94,-0.94,-0.95
411.84,3.86,4.81,3.85,4.80,-4.80,-4.61,-4.49,-0.94,-0.95,-0.95
415.96,3.81,4.75,3.81,4.76,-4.76,-4.57,-4.49,-0.95,-0.95,-0.94
420.12,3.77,4.71,3.77,4.71,-4.72,-4.53,-4.49,-0.95,-0.95,-0.94
424.32,3.74,4.68,3.73,4.67,-4.68,-4.49,-4.49,-0.94,-0.94,-0.94
428.56,3.70,4.63,3.70,4.64,-4.64,-4.45,-4.50,-0.94,-0.93,-0.93
432.85,3.67,4.60,3.67,4.60,-4.59,-4.41,-4.50,-0.93,-0.93,-0.93
437.18,3.63,4.56,3.62,4.56,-4.55,-4.37,-4.50,-0.92,-0.93,-0.94
441.55,3.58,4.51,3.58,4.51,-4.51,-4.33,-4.51,-0.93,-0.93,-0.94
445.96,3.53,4.47,3.53,4.47,-4.47,-4.29,-4.51,-0.94,-0.94,-0.94
450.42,3.48,4.42,3.48,4.42,-4.43,-4.25,-4.51,-0.95,-0.95,-0.94
454.93,3.44,4.38,3.44,4.38,-4.38,-4.21,-4.51,-0.95,-0.95,-0.94
459.48,3.40,4.34,3.40,4.34,-4.34,-4.17,-4.51,-0.94,-0.94,-0.94
464.07,3.36,4.30,3.36,4.30,-4.30,-4.13,-4.51,-0.94,-0.94,-0.94
468.71,3.32,4.26,3.32,4.26,-4.25,-4.10,-4.50,-0.93,-0.93,-0.94
473.40,3.28,4.22,3.28,4.21,-4.21,-4.06,-4.49,-0.93,-0.93,-0.94
478.13,3.23,4.16,3.23,4.17,-4.17,-4.02,-4.48,-0.94,-0.93,-0.93
482.91,3.19,4.12,3.18,4.12,-4.12,-3.98,-4.46,-0.93,-0.94,-0.93
487.74,3.14,4.07,3.14,4.07,-4.08,-3.94,-4.44,-0.94,-0.94,-0.93
492.62,3.10,4.03,3.10,4.03,-4.04,-3.90,-4.42,-0.94,-0.94,-0.94
497.55,3.06,3.98,3.06,3.99,-3.99,-3.86,-4.39,-0.94,-0.93,-0.93
502.52,3.03,3.95,3.02,3.95,-3.95,-3.82,-4.36,-0.92,-0.93,-0.93
507.55,2.99,3.91,2.99,3.91,-3.91,-3.78,-4.33,-0.92,-0.92,-0.93
512.62,2.95,3.88,2.95,3.87,-3.87,-3.75,-4.29,-0.92,-0.92,-0.93
