frequency,raw,error,smoothed,error_smoothed,equalization,parametric_eq,fixed_band_eq,equalized_raw,equalized_smoothed,target
20.00,-9.69,-10.16,-9.68,-10.16,6.00,7.01,2.07,-3.69,-3.68,0.47
20.20,-9.60,-10.07,-9.60,-10.07,6.00,6.96,2.13,-3.60,-3.60,0.47
20.40,-9.50,-9.97,-9.51,-9.99,6.00,6.90,2.19,-3.50,-3.51,0.47
20.61,-9.41,-9.89,-9.41,-9.89,6.00,6.85,2.26,-3.41,-3.41,0.48
20.81,-9.31,-9.79,-9.32,-9.80,6.00,6.79,2.32,-3.31,-3.32,0.48
21.02,-9.22,-9.70,-9.20,-9.69,6.00,6.73,2.39,-3.22,-3.20,0.48
21.23,-9.07,-9.55,-9.07,-9.56,6.00,6.67,2.46,-3.07,-3.07,0.48
21.44,-8.92,-9.41,-8.93,-9.42,6.00,6.62,2.54,-2.92,-2.93,0.49
21.66,-8.77,-9.26,-8.77,-9.26,6.00,6.56,2.61,-2.77,-2.77,0.49
21.87,-8.62,-9.11,-8.61,-9.11,6.00,6.50,2.69,-2.62,-2.61,0.49
22.09,-8.46,-8.95,-8.46,-8.95,6.00,6.44,2.77,-2.46,-2.46,0.49
22.31,-8.30,-8.80,-8.30,-8.80,6.00,6.37,2.85,-2.30,-2.30,0.50
22.54,-8.15,-8.64,-8.15,-8.64,6.00,6.31,2.93,-2.15,-2.15,0.49
22.76,-7.99,-8.49,-7.99,-8.49,6.00,6.25,3.02,-1.99,-1.99,0.50
22.99,-7.83,-8.33,-7.83,-8.33,6.00,6.19,3.11,-1.83,-1.83,0.50
23.22,-7.68,-8.18,-7.68,-8.18,6.00,6.12,3.20,-1.68,-1.68,0.50
23.45,-7.53,-8.03,-7.53,-8.03,6.00,6.06,3.29,-1.53,-1.53,0.50
23.69,-7.38,-7.88,-7.38,-7.88,6.00,5.99,3.38,-1.38,-1.38,0.50
23.92,-7.23,-7.74,-7.24,-7.74,6.00,5.93,3.48,-1.23,-1.24,0.51
24.16,-7.11,-7.61,-7.11,-7.62,6.00,5.86,3.58,-1.11,-1.11,0.50
24.40,-7.01,-7.51,-7.01,-7.51,6.00,5.80,3.67,-1.01,-1.01,0.50
24.65,-6.91,-7.41,-6.91,-7.41,6.00,5.73,3.77,-0.91,-0.91,0.50
24.89,-6.80,-7.29,-6.80,-7.29,6.00,5.66,3.87,-0.80,-0.80,0.49
25.14,-6.68,-7.17,-6.67,-7.16,6.00,5.59,3.98,-0.68,-0.67,0.49
25.39,-6.53,-7.01,-6.53,-7.01,6.00,5.52,4.08,-0.53,-0.53,0.48
25.65,-6.38,-6.86,-6.38,-6.86,6.01,5.45,4.18,-0.37,-0.37,0.48
25.91,-6.23,-6.71,-6.23,-6.71,6.02,5.38,4.28,-0.21,-0.21,0.47
26.16,-6.09,-6.56,-6.09,-6.56,6.02,5.31,4.38,-0.06,-0.07,0.47
26.43,-5.95,-6.41,-5.95,-6.41,6.01,5.24,4.48,0.06,0.06,0.46
26.69,-5.81,-6.27,-5.81,-6.27,5.99,5.17,4.58,0.18,0.18,0.46
26.96,-5.67,-6.13,-5.67,-6.13,5.95,5.09,4.68,0.28,0.28,0.46
27.23,-5.53,-5.99,-5.53,-5.99,5.90,5.02,4.77,0.36,0.37,0.46
27.50,-5.39,-5.84,-5.38,-5.84,5.84,4.95,4.86,0.44,0.45,0.45
27.77,-5.25,-5.70,-5.25,-5.71,5.76,4.87,4.95,0.51,0.51,0.45
28.05,-5.13,-5.59,-5.14,-5.60,5.67,4.80,5.03,0.54,0.53,0.46
28.33,-5.06,-5.52,-5.06,-5.53,5.56,4.72,5.11,0.50,0.50,0.46
28.62,-4.99,-5.45,-4.99,-5.46,5.44,4.64,5.18,0.45,0.44,0.46
28.90,-4.92,-5.38,-4.90,-5.36,5.30,4.57,5.24,0.38,0.40,0.46
29.19,-4.77,-5.23,-4.76,-5.22,5.16,4.49,5.30,0.39,0.40,0.46
29.48,-4.58,-5.04,-4.58,-5.05,5.02,4.41,5.34,0.44,0.44,0.46
29.78,-4.39,-4.85,-4.39,-4.85,4.88,4.33,5.38,0.48,0.48,0.46
30.08,-4.21,-4.67,-4.22,-4.68,4.73,4.25,5.41,0.51,0.50,0.45
30.38,-4.08,-4.53,-4.08,-4.53,4.58,4.17,5.43,0.50,0.50,0.45
30.68,-3.96,-4.41,-3.95,-4.40,4.44,4.09,5.44,0.48,0.48,0.45
30.99,-3.84,-4.28,-3.85,-4.29,4.31,4.01,5.44,0.46,0.46,0.44
31.30,-3.74,-4.18,-3.75,-4.19,4.18,3.92,5.42,0.44,0.44,0.44
31.61,-3.65,-4.08,-3.65,-4.08,4.06,3.84,5.40,0.41,0.42,0.43
31.93,-3.55,-3.98,-3.54,-3.97,3.94,3.76,5.37,0.39,0.40,0.43
32.24,-3.42,-3.84,-3.42,-3.84,3.81,3.67,5.32,0.39,0.39,0.42
32.57,-3.28,-3.69,-3.29,-3.70,3.67,3.59,5.27,0.39,0.39,0.41
32.89,-3.15,-3.56,-3.14,-3.55,3.54,3.50,5.20,0.39,0.40,0.41
33.22,-2.99,-3.40,-2.98,-3.39,3.41,3.41,5.13,0.42,0.42,0.41
33.55,-2.83,-3.23,-2.82,-3.23,3.28,3.33,5.05,0.45,0.45,0.40
33.89,-2.67,-3.06,-2.69,-3.08,3.14,3.24,4.95,0.47,0.46,0.39
34.23,-2.58,-2.97,-2.60,-2.99,3.01,3.15,4.86,0.43,0.42,0.39
34.57,-2.53,-2.91,-2.53,-2.91,2.88,3.06,4.75,0.35,0.36,0.38
34.92,-2.47,-2.85,-2.44,-2.83,2.76,2.97,4.64,0.29,0.32,0.38
35.27,-2.32,-2.70,-2.31,-2.69,2.64,2.88,4.52,0.32,0.33,0.38
35.62,-2.14,-2.52,-2.15,-2.53,2.52,2.79,4.40,0.38,0.37,0.38
35.97,-1.96,-2.33,-1.99,-2.36,2.40,2.70,4.27,0.44,0.41,0.37
36.33,-1.87,-2.24,-1.87,-2.24,2.28,2.61,4.14,0.41,0.42,0.37
36.70,-1.78,-2.15,-1.77,-2.14,2.17,2.52,4.00,0.39,0.39,0.37
37.06,-1.69,-2.06,-1.68,-2.06,2.06,2.43,3.86,0.37,0.37,0.37
37.43,-1.59,-1.96,-1.58,-1.96,1.96,2.34,3.72,0.37,0.37,0.37
37.81,-1.48,-1.86,-1.49,-1.87,1.87,2.24,3.58,0.39,0.38,0.38
38.19,-1.40,-1.78,-1.41,-1.79,1.79,2.15,3.44,0.39,0.38,0.38
38.57,-1.33,-1.71,-1.33,-1.71,1.71,2.06,3.30,0.38,0.38,0.38
38.95,-1.26,-1.64,-1.25,-1.63,1.63,1.96,3.16,0.37,0.38,0.38
39.34,-1.16,-1.54,-1.16,-1.54,1.54,1.87,3.01,0.39,0.38,0.38
39.74,-1.06,-1.44,-1.07,-1.45,1.45,1.77,2.87,0.39,0.38,0.38
40.14,-0.97,-1.35,-0.98,-1.36,1.35,1.68,2.72,0.38,0.37,0.38
40.54,-0.89,-1.27,-0.89,-1.28,1.24,1.58,2.58,0.35,0.35,0.38
40.94,-0.81,-1.19,-0.78,-1.16,1.13,1.49,2.44,0.32,0.35,0.38
41.35,-0.66,-1.03,-0.65,-1.02,1.03,1.39,2.30,0.37,0.38,0.37
41.76,-0.49,-0.85,-0.51,-0.88,0.92,1.30,2.15,0.43,0.41,0.36
42.18,-0.39,-0.74,-0.41,-0.77,0.81,1.20,2.01,0.43,0.40,0.35
42.60,-0.36,-0.70,-0.35,-0.69,0.71,1.11,1.87,0.35,0.36,0.34
43.03,-0.33,-0.66,-0.30,-0.63,0.60,1.01,1.73,0.27,0.30,0.33
43.46,-0.23,-0.54,-0.23,-0.55,0.51,0.92,1.60,0.28,0.27,0.31
43.90,-0.13,-0.43,-0.14,-0.44,0.42,0.82,1.46,0.29,0.28,0.30
44.33,-0.04,-0.33,-0.03,-0.32,0.33,0.73,1.32,0.30,0.30,0.29
44.78,0.06,-0.22,0.05,-0.23,0.26,0.64,1.19,0.31,0.31,0.28
45.23,0.13,-0.14,0.12,-0.16,0.18,0.54,1.05,0.31,0.29,0.27
45.68,0.16,-0.10,0.17,-0.10,0.11,0.45,0.92,0.27,0.28,0.26
46.13,0.20,-0.06,0.22,-0.04,0.05,0.36,0.79,0.25,0.27,0.26
46.60,0.28,0.02,0.27,0.01,-0.01,0.27,0.66,0.27,0.27,0.26
47.06,0.34,0.08,0.32,0.06,-0.06,0.18,0.53,0.28,0.26,0.26
47.53,0.37,0.11,0.37,0.10,-0.12,0.09,0.40,0.25,0.25,0.26
48.01,0.39,0.12,0.41,0.14,-0.18,0.00,0.27,0.21,0.23,0.27
48.49,0.48,0.20,0.48,0.20,-0.23,-0.08,0.14,0.25,0.24,0.28
48.97,0.57,0.28,0.58,0.29,-0.29,-0.17,0.02,0.28,0.29,0.29
49.46,0.68,0.38,0.69,0.38,-0.34,-0.25,-0.11,0.34,0.34,0.30
49.96,0.79,0.48,0.76,0.44,-0.39,-0.33,-0.23,0.40,0.36,0.31
50.46,0.80,0.47,0.80,0.47,-0.44,-0.41,-0.35,0.36,0.36,0.33
50.96,0.80,0.46,0.82,0.48,-0.49,-0.49,-0.47,0.31,0.34,0.34
51.47,0.85,0.50,0.85,0.50,-0.53,-0.57,-0.59,0.32,0.32,0.35
51.99,0.90,0.55,0.90,0.55,-0.56,-0.64,-0.70,0.34,0.34,0.35
52.51,0.96,0.61,0.96,0.61,-0.60,-0.71,-0.82,0.36,0.36,0.35
53.03,1.02,0.67,0.99,0.64,-0.65,-0.78,-0.93,0.37,0.34,0.35
53.56,1.02,0.67,1.03,0.67,-0.70,-0.85,-1.03,0.32,0.33,0.35
54.10,1.04,0.69,1.09,0.74,-0.75,-0.91,-1.14,0.29,0.33,0.35
54.64,1.17,0.83,1.15,0.81,-0.81,-0.97,-1.24,0.36,0.34,0.34
55.18,1.25,0.92,1.22,0.89,-0.86,-1.03,-1.34,0.39,0.36,0.33
55.74,1.25,0.93,1.26,0.94,-0.90,-1.09,-1.43,0.35,0.36,0.32
56.29,1.25,0.95,1.26,0.95,-0.93,-1.14,-1.52,0.32,0.32,0.30
56.86,1.25,0.96,1.25,0.96,-0.97,-1.19,-1.60,0.28,0.28,0.29
57.42,1.25,0.98,1.25,0.98,-0.99,-1.23,-1.68,0.26,0.26,0.27
58.00,1.25,1.00,1.25,1.00,-1.01,-1.27,-1.76,0.24,0.24,0.25
58.58,1.25,1.02,1.25,1.02,-1.03,-1.31,-1.83,0.23,0.23,0.23
59.16,1.25,1.04,1.25,1.04,-1.04,-1.35,-1.89,0.21,0.21,0.21
59.76,1.25,1.06,1.25,1.06,-1.05,-1.38,-1.94,0.20,0.20,0.19
60.35,1.25,1.08,1.25,1.08,-1.07,-1.40,-1.99,0.18,0.18,0.17
60.96,1.25,1.10,1.25,1.09,-1.09,-1.43,-2.03,0.16,0.16,0.15
61.57,1.25,1.11,1.25,1.11,-1.11,-1.45,-2.07,0.14,0.14,0.14
62.18,1.25,1.13,1.25,1.13,-1.13,-1.46,-2.10,0.12,0.12,0.12
62.80,1.25,1.15,1.25,1.15,-1.15,-1.48,-2.12,0.10,0.10,0.10
63.43,1.25,1.17,1.25,1.17,-1.17,-1.48,-2.13,0.08,0.08,0.08
64.07,1.25,1.19,1.25,1.19,-1.19,-1.49,-2.14,0.06,0.06,0.06
64.71,1.25,1.21,1.25,1.21,-1.21,-1.49,-2.14,0.04,0.04,0.04
65.35,1.25,1.23,1.25,1.23,-1.22,-1.49,-2.14,0.03,0.03,0.02
66.01,1.25,1.24,1.25,1.24,-1.24,-1.48,-2.12,0.02,0.02,0.01
66.67,1.25,1.25,1.25,1.25,-1.25,-1.48,-2.11,0.01,0.01,0.00
67.33,1.25,1.25,1.25,1.25,-1.25,-1.46,-2.08,-0.00,-0.00,0.00
68.01,1.25,1.26,1.25,1.26,-1.25,-1.45,-2.05,-0.00,-0.00,-0.01
68.69,1.25,1.26,1.25,1.25,-1.25,-1.43,-2.02,-0.00,-0.00,-0.01
69.37,1.25,1.25,1.25,1.25,-1.25,-1.41,-1.98,0.00,0.00,0.00
70.07,1.25,1.24,1.25,1.24,-1.24,-1.38,-1.94,0.01,0.01,0.01
70.77,1.25,1.23,1.25,1.23,-1.23,-1.36,-1.89,0.02,0.02,0.02
71.48,1.25,1.22,1.25,1.22,-1.22,-1.33,-1.84,0.03,0.03,0.03
72.19,1.25,1.21,1.25,1.20,-1.20,-1.30,-1.79,0.05,0.05,0.04
72.91,1.25,1.19,1.25,1.19,-1.19,-1.26,-1.73,0.06,0.06,0.06
73.64,1.25,1.18,1.25,1.18,-1.19,-1.23,-1.67,0.06,0.06,0.07
74.38,1.25,1.17,1.25,1.17,-1.18,-1.19,-1.61,0.07,0.07,0.08
75.12,1.25,1.16,1.25,1.16,-1.18,-1.15,-1.55,0.07,0.07,0.09
75.87,1.25,1.16,1.25,1.15,-1.16,-1.11,-1.48,0.09,0.09,0.09
76.63,1.25,1.15,1.25,1.15,-1.14,-1.07,-1.42,0.11,0.11,0.10
77.40,1.25,1.14,1.27,1.15,-1.11,-1.03,-1.35,0.14,0.15,0.11
78.17,1.25,1.13,1.25,1.13,-1.08,-0.98,-1.28,0.17,0.17,0.12
78.95,1.25,1.13,1.19,1.06,-1.04,-0.94,-1.22,0.21,0.15,0.12
79.74,1.08,0.95,1.12,0.98,-0.99,-0.89,-1.15,0.09,0.12,0.13
80.54,1.02,0.88,1.05,0.91,-0.95,-0.84,-1.08,0.07,0.10,0.14
81.35,1.02,0.87,1.01,0.86,-0.91,-0.80,-1.01,0.11,0.10,0.15
82.16,1.02,0.86,1.01,0.85,-0.88,-0.75,-0.94,0.14,0.14,0.16
82.98,1.02,0.85,1.02,0.85,-0.85,-0.70,-0.88,0.17,0.17,0.17
83.81,1.02,0.83,1.02,0.83,-0.83,-0.65,-0.81,0.19,0.19,0.19
84.65,1.02,0.82,1.02,0.82,-0.80,-0.60,-0.74,0.22,0.22,0.20
85.50,1.02,0.80,1.02,0.80,-0.77,-0.55,-0.67,0.25,0.25,0.22
86.35,1.02,0.78,1.03,0.79,-0.74,-0.50,-0.61,0.28,0.29,0.24
87.22,1.01,0.75,0.99,0.73,-0.70,-0.45,-0.54,0.31,0.29,0.26
88.09,0.96,0.68,0.93,0.64,-0.65,-0.40,-0.48,0.31,0.27,0.28
88.97,0.81,0.51,0.86,0.56,-0.60,-0.36,-0.41,0.21,0.26,0.30
89.86,0.80,0.49,0.81,0.49,-0.54,-0.31,-0.35,0.26,0.27,0.31
90.76,0.80,0.47,0.80,0.46,-0.47,-0.26,-0.28,0.33,0.32,0.33
91.66,0.80,0.45,0.81,0.45,-0.41,-0.21,-0.22,0.39,0.40,0.35
92.58,0.80,0.43,0.76,0.39,-0.35,-0.16,-0.16,0.45,0.42,0.37
93.51,0.70,0.31,0.70,0.30,-0.30,-0.11,-0.09,0.40,0.40,0.39
94.44,0.59,0.18,0.63,0.21,-0.25,-0.07,-0.03,0.34,0.38,0.41
95.39,0.57,0.14,0.57,0.14,-0.19,-0.02,0.03,0.38,0.38,0.43
96.34,0.57,0.12,0.57,0.11,-0.13,0.03,0.09,0.44,0.44,0.45
97.30,0.57,0.10,0.58,0.11,-0.06,0.08,0.15,0.51,0.52,0.47
98.28,0.57,0.08,0.54,0.05,-0.00,0.12,0.21,0.57,0.54,0.49
99.26,0.51,-0.00,0.48,-0.03,0.05,0.17,0.27,0.56,0.52,0.51
100.25,0.35,-0.17,0.40,-0.12,0.09,0.21,0.33,0.44,0.50,0.52
101.25,0.34,-0.20,0.35,-0.20,0.14,0.26,0.38,0.48,0.49,0.54
102.27,0.34,-0.21,0.33,-0.22,0.19,0.30,0.44,0.54,0.53,0.55
103.29,0.34,-0.22,0.35,-0.21,0.25,0.34,0.50,0.59,0.60,0.56
104.32,0.34,-0.22,0.32,-0.25,0.30,0.39,0.55,0.64,0.62,0.56
105.37,0.28,-0.28,0.26,-0.31,0.33,0.43,0.61,0.61,0.58,0.56
106.42,0.15,-0.41,0.18,-0.38,0.35,0.47,0.66,0.50,0.53,0.56
107.48,0.11,-0.44,0.12,-0.43,0.37,0.52,0.72,0.48,0.49,0.55
108.56,0.11,-0.42,0.10,-0.44,0.39,0.56,0.77,0.50,0.49,0.53
109.64,0.11,-0.41,0.11,-0.42,0.41,0.60,0.82,0.52,0.52,0.52
110.74,0.11,-0.40,0.13,-0.38,0.43,0.64,0.87,0.54,0.56,0.51
111.85,0.11,-0.39,0.09,-0.41,0.45,0.68,0.92,0.56,0.55,0.50
112.97,0.09,-0.39,0.03,-0.46,0.47,0.72,0.97,0.56,0.50,0.48
114.10,-0.11,-0.58,-0.04,-0.51,0.50,0.76,1.02,0.39,0.46,0.47
115.24,-0.11,-0.57,-0.09,-0.55,0.54,0.80,1.06,0.43,0.45,0.46
116.39,-0.11,-0.56,-0.14,-0.59,0.58,0.84,1.11,0.47,0.44,0.45
117.55,-0.13,-0.57,-0.18,-0.62,0.63,0.88,1.15,0.50,0.45,0.44
118.73,-0.29,-0.73,-0.25,-0.69,0.69,0.92,1.19,0.40,0.44,0.44
119.92,-0.34,-0.78,-0.31,-0.75,0.74,0.96,1.23,0.40,0.43,0.44
121.12,-0.34,-0.78,-0.35,-0.79,0.79,1.00,1.27,0.45,0.44,0.44
122.33,-0.34,-0.78,-0.38,-0.83,0.84,1.04,1.31,0.50,0.46,0.44
123.55,-0.44,-0.89,-0.45,-0.90,0.90,1.08,1.34,0.46,0.46,0.45
124.79,-0.56,-1.01,-0.51,-0.97,0.97,1.12,1.38,0.41,0.45,0.45
126.03,-0.57,-1.03,-0.56,-1.02,1.03,1.16,1.41,0.46,0.47,0.46
127.29,-0.57,-1.04,-0.60,-1.07,1.08,1.20,1.44,0.51,0.48,0.47
128.57,-0.62,-1.09,-0.66,-1.14,1.13,1.24,1.47,0.52,0.48,0.47
129.85,-0.78,-1.26,-0.73,-1.21,1.19,1.28,1.50,0.41,0.45,0.48
131.15,-0.80,-1.29,-0.79,-1.28,1.24,1.32,1.52,0.44,0.45,0.49
132.46,-0.80,-1.29,-0.81,-1.30,1.29,1.36,1.55,0.49,0.48,0.49
133.79,-0.80,-1.29,-0.79,-1.29,1.33,1.40,1.57,0.53,0.54,0.49
135.12,-0.81,-1.31,-0.83,-1.33,1.37,1.44,1.60,0.56,0.54,0.50
136.48,-0.86,-1.36,-0.89,-1.40,1.41,1.48,1.62,0.55,0.52,0.50
137.84,-1.01,-1.51,-0.96,-1.47,1.45,1.52,1.64,0.44,0.48,0.50
139.22,-1.03,-1.54,-1.02,-1.53,1.49,1.57,1.66,0.46,0.47,0.51
140.61,-1.03,-1.54,-1.03,-1.54,1.53,1.61,1.68,0.50,0.51,0.51
142.02,-1.03,-1.54,-1.04,-1.55,1.58,1.65,1.70,0.55,0.54,0.51
143.44,-1.04,-1.55,-1.09,-1.61,1.63,1.69,1.72,0.59,0.54,0.51
144.87,-1.21,-1.72,-1.16,-1.67,1.67,1.73,1.75,0.46,0.51,0.51
146.32,-1.24,-1.74,-1.22,-1.72,1.71,1.78,1.77,0.47,0.49,0.50
147.78,-1.25,-1.74,-1.26,-1.75,1.74,1.82,1.79,0.49,0.49,0.49
149.26,-1.25,-1.73,-1.29,-1.77,1.78,1.86,1.81,0.53,0.49,0.48
150.75,-1.36,-1.82,-1.36,-1.82,1.81,1.90,1.83,0.45,0.45,0.46
152.26,-1.45,-1.89,-1.42,-1.86,1.84,1.95,1.85,0.39,0.41,0.44
153.78,-1.48,-1.89,-1.46,-1.87,1.86,1.99,1.88,0.38,0.40,0.41
155.32,-1.48,-1.86,-1.49,-1.88,1.89,2.04,1.90,0.41,0.40,0.38
156.88,-1.50,-1.85,-1.55,-1.90,1.93,2.08,1.93,0.43,0.38,0.35
158.44,-1.65,-1.98,-1.61,-1.94,1.97,2.13,1.95,0.32,0.36,0.33
160.03,-1.71,-2.02,-1.68,-1.99,2.01,2.17,1.98,0.30,0.32,0.31
161.63,-1.71,-2.00,-1.77,-2.07,2.05,2.22,2.01,0.34,0.27,0.29
163.24,-1.85,-2.13,-1.84,-2.12,2.09,2.26,2.04,0.24,0.25,0.28
164.88,-1.94,-2.21,-1.90,-2.17,2.14,2.31,2.07,0.20,0.24,0.27
166.53,-1.94,-2.21,-1.94,-2.21,2.20,2.35,2.10,0.26,0.27,0.27
168.19,-1.94,-2.21,-1.97,-2.24,2.27,2.40,2.14,0.33,0.30,0.27
169.87,-1.99,-2.27,-2.02,-2.31,2.34,2.45,2.18,0.35,0.32,0.28
171.57,-2.13,-2.43,-2.08,-2.38,2.41,2.49,2.21,0.28,0.34,0.30
173.29,-2.17,-2.49,-2.16,-2.48,2.49,2.54,2.25,0.32,0.33,0.32
175.02,-2.17,-2.51,-2.25,-2.59,2.56,2.59,2.30,0.39,0.32,0.34
176.77,-2.36,-2.73,-2.31,-2.68,2.65,2.64,2.34,0.29,0.34,0.37
178.54,-2.39,-2.79,-2.36,-2.76,2.74,2.68,2.38,0.35,0.37,0.40
180.32,-2.39,-2.82,-2.40,-2.83,2.83,2.73,2.43,0.44,0.43,0.43
182.13,-2.39,-2.85,-2.43,-2.89,2.92,2.78,2.48,0.53,0.49,0.46
183.95,-2.48,-2.96,-2.48,-2.96,3.01,2.83,2.53,0.53,0.53,0.48
185.79,-2.61,-3.11,-2.57,-3.07,3.09,2.87,2.58,0.48,0.52,0.50
187.65,-2.62,-3.14,-2.68,-3.20,3.17,2.92,2.63,0.55,0.49,0.52
189.52,-2.80,-3.33,-2.76,-3.29,3.26,2.97,2.69,0.46,0.50,0.53
191.42,-2.85,-3.39,-2.82,-3.36,3.35,3.02,2.74,0.50,0.53,0.54
193.33,-2.85,-3.39,-2.90,-3.45,3.44,3.07,2.80,0.59,0.54,0.54
195.27,-2.95,-3.50,-2.94,-3.50,3.53,3.12,2.86,0.58,0.58,0.55
197.22,-3.05,-3.61,-3.02,-3.58,3.61,3.16,2.92,0.56,0.58,0.56
199.19,-3.09,-3.65,-3.13,-3.69,3.68,3.21,2.99,0.59,0.55,0.56
201.18,-3.22,-3.78,-3.21,-3.77,3.75,3.26,3.05,0.53,0.54,0.56
203.19,-3.31,-3.87,-3.27,-3.83,3.82,3.31,3.11,0.51,0.55,0.56
205.23,-3.31,-3.87,-3.35,-3.91,3.90,3.35,3.18,0.59,0.55,0.56
207.28,-3.39,-3.94,-3.39,-3.95,3.97,3.40,3.25,0.58,0.58,0.55
209.35,-3.50,-4.04,-3.47,-4.02,4.05,3.45,3.31,0.55,0.58,0.54
211.44,-3.53,-4.07,-3.58,-4.12,4.12,3.50,3.38,0.59,0.54,0.54
213.56,-3.69,-4.22,-3.66,-4.19,4.19,3.54,3.45,0.50,0.53,0.53
215.69,-3.76,-4.29,-3.73,-4.26,4.26,3.59,3.51,0.50,0.54,0.53
217.85,-3.76,-4.28,-3.80,-4.33,4.33,3.64,3.58,0.57,0.53,0.52
220.03,-3.85,-4.37,-3.86,-4.38,4.39,3.68,3.64,0.54,0.53,0.52
222.23,-3.95,-4.46,-3.93,-4.44,4.44,3.73,3.71,0.49,0.52,0.51
224.45,-3.99,-4.50,-3.98,-4.49,4.47,3.77,3.77,0.48,0.49,0.51
226.70,-3.99,-4.49,-4.00,-4.50,4.49,3.82,3.83,0.50,0.49,0.50
228.96,-3.99,-4.49,-4.01,-4.51,4.48,3.86,3.89,0.49,0.47,0.50
231.25,-3.99,-4.48,-3.97,-4.47,4.46,3.91,3.95,0.47,0.48,0.49
233.57,-3.96,-4.45,-3.91,-4.40,4.40,3.95,4.01,0.44,0.50,0.49
235.90,-3.77,-4.26,-3.85,-4.33,4.33,4.00,4.06,0.56,0.48,0.49
238.26,-3.76,-4.24,-3.78,-4.27,4.23,4.04,4.11,0.47,0.45,0.48
240.64,-3.76,-4.24,-3.68,-4.17,4.14,4.08,4.15,0.38,0.45,0.48
243.05,-3.60,-4.08,-3.57,-4.05,4.04,4.12,4.20,0.44,0.47,0.48
245.48,-3.37,-3.85,-3.43,-3.92,3.95,4.17,4.24,0.58,0.52,0.48
247.93,-3.31,-3.79,-3.33,-3.81,3.88,4.21,4.28,0.57,0.55,0.48
250.41,-3.31,-3.79,-3.29,-3.77,3.82,4.25,4.31,0.51,0.53,0.48
252.92,-3.31,-3.79,-3.30,-3.79,3.79,4.29,4.34,0.48,0.48,0.48
255.45,-3.31,-3.79,-3.31,-3.79,3.77,4.33,4.37,0.47,0.47,0.48
258.00,-3.31,-3.79,-3.29,-3.77,3.79,4.37,4.40,0.48,0.49,0.48
260.58,-3.31,-3.79,-3.32,-3.80,3.81,4.41,4.42,0.50,0.49,0.48
263.19,-3.32,-3.79,-3.38,-3.86,3.85,4.44,4.44,0.53,0.47,0.47
265.82,-3.51,-3.98,-3.45,-3.93,3.90,4.48,4.46,0.39,0.45,0.47
268.48,-3.53,-4.00,-3.50,-3.97,3.95,4.52,4.47,0.42,0.45,0.47
271.16,-3.53,-3.99,-3.55,-4.01,4.00,4.55,4.48,0.47,0.45,0.46
273.87,-3.53,-3.99,-3.58,-4.04,4.06,4.59,4.50,0.53,0.48,0.46
276.61,-3.67,-4.13,-3.65,-4.10,4.13,4.62,4.50,0.46,0.48,0.46
279.38,-3.75,-4.20,-3.71,-4.16,4.19,4.66,4.51,0.44,0.49,0.45
282.17,-3.76,-4.21,-3.79,-4.24,4.24,4.69,4.52,0.49,0.46,0.45
284.99,-3.81,-4.26,-3.86,-4.31,4.29,4.72,4.53,0.48,0.44,0.45
287.84,-3.98,-4.43,-3.93,-4.38,4.34,4.76,4.54,0.36,0.41,0.45
290.72,-3.99,-4.44,-3.98,-4.44,4.38,4.79,4.54,0.39,0.40,0.45
293.63,-3.99,-4.44,-4.00,-4.46,4.42,4.82,4.55,0.43,0.42,0.45
296.57,-3.99,-4.44,-3.97,-4.43,4.46,4.85,4.56,0.47,0.49,0.45
299.53,-3.99,-4.44,-4.00,-4.45,4.50,4.88,4.57,0.51,0.50,0.45
302.53,-4.00,-4.44,-4.06,-4.51,4.54,4.91,4.59,0.54,0.48,0.44
305.55,-4.19,-4.63,-4.12,-4.57,4.58,4.94,4.60,0.39,0.46,0.44
308.61,-4.22,-4.66,-4.20,-4.64,4.64,4.96,4.62,0.42,0.44,0.44
311.69,-4.22,-4.65,-4.29,-4.72,4.70,4.99,4.63,0.48,0.41,0.43
314.81,-4.36,-4.78,-4.33,-4.75,4.76,5.02,4.66,0.40,0.44,0.42
317.96,-4.44,-4.85,-4.42,-4.83,4.83,5.04,4.68,0.39,0.41,0.41
321.14,-4.46,-4.85,-4.52,-4.91,4.89,5.07,4.71,0.43,0.37,0.39
324.35,-4.62,-5.00,-4.59,-4.97,4.94,5.09,4.74,0.32,0.35,0.38
327.59,-4.67,-5.04,-4.63,-5.01,4.99,5.11,4.77,0.32,0.36,0.37
330.87,-4.67,-5.03,-4.68,-5.04,5.04,5.14,4.81,0.38,0.36,0.36
334.18,-4.67,-5.02,-4.72,-5.07,5.10,5.16,4.84,0.43,0.38,0.35
337.52,-4.80,-5.14,-4.78,-5.12,5.15,5.18,4.89,0.35,0.37,0.34
340.90,-4.88,-5.22,-4.84,-5.18,5.20,5.20,4.94,0.32,0.36,0.34
344.30,-4.90,-5.23,-4.92,-5.26,5.25,5.22,4.99,0.35,0.33,0.33
347.75,-4.96,-5.29,-4.99,-5.32,5.31,5.24,5.04,0.35,0.32,0.33
351.23,-5.09,-5.42,-5.06,-5.39,5.37,5.26,5.10,0.28,0.31,0.33
354.74,-5.13,-5.46,-5.10,-5.43,5.43,5.28,5.16,0.30,0.33,0.33
358.28,-5.13,-5.46,-5.14,-5.48,5.49,5.30,5.23,0.36,0.35,0.33
361.87,-5.13,-5.47,-5.19,-5.53,5.54,5.31,5.30,0.41,0.35,0.34
365.49,-5.29,-5.63,-5.26,-5.60,5.60,5.33,5.38,0.31,0.34,0.34
369.14,-5.35,-5.69,-5.32,-5.66,5.65,5.35,5.45,0.30,0.33,0.34
372.83,-5.36,-5.70,-5.36,-5.71,5.71,5.36,5.54,0.35,0.35,0.34
376.56,-5.36,-5.71,-5.40,-5.75,5.77,5.38,5.62,0.41,0.37,0.35
380.33,-5.45,-5.80,-5.46,-5.81,5.83,5.39,5.71,0.38,0.37,0.35
384.13,-5.56,-5.91,-5.51,-5.86,5.88,5.40,5.81,0.32,0.37,0.35
387.97,-5.58,-5.93,-5.58,-5.93,5.92,5.42,5.90,0.34,0.34,0.35
391.85,-5.59,-5.94,-5.65,-6.01,5.95,5.43,6.00,0.36,0.30,0.35
395.77,-5.75,-6.10,-5.72,-6.07,5.98,5.44,6.11,0.23,0.26,0.35
399.73,-5.81,-6.17,-5.77,-6.13,6.00,5.46,6.21,0.19,0.23,0.36
403.72,-5.81,-6.17,-5.82,-6.18,6.01,5.47,6.32,0.20,0.19,0.36
407.76,-5.81,-6.17,-5.86,-6.23,6.01,5.48,6.43,0.20,0.15,0.36
411.84,-5.95,-6.31,-5.93,-6.29,6.01,5.49,6.54,0.06,0.08,0.36
415.96,-6.03,-6.39,-5.99,-6.35,6.00,5.50,6.65,-0.02,0.02,0.36
420.12,-6.04,-6.40,-6.05,-6.42,6.00,5.51,6.77,-0.04,-0.05,0.36
424.32,-6.06,-6.42,-6.10,-6.47,6.00,5.52,6.88,-0.06,-0.10,0.36
428.56,-6.21,-6.57,-6.17,-6.54,6.00,5.53,6.99,-0.21,-0.17,0.36
432.85,-6.27,-6.63,-6.28,-6.64,6.00,5.54,7.10,-0.27,-0.28,0.36
437.18,-6.37,-6.73,-6.38,-6.74,6.00,5.55,7.21,-0.37,-0.38,0.36
441.55,-6.47,-6.82,-6.45,-6.80,6.00,5.57,7.32,-0.47,-0.45,0.35
445.96,-6.50,-6.85,-6.49,-6.84,6.00,5.58,7.42,-0.50,-0.49,0.35
450.42,-6.50,-6.85,-6.50,-6.85,6.00,5.59,7.51,-0.50,-0.50,0.35
454.93,-6.50,-6.85,-6.52,-6.87,6.00,5.60,7.60,-0.50,-0.52,0.35
459.48,-6.55,-6.89,-6.57,-6.92,6.00,5.61,7.69,-0.55,-0.57,0.34
464.07,-6.69,-7.04,-6.65,-7.00,6.00,5.62,7.76,-0.69,-0.65,0.35
468.71,-6.72,-7.07,-6.76,-7.11,6.00,5.63,7.83,-0.72,-0.76,0.35
473.40,-6.86,-7.21,-6.85,-7.20,6.00,5.64,7.88,-0.86,-0.85,0.35
478.13,-6.94,-7.29,-6.90,-7.26,6.00,5.65,7.92,-0.94,-0.90,0.35
482.91,-6.95,-7.31,-6.98,-7.34,6.00,5.67,7.96,-0.95,-0.98,0.36
487.74,-7.01,-7.37,-7.03,-7.39,6.00,5.68,7.97,-1.01,-1.03,0.36
492.62,-7.14,-7.51,-7.11,-7.48,6.00,5.69,7.98,-1.14,-1.11,0.37
497.55,-7.18,-7.55,-7.21,-7.59,6.00,5.71,7.97,-1.18,-1.21,0.37
502.52,-7.31,-7.69,-7.31,-7.69,6.00,5.72,7.95,-1.31,-1.31,0.38
507.55,-7.40,-7.79,-7.36,-7.75,6.00,5.74,7.92,-1.40,-1.36,0.39
512.62,-7.41,-7.80,-7.40,-7.80,6.00,5.76,7.87,-1.41,-1.40,0.39
517.75,-7.41,-7.81,-7.44,-7.84,6.00,5.78,7.81,-1.41,-1.44,0.40
