frequency,raw,error,smoothed,error_smoothed,equalization,parametric_eq,fixed_band_eq,equalized_raw,equalized_smoothed,target
20.00,-16.94,-12.76,-16.94,-12.76,6.00,4.12,2.33,-10.94,-10.94,-4.18
20.20,-16.89,-12.71,-16.89,-12.72,6.00,4.26,2.40,-10.89,-10.89,-4.18
20.40,-16.83,-12.65,-16.82,-12.65,6.00,4.41,2.47,-10.83,-10.82,-4.17
20.61,-16.73,-12.56,-16.73,-12.55,6.00,4.55,2.54,-10.73,-10.73,-4.17
20.81,-16.61,-12.44,-16.61,-12.43,6.00,4.70,2.62,-10.61,-10.61,-4.17
21.02,-16.45,-12.28,-16.46,-12.29,6.00,4.84,2.69,-10.45,-10.46,-4.17
21.23,-16.31,-12.14,-16.30,-12.13,6.00,4.99,2.77,-10.31,-10.30,-4.17
21.44,-16.12,-11.95,-16.12,-11.95,6.00,5.14,2.85,-10.12,-10.12,-4.17
21.66,-15.94,-11.78,-15.94,-11.77,6.00,5.30,2.94,-9.94,-9.94,-4.17
21.87,-15.75,-11.58,-15.76,-11.59,6.00,5.44,3.02,-9.75,-9.76,-4.16
22.09,-15.60,-11.43,-15.59,-11.43,6.00,5.59,3.11,-9.60,-9.59,-4.16
22.31,-15.43,-11.26,-15.42,-11.26,6.00,5.74,3.20,-9.43,-9.42,-4.16
22.54,-15.26,-11.10,-15.26,-11.10,6.00,5.88,3.30,-9.26,-9.26,-4.16
22.76,-15.09,-10.93,-15.10,-10.94,6.00,6.01,3.39,-9.09,-9.10,-4.16
22.99,-14.93,-10.77,-14.92,-10.77,6.00,6.14,3.49,-8.93,-8.92,-4.16
23.22,-14.76,-10.60,-14.74,-10.59,6.00,6.27,3.59,-8.76,-8.74,-4.16
23.45,-14.53,-10.37,-14.55,-10.39,6.00,6.38,3.69,-8.53,-8.55,-4.15
23.69,-14.34,-10.19,-14.33,-10.18,6.00,6.48,3.79,-8.34,-8.33,-4.15
23.92,-14.12,-9.96,-14.11,-9.96,6.00,6.58,3.90,-8.12,-8.11,-4.15
24.16,-13.90,-9.75,-13.91,-9.76,6.00,6.66,4.01,-7.90,-7.91,-4.15
24.40,-13.71,-9.56,-13.71,-9.56,6.00,6.72,4.12,-7.71,-7.71,-4.15
24.65,-13.55,-9.40,-13.54,-9.40,6.00,6.78,4.23,-7.55,-7.54,-4.15
24.89,-13.39,-9.24,-13.39,-9.25,6.00,6.82,4.34,-7.39,-7.39,-4.15
25.14,-13.25,-9.10,-13.24,-9.10,6.00,6.84,4.45,-7.25,-7.24,-4.14
25.39,-13.10,-8.95,-13.09,-8.95,6.00,6.85,4.57,-7.10,-7.09,-4.14
25.65,-12.94,-8.80,-12.94,-8.79,6.00,6.85,4.68,-6.94,-6.94,-4.14
25.91,-12.77,-8.63,-12.77,-8.63,6.00,6.83,4.79,-6.77,-6.77,-4.14
26.16,-12.60,-8.46,-12.60,-8.46,6.00,6.80,4.91,-6.60,-6.60,-4.14
26.43,-12.43,-8.29,-12.43,-8.30,6.00,6.76,5.02,-6.43,-6.43,-4.14
26.69,-12.27,-8.13,-12.27,-8.13,6.00,6.71,5.13,-6.27,-6.27,-4.14
26.96,-12.10,-7.97,-12.10,-7.96,6.00,6.64,5.24,-6.10,-6.10,-4.14
27.23,-11.92,-7.79,-11.92,-7.78,6.00,6.58,5.34,-5.92,-5.92,-4.13
27.50,-11.73,-7.60,-11.73,-7.60,6.00,6.50,5.44,-5.73,-5.73,-4.13
27.77,-11.54,-7.41,-11.54,-7.41,6.00,6.42,5.54,-5.54,-5.54,-4.13
28.05,-11.36,-7.23,-11.35,-7.22,6.00,6.34,5.63,-5.35,-5.35,-4.13
28.33,-11.16,-7.03,-11.16,-7.03,6.01,6.26,5.72,-5.14,-5.14,-4.13
28.62,-10.97,-6.84,-10.97,-6.84,6.03,6.17,5.80,-4.95,-4.94,-4.13
28.90,-10.77,-6.64,-10.78,-6.65,6.03,6.09,5.87,-4.74,-4.75,-4.13
29.19,-10.60,-6.47,-10.59,-6.47,6.02,6.01,5.94,-4.58,-4.57,-4.12
29.48,-10.42,-6.29,-10.41,-6.29,5.99,5.92,5.99,-4.42,-4.42,-4.12
29.78,-10.24,-6.12,-10.25,-6.13,5.95,5.84,6.04,-4.29,-4.30,-4.12
30.08,-10.08,-5.96,-10.08,-5.96,5.88,5.76,6.08,-4.20,-4.20,-4.12
30.38,-9.93,-5.81,-9.93,-5.81,5.78,5.69,6.10,-4.15,-4.14,-4.12
30.68,-9.77,-5.65,-9.77,-5.66,5.67,5.61,6.11,-4.10,-4.11,-4.12
30.99,-9.62,-5.50,-9.62,-5.50,5.53,5.53,6.12,-4.10,-4.09,-4.12
31.30,-9.46,-5.35,-9.46,-5.35,5.37,5.45,6.11,-4.10,-4.10,-4.11
31.61,-9.30,-5.19,-9.30,-5.18,5.19,5.36,6.09,-4.11,-4.11,-4.11
31.93,-9.13,-5.02,-9.12,-5.01,5.01,5.27,6.06,-4.12,-4.11,-4.11
32.24,-8.94,-4.83,-8.94,-4.83,4.83,5.17,6.01,-4.11,-4.11,-4.11
32.57,-8.76,-4.65,-8.76,-4.65,4.66,5.07,5.96,-4.10,-4.11,-4.11
32.89,-8.59,-4.48,-8.58,-4.48,4.49,4.95,5.89,-4.10,-4.10,-4.11
33.22,-8.42,-4.31,-8.42,-4.31,4.32,4.83,5.82,-4.10,-4.09,-4.11
33.55,-8.25,-4.14,-8.25,-4.15,4.16,4.70,5.74,-4.09,-4.09,-4.10
33.89,-8.10,-4.00,-8.10,-4.00,4.01,4.56,5.64,-4.09,-4.09,-4.10
34.23,-7.95,-3.85,-7.96,-3.85,3.86,4.41,5.54,-4.09,-4.10,-4.10
34.57,-7.83,-3.73,-7.82,-3.72,3.71,4.26,5.43,-4.12,-4.11,-4.10
34.92,-7.68,-3.58,-7.68,-3.58,3.57,4.10,5.32,-4.11,-4.11,-4.10
35.27,-7.53,-3.43,-7.54,-3.44,3.43,3.94,5.20,-4.10,-4.11,-4.10
35.62,-7.39,-3.29,-7.38,-3.29,3.28,3.78,5.07,-4.11,-4.10,-4.10
35.97,-7.24,-3.14,-7.24,-3.14,3.14,3.62,4.94,-4.10,-4.10,-4.10
36.33,-7.09,-2.99,-7.09,-2.99,2.99,3.46,4.80,-4.09,-4.09,-4.09
36.70,-6.95,-2.86,-6.94,-2.85,2.85,3.30,4.67,-4.10,-4.09,-4.09
37.06,-6.79,-2.70,-6.80,-2.71,2.71,3.15,4.53,-4.08,-4.09,-4.09
37.43,-6.67,-2.58,-6.66,-2.57,2.58,3.00,4.39,-4.09,-4.08,-4.09
37.81,-6.53,-2.44,-6.53,-2.44,2.45,2.85,4.24,-4.08,-4.08,-4.09
38.19,-6.40,-2.31,-6.41,-2.32,2.32,2.71,4.10,-4.08,-4.08,-4.09
38.57,-6.29,-2.20,-6.29,-2.20,2.20,2.57,3.95,-4.08,-4.08,-4.09
38.95,-6.18,-2.09,-6.17,-2.09,2.09,2.44,3.81,-4.08,-4.08,-4.08
39.34,-6.07,-1.98,-6.07,-1.99,1.99,2.32,3.66,-4.08,-4.08,-4.08
39.74,-5.96,-1.88,-5.97,-1.89,1.89,2.20,3.52,-4.07,-4.08,-4.08
40.14,-5.88,-1.80,-5.87,-1.79,1.79,2.08,3.37,-4.09,-4.08,-4.08
40.54,-5.77,-1.69,-5.77,-1.69,1.69,1.97,3.23,-4.08,-4.08,-4.08
40.94,-5.66,-1.58,-5.67,-1.60,1.59,1.86,3.09,-4.07,-4.08,-4.08
41.35,-5.58,-1.50,-5.57,-1.50,1.49,1.76,2.94,-4.09,-4.08,-4.08
41.76,-5.49,-1.41,-5.48,-1.41,1.39,1.66,2.80,-4.10,-4.09,-4.07
42.18,-5.38,-1.30,-5.38,-1.31,1.29,1.57,2.66,-4.08,-4.09,-4.07
42.60,-5.27,-1.20,-5.26,-1.19,1.20,1.47,2.53,-4.07,-4.07,-4.07
43.03,-5.16,-1.09,-5.16,-1.09,1.10,1.39,2.39,-4.06,-4.06,-4.07
43.46,-5.05,-0.98,-5.06,-0.99,1.01,1.30,2.25,-4.04,-4.05,-4.07
43.90,-4.99,-0.92,-4.97,-0.90,0.92,1.22,2.12,-4.07,-4.05,-4.07
44.33,-4.89,-0.82,-4.90,-0.83,0.83,1.14,1.99,-4.05,-4.07,-4.07
44.78,-4.82,-0.75,-4.83,-0.76,0.75,1.06,1.86,-4.07,-4.08,-4.06
45.23,-4.76,-0.70,-4.74,-0.67,0.66,0.99,1.73,-4.10,-4.08,-4.06
45.68,-4.65,-0.59,-4.65,-0.59,0.57,0.92,1.60,-4.08,-4.08,-4.06
46.13,-4.54,-0.48,-4.55,-0.49,0.48,0.85,1.47,-4.05,-4.07,-4.06
46.60,-4.46,-0.40,-4.45,-0.39,0.40,0.78,1.34,-4.06,-4.06,-4.06
47.06,-4.37,-0.31,-4.36,-0.30,0.31,0.72,1.22,-4.06,-4.05,-4.06
47.53,-4.26,-0.20,-4.27,-0.21,0.22,0.65,1.10,-4.04,-4.05,-4.06
48.01,-4.19,-0.13,-4.18,-0.13,0.14,0.59,0.98,-4.05,-4.04,-4.06
48.49,-4.10,-0.05,-4.11,-0.05,0.06,0.53,0.86,-4.04,-4.04,-4.05
48.97,-4.04,0.01,-4.04,0.01,-0.01,0.47,0.74,-4.05,-4.05,-4.05
49.46,-3.98,0.07,-3.97,0.08,-0.08,0.42,0.62,-4.06,-4.05,-4.05
49.96,-3.91,0.14,-3.92,0.13,-0.15,0.36,0.51,-4.06,-4.06,-4.05
50.46,-3.86,0.19,-3.86,0.19,-0.21,0.31,0.39,-4.07,-4.06,-4.05
50.96,-3.80,0.25,-3.79,0.25,-0.26,0.26,0.28,-4.06,-4.06,-4.05
51.47,-3.74,0.31,-3.73,0.31,-0.31,0.21,0.17,-4.05,-4.04,-4.05
51.99,-3.67,0.37,-3.68,0.36,-0.35,0.16,0.06,-4.02,-4.03,-4.04
52.51,-3.64,0.40,-3.64,0.40,-0.38,0.11,-0.04,-4.01,-4.02,-4.04
53.03,-3.64,0.40,-3.63,0.41,-0.40,0.06,-0.15,-4.04,-4.03,-4.04
53.56,-3.62,0.42,-3.63,0.41,-0.41,0.01,-0.25,-4.03,-4.04,-4.04
54.10,-3.64,0.40,-3.63,0.41,-0.42,-0.03,-0.34,-4.06,-4.05,-4.04
54.64,-3.64,0.40,-3.64,0.40,-0.42,-0.08,-0.44,-4.06,-4.05,-4.04
55.18,-3.64,0.40,-3.64,0.40,-0.41,-0.12,-0.53,-4.05,-4.05,-4.04
55.74,-3.64,0.40,-3.63,0.40,-0.40,-0.16,-0.62,-4.04,-4.03,-4.03
56.29,-3.64,0.39,-3.64,0.39,-0.38,-0.21,-0.70,-4.02,-4.02,-4.03
56.86,-3.64,0.39,-3.65,0.38,-0.36,-0.25,-0.78,-4.00,-4.02,-4.03
57.42,-3.69,0.34,-3.68,0.35,-0.34,-0.29,-0.86,-4.03,-4.02,-4.03
58.00,-3.71,0.32,-3.71,0.32,-0.32,-0.32,-0.93,-4.03,-4.03,-4.03
58.58,-3.74,0.29,-3.74,0.29,-0.30,-0.36,-1.00,-4.04,-4.04,-4.03
59.16,-3.75,0.28,-3.76,0.27,-0.28,-0.40,-1.06,-4.03,-4.04,-4.03
59.76,-3.78,0.25,-3.77,0.25,-0.26,-0.43,-1.12,-4.04,-4.03,-4.02
60.35,-3.78,0.24,-3.78,0.25,-0.25,-0.47,-1.17,-4.03,-4.03,-4.02
60.96,-3.78,0.24,-3.78,0.24,-0.24,-0.50,-1.22,-4.02,-4.02,-4.02
61.57,-3.78,0.24,-3.78,0.24,-0.24,-0.54,-1.27,-4.02,-4.02,-4.02
62.18,-3.78,0.24,-3.78,0.24,-0.24,-0.57,-1.30,-4.02,-4.02,-4.02
62.80,-3.78,0.24,-3.77,0.25,-0.24,-0.60,-1.34,-4.02,-4.02,-4.02
63.43,-3.76,0.26,-3.76,0.26,-0.25,-0.63,-1.36,-4.01,-4.01,-4.02
64.07,-3.74,0.28,-3.75,0.26,-0.26,-0.65,-1.38,-4.00,-4.01,-4.02
64.71,-3.74,0.28,-3.74,0.28,-0.27,-0.68,-1.40,-4.01,-4.01,-4.01
65.35,-3.74,0.27,-3.72,0.29,-0.29,-0.71,-1.41,-4.03,-4.01,-4.01
66.01,-3.69,0.32,-3.70,0.31,-0.31,-0.73,-1.42,-4.00,-4.01,-4.01
66.67,-3.69,0.32,-3.68,0.33,-0.33,-0.76,-1.42,-4.02,-4.01,-4.01
67.33,-3.64,0.37,-3.65,0.36,-0.36,-0.78,-1.42,-4.00,-4.01,-4.01
68.01,-3.62,0.39,-3.62,0.39,-0.39,-0.80,-1.42,-4.01,-4.01,-4.01
68.69,-3.57,0.44,-3.57,0.44,-0.44,-0.82,-1.41,-4.00,-4.01,-4.01
69.37,-3.53,0.48,-3.52,0.48,-0.49,-0.84,-1.39,-4.01,-4.01,-4.00
70.07,-3.46,0.54,-3.47,0.54,-0.54,-0.86,-1.38,-4.00,-4.01,-4.00
70.77,-3.40,0.60,-3.40,0.60,-0.61,-0.87,-1.36,-4.01,-4.01,-4.00
71.48,-3.33,0.67,-3.32,0.68,-0.69,-0.89,-1.34,-4.01,-4.01,-4.00
72.19,-3.23,0.77,-3.24,0.76,-0.77,-0.90,-1.31,-3.99,-4.01,-4.00
72.91,-3.16,0.84,-3.15,0.85,-0.85,-0.91,-1.29,-4.01,-4.00,-4.00
73.64,-3.06,0.94,-3.06,0.94,-0.94,-0.92,-1.26,-4.00,-4.00,-4.00
74.38,-2.97,1.03,-2.97,1.03,-1.02,-0.93,-1.23,-3.99,-3.99,-3.99
75.12,-2.88,1.11,-2.88,1.11,-1.11,-0.94,-1.20,-3.98,-3.99,-3.99
75.87,-2.80,1.19,-2.80,1.19,-1.18,-0.95,-1.17,-3.98,-3.99,-3.99
76.63,-2.74,1.25,-2.73,1.26,-1.25,-0.95,-1.13,-3.99,-3.98,-3.99
77.40,-2.68,1.31,-2.68,1.31,-1.31,-0.95,-1.10,-3.99,-3.99,-3.99
78.17,-2.63,1.36,-2.63,1.36,-1.35,-0.96,-1.07,-3.98,-3.98,-3.99
78.95,-2.60,1.39,-2.60,1.39,-1.39,-0.96,-1.03,-3.98,-3.98,-3.99
79.74,-2.57,1.42,-2.58,1.41,-1.40,-0.96,-1.00,-3.97,-3.98,-3.98
80.54,-2.57,1.41,-2.56,1.42,-1.41,-0.96,-0.97,-3.98,-3.98,-3.98
81.35,-2.57,1.41,-2.57,1.42,-1.41,-0.95,-0.93,-3.98,-3.98,-3.98
82.16,-2.57,1.41,-2.58,1.40,-1.40,-0.95,-0.90,-3.97,-3.98,-3.98
82.98,-2.60,1.38,-2.59,1.38,-1.39,-0.94,-0.87,-3.99,-3.98,-3.98
83.81,-2.62,1.36,-2.62,1.36,-1.37,-0.94,-0.83,-3.99,-3.99,-3.98
84.65,-2.65,1.33,-2.65,1.33,-1.34,-0.93,-0.80,-3.99,-3.99,-3.98
85.50,-2.67,1.31,-2.67,1.31,-1.32,-0.92,-0.77,-3.98,-3.98,-3.98
86.35,-2.69,1.29,-2.69,1.28,-1.29,-0.91,-0.74,-3.97,-3.97,-3.97
87.22,-2.71,1.26,-2.71,1.26,-1.25,-0.90,-0.71,-3.96,-3.97,-3.97
88.09,-2.75,1.22,-2.74,1.23,-1.22,-0.89,-0.68,-3.97,-3.96,-3.97
88.97,-2.78,1.19,-2.78,1.19,-1.18,-0.88,-0.65,-3.96,-3.97,-3.97
89.86,-2.83,1.14,-2.82,1.14,-1.15,-0.86,-0.62,-3.97,-3.97,-3.97
90.76,-2.87,1.10,-2.86,1.10,-1.10,-0.85,-0.59,-3.97,-3.97,-3.97
91.66,-2.90,1.07,-2.91,1.06,-1.06,-0.83,-0.57,-3.96,-3.97,-3.97
92.58,-2.95,1.02,-2.95,1.02,-1.01,-0.81,-0.54,-3.96,-3.96,-3.96
93.51,-3.00,0.96,-3.00,0.97,-0.97,-0.80,-0.51,-3.97,-3.96,-3.96
94.44,-3.04,0.92,-3.04,0.92,-0.92,-0.78,-0.49,-3.96,-3.96,-3.96
95.39,-3.09,0.87,-3.08,0.88,-0.88,-0.76,-0.46,-3.97,-3.96,-3.96
96.34,-3.12,0.84,-3.13,0.83,-0.84,-0.74,-0.44,-3.95,-3.96,-3.96
97.30,-3.18,0.78,-3.17,0.79,-0.79,-0.72,-0.42,-3.97,-3.96,-3.96
98.28,-3.21,0.75,-3.20,0.75,-0.75,-0.70,-0.39,-3.96,-3.96,-3.96
99.26,-3.24,0.72,-3.24,0.71,-0.71,-0.68,-0.37,-3.95,-3.95,-3.95
100.25,-3.27,0.68,-3.28,0.68,-0.67,-0.66,-0.35,-3.94,-3.95,-3.95
101.25,-3.33,0.62,-3.32,0.63,-0.63,-0.64,-0.33,-3.96,-3.95,-3.95
102.27,-3.36,0.59,-3.36,0.59,-0.59,-0.61,-0.31,-3.95,-3.95,-3.95
103.29,-3.41,0.54,-3.40,0.55,-0.55,-0.59,-0.29,-3.96,-3.95,-3.95
104.32,-3.44,0.51,-3.44,0.51,-0.51,-0.57,-0.27,-3.95,-3.95,-3.95
105.37,-3.47,0.48,-3.48,0.47,-0.47,-0.55,-0.25,-3.93,-3.94,-3.95
106.42,-3.53,0.42,-3.52,0.43,-0.42,-0.52,-0.23,-3.95,-3.94,-3.94
107.48,-3.56,0.38,-3.56,0.38,-0.38,-0.50,-0.21,-3.94,-3.94,-3.94
108.56,-3.61,0.33,-3.61,0.33,-0.33,-0.47,-0.19,-3.94,-3.94,-3.94
109.64,-3.65,0.29,-3.65,0.29,-0.29,-0.45,-0.18,-3.94,-3.94,-3.94
110.74,-3.70,0.24,-3.69,0.25,-0.24,-0.42,-0.16,-3.94,-3.94,-3.94
111.85,-3.73,0.21,-3.74,0.20,-0.20,-0.40,-0.14,-3.93,-3.94,-3.94
112.97,-3.78,0.16,-3.78,0.16,-0.16,-0.37,-0.13,-3.94,-3.94,-3.94
114.10,-3.82,0.12,-3.82,0.12,-0.12,-0.35,-0.11,-3.94,-3.94,-3.94
115.24,-3.85,0.09,-3.85,0.08,-0.09,-0.32,-0.10,-3.94,-3.94,-3.93
116.39,-3.88,0.05,-3.87,0.06,-0.07,-0.30,-0.08,-3.94,-3.94,-3.93
117.55,-3.89,0.04,-3.89,0.04,-0.04,-0.27,-0.07,-3.93,-3.94,-3.93
118.73,-3.91,0.02,-3.90,0.03,-0.02,-0.25,-0.05,-3.93,-3.93,-3.93
119.92,-3.92,0.01,-3.92,0.01,-0.01,-0.22,-0.04,-3.92,-3.92,-3.93
121.12,-3.92,0.01,-3.93,-0.01,0.01,-0.20,-0.03,-3.91,-3.93,-3.93
122.33,-3.96,-0.03,-3.95,-0.02,0.02,-0.17,-0.01,-3.94,-3.93,-3.93
123.55,-3.97,-0.04,-3.96,-0.03,0.04,-0.15,-0.00,-3.93,-3.92,-3.92
124.79,-3.97,-0.05,-3.97,-0.05,0.05,-0.12,0.01,-3.92,-3.92,-3.92
126.03,-3.97,-0.05,-3.98,-0.06,0.07,-0.10,0.03,-3.90,-3.91,-3.92
127.29,-4.02,-0.10,-4.00,-0.08,0.09,-0.07,0.04,-3.93,-3.92,-3.92
128.57,-4.02,-0.10,-4.03,-0.11,0.11,-0.05,0.05,-3.91,-3.92,-3.92
129.85,-4.06,-0.14,-4.05,-0.13,0.12,-0.02,0.06,-3.93,-3.92,-3.92
131.15,-4.06,-0.14,-4.06,-0.15,0.15,0.00,0.07,-3.91,-3.92,-3.92
132.46,-4.08,-0.16,-4.08,-0.17,0.17,0.03,0.08,-3.91,-3.91,-3.91
133.79,-4.11,-0.20,-4.10,-0.18,0.19,0.06,0.10,-3.92,-3.90,-3.91
135.12,-4.11,-0.20,-4.12,-0.21,0.22,0.08,0.11,-3.89,-3.91,-3.91
136.48,-4.16,-0.25,-4.15,-0.24,0.24,0.11,0.12,-3.92,-3.91,-3.91
137.84,-4.18,-0.27,-4.17,-0.27,0.26,0.13,0.13,-3.91,-3.91,-3.91
139.22,-4.20,-0.29,-4.20,-0.30,0.29,0.15,0.14,-3.91,-3.92,-3.91
140.61,-4.22,-0.31,-4.22,-0.32,0.31,0.18,0.15,-3.91,-3.91,-3.91
142.02,-4.25,-0.34,-4.23,-0.33,0.33,0.20,0.16,-3.92,-3.90,-3.90
143.44,-4.25,-0.35,-4.25,-0.35,0.35,0.23,0.17,-3.90,-3.90,-3.90
144.87,-4.25,-0.35,-4.27,-0.36,0.37,0.25,0.19,-3.88,-3.90,-3.90
146.32,-4.30,-0.40,-4.28,-0.38,0.38,0.28,0.20,-3.91,-3.90,-3.90
147.78,-4.30,-0.40,-4.30,-0.40,0.40,0.30,0.21,-3.90,-3.90,-3.90
149.26,-4.32,-0.42,-4.32,-0.42,0.42,0.32,0.22,-3.90,-3.90,-3.90
150.75,-4.34,-0.44,-4.33,-0.43,0.43,0.35,0.23,-3.90,-3.89,-3.90
152.26,-4.34,-0.44,-4.35,-0.45,0.45,0.37,0.24,-3.89,-3.90,-3.90
153.78,-4.36,-0.46,-4.36,-0.47,0.47,0.39,0.25,-3.89,-3.89,-3.89
155.32,-4.39,-0.50,-4.38,-0.48,0.49,0.42,0.27,-3.90,-3.89,-3.89
156.88,-4.39,-0.50,-4.40,-0.51,0.51,0.44,0.28,-3.88,-3.89,-3.89
158.44,-4.41,-0.52,-4.41,-0.52,0.52,0.46,0.29,-3.89,-3.89,-3.89
160.03,-4.44,-0.55,-4.43,-0.54,0.54,0.48,0.30,-3.90,-3.89,-3.89
161.63,-4.44,-0.55,-4.45,-0.56,0.55,0.51,0.32,-3.88,-3.89,-3.89
163.24,-4.46,-0.57,-4.46,-0.58,0.57,0.53,0.33,-3.89,-3.89,-3.89
164.88,-4.48,-0.59,-4.47,-0.59,0.58,0.55,0.34,-3.90,-3.89,-3.88
166.53,-4.48,-0.60,-4.48,-0.59,0.59,0.57,0.36,-3.88,-3.88,-3.88
168.19,-4.48,-0.60,-4.48,-0.60,0.61,0.59,0.37,-3.87,-3.87,-3.88
169.87,-4.48,-0.60,-4.49,-0.61,0.62,0.61,0.39,-3.86,-3.87,-3.88
171.57,-4.51,-0.63,-4.51,-0.63,0.63,0.63,0.40,-3.88,-3.88,-3.88
173.29,-4.53,-0.65,-4.52,-0.64,0.64,0.65,0.42,-3.89,-3.88,-3.88
175.02,-4.53,-0.65,-4.53,-0.65,0.65,0.67,0.43,-3.88,-3.88,-3.88
176.77,-4.53,-0.65,-4.53,-0.66,0.66,0.69,0.45,-3.87,-3.87,-3.87
178.54,-4.53,-0.66,-4.54,-0.67,0.67,0.71,0.46,-3.86,-3.87,-3.87
180.32,-4.57,-0.70,-4.56,-0.69,0.68,0.72,0.48,-3.88,-3.87,-3.87
182.13,-4.58,-0.71,-4.57,-0.70,0.69,0.74,0.50,-3.88,-3.88,-3.87
183.95,-4.58,-0.71,-4.58,-0.71,0.71,0.76,0.51,-3.87,-3.87,-3.87
185.79,-4.58,-0.71,-4.58,-0.71,0.72,0.78,0.53,-3.86,-3.86,-3.87
187.65,-4.58,-0.71,-4.59,-0.73,0.73,0.79,0.55,-3.85,-3.86,-3.87
189.52,-4.62,-0.75,-4.60,-0.74,0.75,0.81,0.57,-3.87,-3.86,-3.87
191.42,-4.62,-0.75,-4.62,-0.75,0.76,0.82,0.59,-3.86,-3.86,-3.86
193.33,-4.62,-0.76,-4.64,-0.77,0.77,0.84,0.61,-3.85,-3.86,-3.86
195.27,-4.66,-0.80,-4.65,-0.79,0.78,0.85,0.63,-3.87,-3.86,-3.86
197.22,-4.67,-0.81,-4.66,-0.80,0.80,0.86,0.64,-3.87,-3.87,-3.86
199.19,-4.67,-0.81,-4.67,-0.81,0.80,0.87,0.66,-3.86,-3.87,-3.86
201.18,-4.67,-0.81,-4.67,-0.81,0.81,0.89,0.68,-3.86,-3.86,-3.86
203.19,-4.67,-0.81,-4.67,-0.81,0.82,0.90,0.70,-3.85,-3.85,-3.86
205.23,-4.67,-0.81,-4.67,-0.81,0.82,0.91,0.72,-3.85,-3.85,-3.85
207.28,-4.67,-0.82,-4.67,-0.82,0.82,0.92,0.74,-3.85,-3.85,-3.85
209.35,-4.67,-0.82,-4.67,-0.82,0.82,0.93,0.76,-3.85,-3.85,-3.85
211.44,-4.67,-0.82,-4.67,-0.82,0.82,0.93,0.78,-3.85,-3.85,-3.85
213.56,-4.67,-0.82,-4.67,-0.82,0.82,0.94,0.80,-3.85,-3.85,-3.85
215.69,-4.67,-0.82,-4.67,-0.82,0.82,0.95,0.82,-3.85,-3.85,-3.85
217.85,-4.67,-0.82,-4.67,-0.82,0.82,0.95,0.84,-3.85,-3.85,-3.85
220.03,-4.67,-0.82,-4.67,-0.82,0.82,0.96,0.85,-3.85,-3.85,-3.84
222.23,-4.67,-0.83,-4.67,-0.83,0.82,0.96,0.87,-3.84,-3.84,-3.84
224.45,-4.67,-0.83,-4.67,-0.83,0.83,0.97,0.89,-3.84,-3.84,-3.84
226.70,-4.67,-0.83,-4.67,-0.83,0.84,0.97,0.90,-3.83,-3.83,-3.84
228.96,-4.67,-0.83,-4.67,-0.83,0.84,0.97,0.92,-3.82,-3.83,-3.84
231.25,-4.68,-0.84,-4.69,-0.85,0.85,0.98,0.93,-3.83,-3.83,-3.84
233.57,-4.71,-0.87,-4.70,-0.87,0.86,0.98,0.94,-3.85,-3.84,-3.84
235.90,-4.72,-0.88,-4.71,-0.88,0.87,0.98,0.96,-3.85,-3.84,-3.83
238.26,-4.72,-0.89,-4.72,-0.89,0.88,0.98,0.97,-3.84,-3.84,-3.83
240.64,-4.72,-0.89,-4.72,-0.89,0.88,0.97,0.98,-3.83,-3.83,-3.83
243.05,-4.72,-0.89,-4.72,-0.89,0.89,0.97,0.98,-3.83,-3.83,-3.83
245.48,-4.72,-0.89,-4.72,-0.89,0.89,0.97,0.99,-3.83,-3.83,-3.83
247.93,-4.72,-0.89,-4.72,-0.89,0.89,0.97,0.99,-3.83,-3.83,-3.83
250.41,-4.72,-0.89,-4.72,-0.89,0.89,0.96,1.00,-3.83,-3.83,-3.83
252.92,-4.72,-0.89,-4.72,-0.89,0.89,0.96,1.00,-3.82,-3.82,-3.83
255.45,-4.72,-0.89,-4.72,-0.89,0.89,0.95,1.00,-3.82,-3.82,-3.82
258.00,-4.72,-0.90,-4.72,-0.90,0.90,0.95,1.00,-3.82,-3.82,-3.82
260.58,-4.72,-0.90,-4.72,-0.90,0.90,0.94,1.00,-3.82,-3.82,-3.82
263.19,-4.72,-0.90,-4.72,-0.90,0.90,0.94,0.99,-3.82,-3.82,-3.82
265.82,-4.72,-0.90,-4.72,-0.90,0.90,0.93,0.99,-3.82,-3.82,-3.82
268.48,-4.72,-0.90,-4.72,-0.90,0.90,0.92,0.98,-3.82,-3.82,-3.82
271.16,-4.72,-0.90,-4.72,-0.90,0.90,0.91,0.97,-3.82,-3.82,-3.82
273.87,-4.72,-0.90,-4.72,-0.90,0.91,0.90,0.97,-3.81,-3.81,-3.81
276.61,-4.72,-0.91,-4.72,-0.91,0.91,0.89,0.96,-3.81,-3.81,-3.81
279.38,-4.72,-0.91,-4.72,-0.91,0.91,0.88,0.95,-3.81,-3.81,-3.81
282.17,-4.72,-0.91,-4.72,-0.91,0.91,0.87,0.94,-3.81,-3.81,-3.81
284.99,-4.72,-0.91,-4.72,-0.91,0.91,0.86,0.93,-3.81,-3.81,-3.81
287.84,-4.72,-0.91,-4.72,-0.92,0.91,0.85,0.91,-3.81,-3.82,-3.81
290.72,-4.72,-0.91,-4.72,-0.91,0.90,0.84,0.90,-3.82,-3.82,-3.81
293.63,-4.72,-0.91,-4.70,-0.90,0.90,0.83,0.89,-3.82,-3.81,-3.80
296.57,-4.68,-0.88,-4.69,-0.89,0.89,0.82,0.88,-3.79,-3.80,-3.80
299.53,-4.67,-0.87,-4.67,-0.87,0.88,0.80,0.87,-3.79,-3.79,-3.80
302.53,-4.67,-0.87,-4.67,-0.87,0.87,0.79,0.85,-3.80,-3.80,-3.80
305.55,-4.67,-0.87,-4.67,-0.87,0.86,0.78,0.84,-3.81,-3.80,-3.80
308.61,-4.67,-0.87,-4.66,-0.86,0.85,0.77,0.83,-3.81,-3.80,-3.80
311.69,-4.64,-0.84,-4.64,-0.85,0.85,0.75,0.82,-3.79,-3.80,-3.80
314.81,-4.62,-0.82,-4.63,-0.83,0.84,0.74,0.81,-3.78,-3.79,-3.79
317.96,-4.62,-0.83,-4.62,-0.83,0.83,0.73,0.80,-3.79,-3.79,-3.79
321.14,-4.62,-0.83,-4.61,-0.82,0.82,0.71,0.79,-3.80,-3.79,-3.79
324.35,-4.62,-0.83,-4.61,-0.81,0.81,0.70,0.77,-3.81,-3.79,-3.79
327.59,-4.58,-0.79,-4.59,-0.80,0.80,0.68,0.77,-3.78,-3.79,-3.79
330.87,-4.58,-0.79,-4.59,-0.80,0.79,0.67,0.76,-3.78,-3.79,-3.79
334.18,-4.58,-0.79,-4.57,-0.79,0.79,0.66,0.75,-3.79,-3.79,-3.79
337.52,-4.58,-0.79,-4.56,-0.78,0.78,0.64,0.74,-3.80,-3.79,-3.79
340.90,-4.53,-0.74,-4.55,-0.76,0.76,0.63,0.73,-3.77,-3.78,-3.78
344.30,-4.53,-0.75,-4.53,-0.75,0.75,0.61,0.73,-3.78,-3.78,-3.78
347.75,-4.53,-0.75,-4.52,-0.74,0.74,0.60,0.72,-3.79,-3.78,-3.78
351.23,-4.52,-0.74,-4.51,-0.73,0.73,0.58,0.71,-3.79,-3.78,-3.78
354.74,-4.48,-0.70,-4.50,-0.72,0.72,0.57,0.71,-3.76,-3.78,-3.78
358.28,-4.48,-0.70,-4.48,-0.70,0.71,0.55,0.71,-3.77,-3.77,-3.78
361.87,-4.48,-0.70,-4.46,-0.69,0.69,0.54,0.70,-3.79,-3.77,-3.78
365.49,-4.45,-0.67,-4.46,-0.69,0.68,0.52,0.70,-3.77,-3.78,-3.77
369.14,-4.44,-0.67,-4.44,-0.67,0.67,0.51,0.70,-3.77,-3.78,-3.77
372.83,-4.44,-0.67,-4.42,-0.65,0.65,0.49,0.69,-3.79,-3.77,-3.77
376.56,-4.39,-0.62,-4.41,-0.64,0.64,0.48,0.69,-3.75,-3.77,-3.77
380.33,-4.39,-0.62,-4.39,-0.62,0.62,0.46,0.69,-3.77,-3.77,-3.77
384.13,-4.38,-0.61,-4.37,-0.60,0.60,0.45,0.69,-3.78,-3.77,-3.77
387.97,-4.34,-0.57,-4.35,-0.58,0.58,0.43,0.69,-3.76,-3.77,-3.77
391.85,-4.34,-0.57,-4.33,-0.57,0.56,0.42,0.69,-3.78,-3.77,-3.76
395.77,-4.30,-0.54,-4.31,-0.54,0.54,0.40,0.69,-3.75,-3.76,-3.76
399.73,-4.30,-0.54,-4.29,-0.53,0.52,0.39,0.69,-3.77,-3.76,-3.76
403.72,-4.25,-0.49,-4.26,-0.50,0.50,0.37,0.69,-3.75,-3.76,-3.76
407.76,-4.25,-0.49,-4.24,-0.48,0.48,0.36,0.69,-3.77,-3.76,-3.76
411.84,-4.21,-0.45,-4.21,-0.46,0.46,0.34,0.70,-3.75,-3.75,-3.76
415.96,-4.20,-0.44,-4.20,-0.44,0.44,0.33,0.70,-3.76,-3.76,-3.76
420.12,-4.17,-0.41,-4.17,-0.41,0.41,0.31,0.70,-3.75,-3.75,-3.75
424.32,-4.16,-0.41,-4.15,-0.40,0.39,0.30,0.70,-3.76,-3.76,-3.75
428.56,-4.11,-0.36,-4.12,-0.37,0.37,0.28,0.69,-3.74,-3.75,-3.75
