frequency,raw,error,smoothed,error_smoothed,equalization,parametric_eq,fixed_band_eq,equalized_raw,equalized_smoothed,target
20.00,-23.48,-22.30,-23.47,-22.30,6.00,6.09,2.78,-17.48,-17.47,-1.17
20.20,-23.34,-22.20,-23.34,-22.20,6.00,6.09,2.86,-17.34,-17.34,-1.13
20.40,-23.19,-22.09,-23.20,-22.10,6.00,6.09,2.94,-17.19,-17.20,-1.10
20.61,-23.06,-21.98,-23.06,-21.99,6.00,6.09,3.03,-17.06,-17.06,-1.07
20.81,-22.92,-21.88,-22.92,-21.88,6.00,6.09,3.11,-16.92,-16.92,-1.04
21.02,-22.79,-21.77,-22.78,-21.77,6.00,6.08,3.20,-16.79,-16.78,-1.01
21.23,-22.64,-21.64,-22.64,-21.64,6.00,6.08,3.29,-16.64,-16.64,-1.00
21.44,-22.48,-21.50,-22.49,-21.50,6.00,6.08,3.39,-16.48,-16.49,-0.99
21.66,-22.34,-21.36,-22.34,-21.36,6.00,6.08,3.48,-16.34,-16.34,-0.98
21.87,-22.18,-21.22,-22.18,-21.22,6.00,6.08,3.58,-16.18,-16.18,-0.97
22.09,-22.02,-21.07,-22.03,-21.07,6.00,6.08,3.68,-16.02,-16.03,-0.96
22.31,-21.86,-20.92,-21.87,-20.92,6.00,6.08,3.79,-15.86,-15.87,-0.95
22.54,-21.72,-20.77,-21.71,-20.76,6.00,6.08,3.89,-15.72,-15.71,-0.95
22.76,-21.55,-20.61,-21.56,-20.61,6.00,6.08,4.00,-15.55,-15.56,-0.95
22.99,-21.40,-20.45,-21.40,-20.45,6.00,6.08,4.11,-15.40,-15.40,-0.95
23.22,-21.24,-20.30,-21.24,-20.30,6.00,6.08,4.23,-15.24,-15.24,-0.94
23.45,-21.08,-20.14,-21.08,-20.14,6.00,6.08,4.34,-15.08,-15.08,-0.94
23.69,-20.93,-20.00,-20.92,-19.99,6.00,6.08,4.47,-14.93,-14.92,-0.93
23.92,-20.76,-19.83,-20.77,-19.84,6.00,6.08,4.59,-14.76,-14.77,-0.93
24.16,-20.61,-19.69,-20.62,-19.69,6.00,6.08,4.71,-14.61,-14.62,-0.92
24.40,-20.46,-19.54,-20.46,-19.54,6.00,6.08,4.84,-14.46,-14.46,-0.92
24.65,-20.32,-19.39,-20.31,-19.39,6.00,6.08,4.97,-14.32,-14.31,-0.93
24.89,-20.15,-19.22,-20.16,-19.23,6.00,6.08,5.10,-14.15,-14.16,-0.93
25.14,-20.01,-19.08,-20.01,-19.08,6.00,6.08,5.23,-14.01,-14.01,-0.93
25.39,-19.86,-18.92,-19.87,-18.93,6.00,6.08,5.36,-13.86,-13.87,-0.94
25.65,-19.73,-18.78,-19.73,-18.78,6.00,6.08,5.50,-13.73,-13.73,-0.94
25.91,-19.58,-18.62,-19.57,-18.61,6.00,6.08,5.63,-13.58,-13.57,-0.96
26.16,-19.39,-18.43,-19.39,-18.43,6.00,6.07,5.77,-13.39,-13.39,-0.97
26.43,-19.20,-18.23,-19.20,-18.23,6.00,6.07,5.90,-13.20,-13.20,-0.97
26.69,-19.00,-18.02,-18.99,-18.02,6.00,6.07,6.03,-13.00,-12.99,-0.98
26.96,-18.79,-17.81,-18.81,-17.83,6.00,6.07,6.17,-12.79,-12.81,-0.98
27.23,-18.64,-17.65,-18.64,-17.65,6.00,6.07,6.29,-12.64,-12.64,-0.99
27.50,-18.50,-17.51,-18.49,-17.49,6.00,6.07,6.42,-12.50,-12.49,-0.99
27.77,-18.35,-17.34,-18.35,-17.35,6.00,6.07,6.54,-12.35,-12.35,-1.01
28.05,-18.22,-17.20,-18.22,-17.20,6.00,6.07,6.66,-12.22,-12.22,-1.01
28.33,-18.09,-17.06,-18.09,-17.07,6.00,6.07,6.78,-12.09,-12.09,-1.02
28.62,-17.96,-16.92,-17.96,-16.93,6.00,6.07,6.89,-11.96,-11.96,-1.03
28.90,-17.83,-16.79,-17.82,-16.78,6.00,6.07,6.99,-11.83,-11.82,-1.03
29.19,-17.66,-16.61,-17.65,-16.61,6.00,6.07,7.08,-11.66,-11.65,-1.05
29.48,-17.46,-16.43,-17.47,-16.42,6.00,6.07,7.17,-11.46,-11.47,-1.04
29.78,-17.28,-16.23,-17.28,-16.23,6.00,6.07,7.25,-11.28,-11.28,-1.05
30.08,-17.10,-16.04,-17.11,-16.05,6.00,6.06,7.31,-11.10,-11.11,-1.06
30.38,-16.97,-15.90,-16.97,-15.91,6.00,6.06,7.37,-10.97,-10.97,-1.07
30.68,-16.85,-15.77,-16.85,-15.77,6.00,6.06,7.42,-10.85,-10.85,-1.07
30.99,-16.73,-15.64,-16.71,-15.63,6.00,6.06,7.46,-10.73,-10.71,-1.08
31.30,-16.54,-15.45,-16.54,-15.46,6.00,6.06,7.48,-10.54,-10.54,-1.08
31.61,-16.35,-15.26,-16.35,-15.26,6.00,6.06,7.50,-10.35,-10.35,-1.09
31.93,-16.15,-15.05,-16.15,-15.05,6.00,6.06,7.50,-10.15,-10.15,-1.10
32.24,-15.96,-14.84,-15.96,-14.85,6.00,6.06,7.50,-9.96,-9.96,-1.12
32.57,-15.78,-14.66,-15.77,-14.66,6.00,6.06,7.48,-9.78,-9.77,-1.12
32.89,-15.58,-14.47,-15.59,-14.47,6.00,6.05,7.46,-9.58,-9.59,-1.11
33.22,-15.42,-14.29,-15.42,-14.29,6.00,6.05,7.42,-9.42,-9.42,-1.12
33.55,-15.25,-14.13,-15.25,-14.12,6.00,6.05,7.38,-9.25,-9.25,-1.13
33.89,-15.10,-13.96,-15.10,-13.97,6.00,6.05,7.33,-9.10,-9.10,-1.14
34.23,-14.96,-13.82,-14.96,-13.82,6.00,6.05,7.27,-8.96,-8.96,-1.14
34.57,-14.83,-13.67,-14.82,-13.68,6.00,6.05,7.21,-8.83,-8.82,-1.15
34.92,-14.69,-13.53,-14.68,-13.53,6.00,6.05,7.14,-8.69,-8.68,-1.15
35.27,-14.52,-13.36,-14.52,-13.36,6.00,6.05,7.07,-8.52,-8.52,-1.16
35.62,-14.34,-13.17,-14.34,-13.17,6.00,6.04,6.99,-8.34,-8.34,-1.17
35.97,-14.15,-12.98,-14.16,-12.99,6.00,6.04,6.92,-8.15,-8.16,-1.17
36.33,-13.98,-12.81,-13.99,-12.81,6.00,6.04,6.84,-7.98,-7.99,-1.17
36.70,-13.83,-12.64,-13.82,-12.64,6.00,6.04,6.75,-7.83,-7.82,-1.19
37.06,-13.65,-12.46,-13.65,-12.45,6.00,6.04,6.67,-7.65,-7.65,-1.20
37.43,-13.46,-12.26,-13.46,-12.26,6.00,6.04,6.59,-7.46,-7.46,-1.20
37.81,-13.28,-12.06,-13.28,-12.07,6.00,6.03,6.51,-7.28,-7.28,-1.21
38.19,-13.10,-11.87,-13.10,-11.88,6.00,6.03,6.43,-7.10,-7.10,-1.23
38.57,-12.95,-11.72,-12.94,-11.70,6.00,6.03,6.35,-6.95,-6.94,-1.23
38.95,-12.78,-11.54,-12.80,-11.56,6.00,6.03,6.27,-6.78,-6.80,-1.24
39.34,-12.69,-11.43,-12.70,-11.44,6.00,6.03,6.20,-6.69,-6.70,-1.26
39.74,-12.61,-11.34,-12.59,-11.33,6.00,6.02,6.13,-6.61,-6.59,-1.27
40.14,-12.49,-11.22,-12.46,-11.19,6.00,6.02,6.06,-6.49,-6.46,-1.26
40.54,-12.30,-11.02,-12.30,-11.03,6.00,6.02,5.99,-6.30,-6.30,-1.28
40.94,-12.12,-10.84,-12.14,-10.86,6.00,6.02,5.93,-6.12,-6.14,-1.28
41.35,-12.01,-10.71,-12.00,-10.71,6.00,6.02,5.87,-6.01,-6.00,-1.29
41.76,-11.91,-10.61,-11.90,-10.60,6.00,6.01,5.81,-5.91,-5.90,-1.30
42.18,-11.82,-10.50,-11.82,-10.51,6.00,6.01,5.76,-5.82,-5.82,-1.31
42.60,-11.72,-10.39,-11.72,-10.39,6.00,6.01,5.71,-5.72,-5.72,-1.33
43.03,-11.62,-10.28,-11.58,-10.24,6.00,6.01,5.67,-5.62,-5.58,-1.34
43.46,-11.42,-10.05,-11.42,-10.05,6.00,6.00,5.63,-5.42,-5.42,-1.37
43.90,-11.23,-9.83,-11.25,-9.86,6.00,6.00,5.60,-5.23,-5.25,-1.40
44.33,-11.10,-9.67,-11.10,-9.68,6.00,6.00,5.57,-5.10,-5.10,-1.43
44.78,-11.00,-9.55,-10.99,-9.53,6.00,5.99,5.54,-5.00,-4.99,-1.45
45.23,-10.90,-9.42,-10.88,-9.40,6.00,5.99,5.52,-4.90,-4.88,-1.48
45.68,-10.79,-9.29,-10.80,-9.30,6.00,5.99,5.50,-4.79,-4.80,-1.50
46.13,-10.72,-9.20,-10.75,-9.23,6.00,5.99,5.48,-4.72,-4.75,-1.52
46.60,-10.72,-9.19,-10.71,-9.18,6.00,5.98,5.47,-4.72,-4.71,-1.52
47.06,-10.70,-9.16,-10.67,-9.13,6.00,5.98,5.47,-4.70,-4.67,-1.54
47.53,-10.58,-9.02,-10.58,-9.04,6.00,5.98,5.46,-4.58,-4.58,-1.56
48.01,-10.45,-8.89,-10.44,-8.88,6.00,5.97,5.47,-4.45,-4.44,-1.55
48.49,-10.25,-8.69,-10.25,-8.69,6.00,5.97,5.47,-4.25,-4.25,-1.56
48.97,-10.05,-8.47,-10.03,-8.46,6.00,5.96,5.48,-4.05,-4.03,-1.58
49.46,-9.84,-8.25,-9.82,-8.24,6.00,5.96,5.49,-3.84,-3.82,-1.58
49.96,-9.62,-8.04,-9.67,-8.10,6.00,5.96,5.50,-3.62,-3.67,-1.58
50.46,-9.59,-8.02,-9.59,-8.01,6.00,5.95,5.52,-3.59,-3.59,-1.57
50.96,-9.58,-8.01,-9.54,-7.96,6.00,5.95,5.54,-3.58,-3.54,-1.57
51.47,-9.53,-7.95,-9.52,-7.95,6.00,5.94,5.56,-3.53,-3.52,-1.58
51.99,-9.48,-7.89,-9.52,-7.94,6.00,5.94,5.59,-3.48,-3.52,-1.58
52.51,-9.53,-7.94,-9.52,-7.93,6.00,5.94,5.62,-3.53,-3.52,-1.58
53.03,-9.57,-7.96,-9.50,-7.90,6.00,5.93,5.64,-3.57,-3.50,-1.60
53.56,-9.45,-7.82,-9.45,-7.83,6.00,5.93,5.67,-3.45,-3.45,-1.62
54.10,-9.35,-7.70,-9.38,-7.73,6.00,5.92,5.70,-3.35,-3.38,-1.64
54.64,-9.35,-7.67,-9.35,-7.68,6.00,5.92,5.73,-3.35,-3.35,-1.67
55.18,-9.39,-7.68,-9.41,-7.71,6.00,5.91,5.76,-3.39,-3.41,-1.70
55.74,-9.52,-7.78,-9.50,-7.77,6.00,5.91,5.79,-3.52,-3.50,-1.74
56.29,-9.58,-7.82,-9.56,-7.80,6.00,5.90,5.82,-3.58,-3.56,-1.76
56.86,-9.58,-7.79,-9.55,-7.75,6.00,5.90,5.85,-3.58,-3.55,-1.79
57.42,-9.48,-7.64,-9.48,-7.65,6.00,5.89,5.88,-3.48,-3.48,-1.83
58.00,-9.35,-7.48,-9.40,-7.54,6.00,5.89,5.90,-3.35,-3.40,-1.86
58.58,-9.35,-7.45,-9.34,-7.44,6.00,5.88,5.92,-3.35,-3.34,-1.90
59.16,-9.31,-7.39,-9.27,-7.35,6.00,5.88,5.94,-3.31,-3.27,-1.92
59.76,-9.18,-7.22,-9.17,-7.22,6.00,5.87,5.96,-3.18,-3.17,-1.95
60.35,-9.05,-7.05,-9.05,-7.05,6.00,5.87,5.98,-3.05,-3.05,-2.00
60.96,-8.91,-6.87,-8.96,-6.92,6.00,5.86,5.99,-2.91,-2.96,-2.03
61.57,-8.90,-6.81,-8.88,-6.80,6.00,5.86,5.99,-2.90,-2.88,-2.09
62.18,-8.86,-6.73,-8.81,-6.69,6.00,5.85,6.00,-2.86,-2.81,-2.12
62.80,-8.71,-6.55,-8.73,-6.57,6.00,5.85,6.00,-2.70,-2.73,-2.16
63.43,-8.63,-6.42,-8.63,-6.43,6.01,5.84,5.99,-2.62,-2.62,-2.21
64.07,-8.56,-6.32,-8.54,-6.31,6.01,5.84,5.98,-2.54,-2.53,-2.23
64.71,-8.48,-6.21,-8.49,-6.22,6.01,5.83,5.97,-2.47,-2.47,-2.27
65.35,-8.44,-6.14,-8.45,-6.15,6.00,5.83,5.96,-2.44,-2.46,-2.30
66.01,-8.44,-6.10,-8.44,-6.11,5.97,5.82,5.94,-2.46,-2.47,-2.34
66.67,-8.44,-6.08,-8.40,-6.04,5.95,5.82,5.92,-2.49,-2.46,-2.36
67.33,-8.37,-5.98,-8.34,-5.96,5.91,5.81,5.90,-2.45,-2.43,-2.39
68.01,-8.22,-5.81,-8.27,-5.86,5.88,5.81,5.87,-2.34,-2.39,-2.41
68.69,-8.22,-5.79,-8.22,-5.79,5.84,5.80,5.84,-2.38,-2.38,-2.43
69.37,-8.22,-5.77,-8.20,-5.75,5.80,5.80,5.81,-2.42,-2.40,-2.45
70.07,-8.22,-5.75,-8.22,-5.75,5.76,5.79,5.78,-2.45,-2.45,-2.47
70.77,-8.22,-5.73,-8.22,-5.73,5.73,5.79,5.75,-2.49,-2.49,-2.48
71.48,-8.22,-5.72,-8.22,-5.72,5.70,5.78,5.72,-2.51,-2.51,-2.49
72.19,-8.22,-5.70,-8.22,-5.70,5.68,5.78,5.69,-2.53,-2.53,-2.52
72.91,-8.22,-5.67,-8.22,-5.68,5.67,5.78,5.66,-2.55,-2.55,-2.54
73.64,-8.22,-5.65,-8.22,-5.65,5.65,5.77,5.63,-2.57,-2.57,-2.57
74.38,-8.22,-5.63,-8.22,-5.63,5.63,5.77,5.60,-2.59,-2.59,-2.58
75.12,-8.22,-5.61,-8.22,-5.61,5.61,5.77,5.57,-2.61,-2.61,-2.61
75.87,-8.22,-5.58,-8.22,-5.59,5.59,5.77,5.55,-2.63,-2.63,-2.63
76.63,-8.22,-5.57,-8.22,-5.56,5.57,5.77,5.53,-2.65,-2.65,-2.65
77.40,-8.22,-5.55,-8.22,-5.55,5.55,5.77,5.50,-2.66,-2.66,-2.67
78.17,-8.22,-5.53,-8.22,-5.54,5.53,5.76,5.49,-2.68,-2.68,-2.69
78.95,-8.22,-5.53,-8.22,-5.53,5.52,5.76,5.47,-2.70,-2.70,-2.68
79.74,-8.22,-5.52,-8.22,-5.52,5.51,5.76,5.46,-2.71,-2.71,-2.69
80.54,-8.22,-5.51,-8.22,-5.52,5.50,5.77,5.45,-2.71,-2.71,-2.70
81.35,-8.22,-5.51,-8.22,-5.51,5.52,5.77,5.44,-2.70,-2.70,-2.70
82.16,-8.22,-5.51,-8.20,-5.50,5.54,5.77,5.44,-2.68,-2.67,-2.70
82.98,-8.22,-5.52,-8.22,-5.52,5.56,5.77,5.44,-2.65,-2.65,-2.70
83.81,-8.22,-5.52,-8.27,-5.57,5.59,5.77,5.45,-2.62,-2.67,-2.70
84.65,-8.36,-5.67,-8.34,-5.65,5.63,5.78,5.46,-2.72,-2.70,-2.69
85.50,-8.44,-5.76,-8.40,-5.73,5.68,5.78,5.47,-2.75,-2.72,-2.67
86.35,-8.44,-5.77,-8.45,-5.78,5.74,5.79,5.49,-2.70,-2.71,-2.66
87.22,-8.44,-5.79,-8.43,-5.78,5.79,5.79,5.51,-2.64,-2.63,-2.65
88.09,-8.44,-5.79,-8.44,-5.80,5.85,5.80,5.53,-2.59,-2.59,-2.64
88.97,-8.44,-5.81,-8.49,-5.86,5.89,5.81,5.57,-2.54,-2.60,-2.63
89.86,-8.60,-5.98,-8.56,-5.95,5.93,5.81,5.60,-2.67,-2.64,-2.61
90.76,-8.66,-6.04,-8.63,-6.02,5.95,5.82,5.64,-2.70,-2.68,-2.62
91.66,-8.67,-6.06,-8.68,-6.07,5.98,5.83,5.68,-2.69,-2.70,-2.60
92.58,-8.67,-6.06,-8.67,-6.07,5.99,5.84,5.73,-2.67,-2.68,-2.61
93.51,-8.67,-6.07,-8.67,-6.07,6.01,5.85,5.77,-2.66,-2.66,-2.60
94.44,-8.67,-6.07,-8.67,-6.07,6.01,5.85,5.83,-2.65,-2.65,-2.59
95.39,-8.67,-6.07,-8.67,-6.07,6.01,5.86,5.89,-2.66,-2.66,-2.60
96.34,-8.67,-6.06,-8.66,-6.06,6.00,5.87,5.95,-2.66,-2.66,-2.61
97.30,-8.67,-6.06,-8.65,-6.05,6.00,5.88,6.01,-2.67,-2.65,-2.60
98.28,-8.67,-6.05,-8.69,-6.08,6.00,5.89,6.08,-2.67,-2.69,-2.61
99.26,-8.73,-6.11,-8.76,-6.14,6.00,5.90,6.15,-2.73,-2.76,-2.62
100.25,-8.89,-6.26,-8.83,-6.21,6.00,5.91,6.23,-2.89,-2.83,-2.63
101.25,-8.90,-6.26,-8.89,-6.26,6.00,5.92,6.30,-2.90,-2.89,-2.64
102.27,-8.90,-6.25,-8.91,-6.26,6.00,5.93,6.38,-2.90,-2.91,-2.64
103.29,-8.90,-6.22,-8.90,-6.23,6.00,5.93,6.46,-2.90,-2.90,-2.67
104.32,-8.90,-6.21,-8.89,-6.20,6.00,5.94,6.54,-2.90,-2.89,-2.69
105.37,-8.90,-6.18,-8.89,-6.17,6.00,5.95,6.62,-2.90,-2.89,-2.72
106.42,-8.90,-6.15,-8.93,-6.18,6.00,5.95,6.70,-2.90,-2.93,-2.75
107.48,-9.00,-6.20,-9.00,-6.21,6.00,5.96,6.78,-3.00,-3.00,-2.80
108.56,-9.12,-6.27,-9.07,-6.24,6.00,5.96,6.86,-3.12,-3.07,-2.84
109.64,-9.13,-6.24,-9.13,-6.24,6.00,5.96,6.94,-3.13,-3.13,-2.88
110.74,-9.13,-6.20,-9.13,-6.20,6.00,5.96,7.02,-3.13,-3.13,-2.93
111.85,-9.13,-6.16,-9.11,-6.14,6.00,5.96,7.09,-3.13,-3.11,-2.97
112.97,-9.13,-6.09,-9.15,-6.12,6.00,5.96,7.15,-3.13,-3.15,-3.03
114.10,-9.17,-6.09,-9.21,-6.14,6.00,5.96,7.22,-3.17,-3.21,-3.07
115.24,-9.35,-6.22,-9.28,-6.15,6.00,5.95,7.27,-3.35,-3.28,-3.13
116.39,-9.35,-6.17,-9.34,-6.16,6.00,5.95,7.33,-3.35,-3.34,-3.18
117.55,-9.35,-6.12,-9.34,-6.12,6.00,5.94,7.37,-3.35,-3.34,-3.22
118.73,-9.35,-6.09,-9.36,-6.10,6.00,5.93,7.41,-3.35,-3.36,-3.26
119.92,-9.36,-6.07,-9.43,-6.13,6.00,5.92,7.43,-3.36,-3.43,-3.29
121.12,-9.58,-6.25,-9.50,-6.18,6.00,5.91,7.45,-3.58,-3.50,-3.32
122.33,-9.58,-6.23,-9.55,-6.21,6.00,5.90,7.46,-3.58,-3.55,-3.35
123.55,-9.58,-6.21,-9.60,-6.23,6.00,5.89,7.46,-3.58,-3.60,-3.36
124.79,-9.58,-6.19,-9.63,-6.24,6.00,5.88,7.44,-3.58,-3.63,-3.39
126.03,-9.74,-6.33,-9.70,-6.29,6.00,5.87,7.43,-3.74,-3.70,-3.41
127.29,-9.79,-6.36,-9.76,-6.33,6.00,5.86,7.39,-3.79,-3.76,-3.43
128.57,-9.81,-6.35,-9.80,-6.35,6.00,5.85,7.35,-3.81,-3.80,-3.46
129.85,-9.81,-6.33,-9.83,-6.35,6.00,5.84,7.29,-3.81,-3.83,-3.48
131.15,-9.86,-6.35,-9.89,-6.38,6.00,5.83,7.24,-3.86,-3.89,-3.50
132.46,-9.99,-6.46,-9.94,-6.42,6.00,5.82,7.16,-3.99,-3.94,-3.53
133.79,-10.04,-6.50,-10.02,-6.48,6.00,5.82,7.09,-4.04,-4.02,-3.54
135.12,-10.05,-6.48,-10.11,-6.55,6.00,5.81,7.00,-4.05,-4.11,-3.57
136.48,-10.21,-6.63,-10.18,-6.59,6.00,5.81,6.91,-4.21,-4.18,-3.58
137.84,-10.27,-6.66,-10.24,-6.63,6.00,5.80,6.80,-4.27,-4.24,-3.61
139.22,-10.27,-6.62,-10.28,-6.64,6.00,5.80,6.70,-4.27,-4.28,-3.65
140.61,-10.27,-6.60,-10.27,-6.61,6.00,5.81,6.59,-4.27,-4.27,-3.67
142.02,-10.27,-6.59,-10.25,-6.57,6.00,5.81,6.47,-4.27,-4.25,-3.67
143.44,-10.27,-6.56,-10.27,-6.56,6.00,5.81,6.35,-4.27,-4.27,-3.70
144.87,-10.27,-6.54,-10.32,-6.59,6.00,5.82,6.24,-4.27,-4.32,-3.73
146.32,-10.42,-6.65,-10.39,-6.63,6.00,5.83,6.11,-4.42,-4.39,-3.76
147.78,-10.49,-6.70,-10.46,-6.66,6.00,5.85,5.99,-4.49,-4.46,-3.79
149.26,-10.49,-6.66,-10.50,-6.67,6.00,5.86,5.87,-4.49,-4.50,-3.83
150.75,-10.49,-6.61,-10.49,-6.61,6.00,5.88,5.74,-4.49,-4.49,-3.88
152.26,-10.49,-6.55,-10.47,-6.54,6.00,5.90,5.62,-4.49,-4.47,-3.93
153.78,-10.49,-6.49,-10.51,-6.51,6.00,5.92,5.49,-4.49,-4.51,-4.00
155.32,-10.54,-6.47,-10.57,-6.51,6.00,5.95,5.37,-4.54,-4.57,-4.06
156.88,-10.70,-6.58,-10.64,-6.52,6.00,5.97,5.25,-4.70,-4.64,-4.11
158.44,-10.72,-6.54,-10.72,-6.54,6.00,6.00,5.13,-4.72,-4.72,-4.18
160.03,-10.78,-6.54,-10.82,-6.58,6.00,6.03,5.02,-4.78,-4.82,-4.24
161.63,-10.92,-6.64,-10.91,-6.63,6.00,6.07,4.90,-4.92,-4.91,-4.28
163.24,-11.09,-6.76,-11.06,-6.74,6.00,6.10,4.79,-5.09,-5.06,-4.33
164.88,-11.18,-6.82,-11.21,-6.85,6.00,6.14,4.68,-5.18,-5.21,-4.36
166.53,-11.36,-6.97,-11.31,-6.92,6.00,6.17,4.58,-5.36,-5.31,-4.39
168.19,-11.41,-6.99,-11.41,-7.00,6.00,6.21,4.47,-5.41,-5.41,-4.42
169.87,-11.46,-7.02,-11.50,-7.07,6.00,6.24,4.37,-5.46,-5.50,-4.43
171.57,-11.60,-7.15,-11.56,-7.12,6.00,6.28,4.28,-5.60,-5.56,-4.44
173.29,-11.63,-7.19,-11.61,-7.17,6.00,6.31,4.18,-5.63,-5.61,-4.44
175.02,-11.63,-7.19,-11.64,-7.20,6.00,6.34,4.09,-5.63,-5.64,-4.44
176.77,-11.63,-7.18,-11.63,-7.19,6.00,6.37,4.00,-5.63,-5.63,-4.44
178.54,-11.63,-7.19,-11.63,-7.19,6.00,6.40,3.92,-5.63,-5.63,-4.44
180.32,-11.63,-7.19,-11.63,-7.19,6.00,6.42,3.83,-5.63,-5.63,-4.43
182.13,-11.63,-7.20,-11.63,-7.20,6.00,6.44,3.75,-5.63,-5.63,-4.43
183.95,-11.63,-7.19,-11.63,-7.20,6.00,6.46,3.68,-5.63,-5.63,-4.43
185.79,-11.63,-7.20,-11.63,-7.19,6.00,6.46,3.60,-5.63,-5.63,-4.43
187.65,-11.63,-7.18,-11.63,-7.18,6.00,6.47,3.53,-5.63,-5.63,-4.45
189.52,-11.63,-7.16,-11.63,-7.17,6.00,6.46,3.46,-5.63,-5.63,-4.46
191.42,-11.63,-7.15,-11.63,-7.15,6.00,6.45,3.40,-5.63,-5.63,-4.48
193.33,-11.63,-7.14,-11.63,-7.14,6.00,6.43,3.33,-5.63,-5.63,-4.49
195.27,-11.63,-7.13,-11.63,-7.13,6.00,6.41,3.27,-5.63,-5.63,-4.50
197.22,-11.63,-7.11,-11.63,-7.11,6.00,6.37,3.22,-5.63,-5.63,-4.51
199.19,-11.63,-7.08,-11.63,-7.09,6.00,6.33,3.16,-5.63,-5.63,-4.54
201.18,-11.63,-7.07,-11.63,-7.07,6.00,6.27,3.10,-5.63,-5.63,-4.55
203.19,-11.63,-7.06,-11.63,-7.06,6.00,6.21,3.05,-5.63,-5.63,-4.56
205.23,-11.63,-7.04,-11.63,-7.05,6.00,6.13,3.00,-5.63,-5.63,-4.58
207.28,-11.63,-7.03,-11.63,-7.03,6.00,6.05,2.95,-5.63,-5.63,-4.59
209.35,-11.63,-7.01,-11.63,-7.01,6.00,5.95,2.90,-5.63,-5.63,-4.61
211.44,-11.63,-6.98,-11.65,-7.01,6.02,5.84,2.86,-5.61,-5.63,-4.64
213.56,-11.63,-6.97,-11.63,-6.98,6.05,5.72,2.81,-5.58,-5.58,-4.65
215.69,-11.63,-6.98,-11.57,-6.91,6.07,5.60,2.77,-5.56,-5.50,-4.65
217.85,-11.43,-6.76,-11.48,-6.81,6.06,5.46,2.72,-5.37,-5.42,-4.67
220.03,-11.32,-6.63,-11.32,-6.64,6.01,5.31,2.68,-5.31,-5.31,-4.69
222.23,-11.13,-6.42,-11.09,-6.39,5.91,5.16,2.64,-5.21,-5.17,-4.70
224.45,-10.81,-6.10,-10.80,-6.10,5.78,4.99,2.59,-5.03,-5.03,-4.70
226.70,-10.43,-5.72,-10.43,-5.72,5.59,4.82,2.55,-4.84,-4.84,-4.71
228.96,-10.04,-5.33,-10.04,-5.33,5.35,4.64,2.50,-4.68,-4.68,-4.71
231.25,-9.66,-4.95,-9.68,-4.98,5.07,4.45,2.46,-4.59,-4.61,-4.70
233.57,-9.36,-4.65,-9.37,-4.66,4.74,4.25,2.41,-4.61,-4.63,-4.71
235.90,-9.10,-4.38,-9.08,-4.37,4.39,4.05,2.37,-4.71,-4.69,-4.71
238.26,-8.79,-4.08,-8.77,-4.06,4.03,3.84,2.32,-4.76,-4.74,-4.71
240.64,-8.42,-3.71,-8.41,-3.70,3.67,3.62,2.27,-4.74,-4.73,-4.71
243.05,-8.02,-3.32,-8.02,-3.33,3.35,3.40,2.22,-4.67,-4.67,-4.69
245.48,-7.63,-2.95,-7.66,-2.98,3.03,3.17,2.17,-4.60,-4.63,-4.68
247.93,-7.34,-2.67,-7.34,-2.68,2.71,2.94,2.11,-4.62,-4.63,-4.66
250.41,-7.07,-2.41,-7.06,-2.40,2.40,2.70,2.06,-4.66,-4.65,-4.66
252.92,-6.79,-2.15,-6.76,-2.13,2.10,2.46,2.00,-4.69,-4.66,-4.63
255.45,-6.45,-1.84,-6.44,-1.83,1.81,2.21,1.94,-4.63,-4.63,-4.61
258.00,-6.11,-1.51,-6.12,-1.52,1.53,1.96,1.88,-4.57,-4.58,-4.59
260.58,-5.80,-1.21,-5.81,-1.23,1.26,1.71,1.81,-4.54,-4.55,-4.59
263.19,-5.53,-0.97,-5.53,-0.97,0.97,1.45,1.75,-4.56,-4.56,-4.56
265.82,-5.28,-0.73,-5.26,-0.72,0.68,1.19,1.68,-4.60,-4.58,-4.55
268.48,-4.99,-0.46,-4.97,-0.45,0.39,0.93,1.61,-4.59,-4.58,-4.53
271.16,-4.66,-0.15,-4.65,-0.15,0.12,0.67,1.54,-4.54,-4.54,-4.50
273.87,-4.33,0.16,-4.32,0.16,-0.14,0.40,1.47,-4.47,-4.47,-4.49
276.61,-4.00,0.46,-4.00,0.46,-0.39,0.13,1.39,-4.39,-4.40,-4.46
279.38,-3.74,0.71,-3.74,0.70,-0.64,-0.13,1.32,-4.37,-4.38,-4.44
282.17,-3.50,0.92,-3.53,0.88,-0.87,-0.40,1.24,-4.36,-4.40,-4.42
284.99,-3.38,1.01,-3.34,1.04,-1.08,-0.67,1.16,-4.45,-4.42,-4.39
287.84,-3.17,1.20,-3.13,1.23,-1.26,-0.93,1.08,-4.43,-4.39,-4.36
290.72,-2.91,1.43,-2.92,1.42,-1.43,-1.19,1.00,-4.34,-4.35,-4.34
293.63,-2.65,1.67,-2.68,1.63,-1.59,-1.44,0.91,-4.23,-4.27,-4.32
296.57,-2.53,1.75,-2.51,1.78,-1.74,-1.68,0.83,-4.27,-4.25,-4.28
299.53,-2.35,1.92,-2.38,1.89,-1.90,-1.92,0.75,-4.25,-4.28,-4.26
302.53,-2.29,1.97,-2.23,2.02,-2.07,-2.14,0.66,-4.35,-4.30,-4.26
305.55,-2.06,2.16,-2.04,2.19,-2.23,-2.35,0.58,-4.29,-4.27,-4.22
308.61,-1.80,2.41,-1.84,2.36,-2.39,-2.55,0.49,-4.19,-4.24,-4.21
311.69,-1.63,2.56,-1.61,2.57,-2.55,-2.73,0.40,-4.18,-4.17,-4.18
314.81,-1.46,2.71,-1.44,2.73,-2.71,-2.89,0.31,-4.17,-4.15,-4.17
317.96,-1.24,2.92,-1.27,2.89,-2.87,-3.03,0.22,-4.11,-4.14,-4.16
321.14,-1.15,3.01,-1.12,3.04,-3.03,-3.15,0.13,-4.17,-4.15,-4.16
324.35,-0.97,3.20,-0.98,3.17,-3.17,-3.25,0.04,-4.14,-4.15,-4.16
327.59,-0.89,3.26,-0.87,3.28,-3.29,-3.33,-0.05,-4.18,-4.16,-4.14
330.87,-0.74,3.40,-0.76,3.38,-3.39,-3.38,-0.14,-4.12,-4.14,-4.14
334.18,-0.69,3.45,-0.66,3.47,-3.46,-3.43,-0.23,-4.15,-4.12,-4.14
337.52,-0.56,3.56,-0.56,3.56,-3.52,-3.45,-0.32,-4.08,-4.09,-4.12
340.90,-0.49,3.61,-0.50,3.60,-3.57,-3.46,-0.42,-4.06,-4.07,-4.10
344.30,-0.47,3.62,-0.46,3.62,-3.61,-3.45,-0.51,-4.07,-4.07,-4.08
347.75,-0.47,3.60,-0.47,3.59,-3.63,-3.43,-0.60,-4.10,-4.10,-4.06
351.23,-0.47,3.58,-0.47,3.58,-3.64,-3.40,-0.70,-4.10,-4.10,-4.05
354.74,-0.47,3.56,-0.41,3.61,-3.63,-3.37,-0.79,-4.09,-4.04,-4.03
358.28,-0.36,3.64,-0.36,3.64,-3.61,-3.32,-0.89,-3.96,-3.97,-4.00
361.87,-0.26,3.72,-0.34,3.63,-3.58,-3.28,-0.99,-3.84,-3.92,-3.98
365.49,-0.40,3.55,-0.36,3.59,-3.56,-3.22,-1.09,-3.95,-3.92,-3.95
369.14,-0.46,3.49,-0.42,3.52,-3.53,-3.17,-1.19,-3.99,-3.96,-3.94
372.83,-0.47,3.46,-0.47,3.45,-3.51,-3.12,-1.28,-3.97,-3.98,-3.92
376.56,-0.47,3.44,-0.47,3.43,-3.47,-3.06,-1.38,-3.94,-3.94,-3.90
380.33,-0.47,3.41,-0.47,3.41,-3.43,-3.01,-1.48,-3.89,-3.89,-3.87
384.13,-0.47,3.39,-0.45,3.41,-3.38,-2.96,-1.59,-3.85,-3.83,-3.86
387.97,-0.47,3.39,-0.47,3.38,-3.34,-2.91,-1.69,-3.80,-3.81,-3.86
391.85,-0.48,3.37,-0.53,3.32,-3.29,-2.86,-1.79,-3.77,-3.82,-3.85
395.77,-0.63,3.20,-0.60,3.24,-3.24,-2.81,-1.89,-3.87,-3.84,-3.83
399.73,-0.69,3.13,-0.65,3.17,-3.18,-2.77,-1.99,-3.86,-3.83,-3.82
403.72,-0.69,3.12,-0.70,3.11,-3.11,-2.73,-2.09,-3.80,-3.81,-3.81
407.76,-0.69,3.12,-0.74,3.06,-3.05,-2.69,-2.19,-3.74,-3.80,-3.80
