frequency,raw,error,smoothed,error_smoothed,equalization,parametric_eq,fixed_band_eq,equalized_raw,equalized_smoothed,target
20.00,-15.33,-16.30,-15.33,-16.30,6.00,6.10,2.70,-9.33,-9.33,0.97
20.20,-15.20,-16.23,-15.20,-16.23,6.00,6.10,2.78,-9.20,-9.20,1.03
20.40,-15.07,-16.15,-15.07,-16.15,6.00,6.10,2.85,-9.07,-9.07,1.08
20.61,-14.95,-16.08,-14.94,-16.08,6.00,6.10,2.93,-8.95,-8.94,1.13
20.81,-14.81,-16.00,-14.81,-16.00,6.00,6.10,3.02,-8.81,-8.81,1.18
21.02,-14.68,-15.93,-14.68,-15.92,6.00,6.10,3.10,-8.68,-8.68,1.24
21.23,-14.54,-15.84,-14.55,-15.84,6.00,6.10,3.19,-8.54,-8.55,1.29
21.44,-14.41,-15.76,-14.41,-15.76,6.00,6.10,3.28,-8.41,-8.41,1.34
21.66,-14.28,-15.68,-14.28,-15.67,6.00,6.10,3.38,-8.28,-8.28,1.39
21.87,-14.15,-15.59,-14.15,-15.59,6.00,6.10,3.47,-8.15,-8.15,1.44
22.09,-14.01,-15.50,-14.02,-15.51,6.00,6.10,3.57,-8.01,-8.02,1.49
22.31,-13.88,-15.42,-13.88,-15.42,6.00,6.10,3.67,-7.88,-7.88,1.54
22.54,-13.75,-15.34,-13.75,-15.34,6.00,6.10,3.78,-7.75,-7.75,1.58
22.76,-13.62,-15.25,-13.62,-15.25,6.00,6.09,3.88,-7.62,-7.62,1.63
22.99,-13.49,-15.16,-13.49,-15.16,6.00,6.09,3.99,-7.49,-7.49,1.67
23.22,-13.35,-15.07,-13.36,-15.07,6.00,6.09,4.11,-7.35,-7.36,1.72
23.45,-13.22,-14.98,-13.22,-14.98,6.00,6.09,4.22,-7.22,-7.22,1.76
23.69,-13.09,-14.89,-13.08,-14.89,6.00,6.09,4.34,-7.09,-7.08,1.81
23.92,-12.94,-14.79,-12.95,-14.80,6.00,6.09,4.45,-6.94,-6.95,1.85
24.16,-12.81,-14.71,-12.81,-14.71,6.00,6.09,4.58,-6.81,-6.81,1.90
24.40,-12.68,-14.62,-12.68,-14.62,6.00,6.09,4.70,-6.68,-6.68,1.94
24.65,-12.54,-14.52,-12.55,-14.52,6.00,6.09,4.83,-6.54,-6.55,1.98
24.89,-12.41,-14.43,-12.41,-14.42,6.00,6.09,4.95,-6.41,-6.41,2.02
25.14,-12.27,-14.33,-12.27,-14.33,6.00,6.09,5.08,-6.27,-6.27,2.06
25.39,-12.13,-14.23,-12.14,-14.23,6.00,6.08,5.21,-6.13,-6.14,2.10
25.65,-12.00,-14.14,-12.00,-14.13,6.00,6.08,5.34,-6.00,-6.00,2.13
25.91,-11.87,-14.04,-11.86,-14.04,6.00,6.08,5.47,-5.87,-5.86,2.17
26.16,-11.72,-13.93,-11.73,-13.94,6.00,6.08,5.60,-5.72,-5.73,2.21
26.43,-11.59,-13.84,-11.59,-13.84,6.00,6.08,5.74,-5.59,-5.59,2.24
26.69,-11.46,-13.74,-11.46,-13.74,6.00,6.08,5.87,-5.46,-5.46,2.28
26.96,-11.32,-13.64,-11.33,-13.64,6.00,6.08,5.99,-5.32,-5.33,2.32
27.23,-11.19,-13.54,-11.19,-13.54,6.00,6.08,6.12,-5.19,-5.19,2.35
27.50,-11.05,-13.44,-11.05,-13.44,6.00,6.07,6.24,-5.05,-5.05,2.39
27.77,-10.91,-13.34,-10.92,-13.34,6.00,6.07,6.36,-4.91,-4.92,2.43
28.05,-10.78,-13.24,-10.78,-13.24,6.00,6.07,6.48,-4.78,-4.78,2.46
28.33,-10.64,-13.14,-10.65,-13.14,6.00,6.07,6.59,-4.64,-4.65,2.50
28.62,-10.52,-13.05,-10.51,-13.05,6.00,6.07,6.70,-4.52,-4.51,2.53
28.90,-10.38,-12.96,-10.38,-12.95,6.00,6.07,6.79,-4.38,-4.38,2.57
29.19,-10.24,-12.85,-10.25,-12.85,6.00,6.06,6.89,-4.24,-4.25,2.60
29.48,-10.11,-12.75,-10.11,-12.76,6.00,6.06,6.97,-4.11,-4.11,2.64
29.78,-9.98,-12.66,-9.98,-12.66,6.00,6.06,7.05,-3.98,-3.98,2.68
30.08,-9.86,-12.56,-9.85,-12.57,6.00,6.06,7.11,-3.86,-3.85,2.71
30.38,-9.72,-12.47,-9.73,-12.47,6.00,6.06,7.17,-3.72,-3.73,2.75
30.68,-9.60,-12.38,-9.60,-12.38,6.00,6.05,7.22,-3.60,-3.60,2.78
30.99,-9.48,-12.30,-9.48,-12.29,6.00,6.05,7.26,-3.48,-3.48,2.82
31.30,-9.35,-12.20,-9.35,-12.20,6.00,6.05,7.28,-3.35,-3.35,2.84
31.61,-9.22,-12.10,-9.22,-12.10,6.00,6.05,7.30,-3.22,-3.22,2.87
31.93,-9.09,-12.00,-9.09,-11.99,6.00,6.04,7.30,-3.09,-3.09,2.90
32.24,-8.96,-11.89,-8.96,-11.89,6.00,6.04,7.30,-2.96,-2.96,2.93
32.57,-8.83,-11.79,-8.83,-11.79,6.00,6.04,7.29,-2.83,-2.83,2.96
32.89,-8.70,-11.69,-8.70,-11.69,6.00,6.04,7.27,-2.70,-2.70,2.99
33.22,-8.58,-11.59,-8.58,-11.59,6.00,6.03,7.23,-2.58,-2.58,3.01
33.55,-8.45,-11.48,-8.46,-11.49,6.00,6.03,7.20,-2.45,-2.46,3.03
33.89,-8.33,-11.38,-8.33,-11.38,6.00,6.03,7.15,-2.33,-2.33,3.05
34.23,-8.21,-11.28,-8.21,-11.28,6.00,6.02,7.10,-2.21,-2.21,3.07
34.57,-8.08,-11.18,-8.09,-11.18,6.00,6.02,7.04,-2.08,-2.09,3.10
34.92,-7.96,-11.08,-7.96,-11.08,6.00,6.02,6.98,-1.96,-1.96,3.11
35.27,-7.84,-10.98,-7.84,-10.98,6.00,6.01,6.91,-1.84,-1.84,3.13
35.62,-7.72,-10.87,-7.73,-10.88,6.00,6.01,6.84,-1.72,-1.73,3.15
35.97,-7.61,-10.78,-7.61,-10.77,6.00,6.01,6.76,-1.61,-1.61,3.17
36.33,-7.49,-10.67,-7.49,-10.67,6.00,6.00,6.69,-1.49,-1.49,3.18
36.70,-7.38,-10.58,-7.38,-10.57,6.00,6.00,6.61,-1.38,-1.38,3.19
37.06,-7.26,-10.47,-7.26,-10.47,6.00,5.99,6.54,-1.26,-1.26,3.21
37.43,-7.15,-10.37,-7.15,-10.38,6.00,5.99,6.46,-1.15,-1.15,3.22
37.81,-7.04,-10.28,-7.04,-10.27,6.00,5.98,6.38,-1.04,-1.04,3.24
38.19,-6.93,-10.18,-6.93,-10.17,6.00,5.98,6.31,-0.93,-0.93,3.24
38.57,-6.82,-10.07,-6.82,-10.07,6.00,5.97,6.24,-0.82,-0.82,3.25
38.95,-6.71,-9.97,-6.72,-9.97,6.00,5.97,6.16,-0.71,-0.72,3.26
39.34,-6.61,-9.88,-6.61,-9.87,6.00,5.96,6.10,-0.61,-0.61,3.26
39.74,-6.50,-9.77,-6.50,-9.77,6.00,5.96,6.03,-0.50,-0.50,3.27
40.14,-6.39,-9.66,-6.40,-9.67,6.00,5.95,5.97,-0.39,-0.40,3.27
40.54,-6.29,-9.57,-6.29,-9.56,6.00,5.95,5.91,-0.29,-0.29,3.27
40.94,-6.18,-9.46,-6.19,-9.46,6.00,5.94,5.85,-0.18,-0.19,3.28
41.35,-6.09,-9.37,-6.09,-9.37,6.00,5.93,5.80,-0.09,-0.09,3.28
41.76,-5.99,-9.27,-5.99,-9.27,6.00,5.93,5.75,0.01,0.01,3.28
42.18,-5.90,-9.18,-5.90,-9.17,6.00,5.92,5.70,0.10,0.10,3.28
42.60,-5.79,-9.07,-5.79,-9.08,6.00,5.91,5.66,0.21,0.21,3.28
43.03,-5.69,-8.97,-5.70,-8.98,6.00,5.91,5.63,0.31,0.30,3.28
43.46,-5.60,-8.89,-5.60,-8.88,6.00,5.90,5.59,0.40,0.40,3.28
43.90,-5.51,-8.79,-5.51,-8.79,6.00,5.89,5.57,0.49,0.49,3.28
44.33,-5.42,-8.71,-5.42,-8.71,6.00,5.88,5.54,0.58,0.58,3.28
44.78,-5.33,-8.61,-5.34,-8.62,6.00,5.87,5.52,0.67,0.66,3.28
45.23,-5.25,-8.54,-5.25,-8.53,6.00,5.87,5.51,0.75,0.75,3.28
45.68,-5.16,-8.44,-5.17,-8.44,6.00,5.86,5.50,0.84,0.83,3.28
46.13,-5.08,-8.35,-5.08,-8.36,6.00,5.85,5.49,0.92,0.92,3.27
46.60,-5.00,-8.28,-5.00,-8.27,6.00,5.84,5.48,1.00,1.00,3.28
47.06,-4.92,-8.19,-4.92,-8.19,6.00,5.83,5.48,1.08,1.08,3.27
47.53,-4.84,-8.11,-4.84,-8.11,6.00,5.82,5.49,1.16,1.16,3.26
48.01,-4.76,-8.03,-4.77,-8.03,6.00,5.81,5.50,1.24,1.23,3.27
48.49,-4.69,-7.95,-4.69,-7.95,6.00,5.79,5.51,1.31,1.31,3.26
48.97,-4.61,-7.86,-4.62,-7.87,6.00,5.78,5.52,1.39,1.38,3.25
49.46,-4.54,-7.80,-4.54,-7.79,6.00,5.77,5.54,1.46,1.46,3.25
49.96,-4.46,-7.71,-4.46,-7.71,6.00,5.76,5.56,1.54,1.54,3.25
50.46,-4.38,-7.63,-4.39,-7.63,6.00,5.75,5.59,1.62,1.61,3.25
50.96,-4.31,-7.55,-4.31,-7.55,6.00,5.73,5.61,1.69,1.69,3.24
51.47,-4.22,-7.47,-4.23,-7.46,6.00,5.72,5.64,1.78,1.77,3.24
51.99,-4.14,-7.38,-4.15,-7.38,6.00,5.70,5.67,1.86,1.85,3.23
52.51,-4.07,-7.30,-4.07,-7.30,6.00,5.69,5.70,1.93,1.93,3.22
53.03,-4.00,-7.23,-4.00,-7.22,6.00,5.67,5.73,2.00,2.00,3.23
53.56,-3.92,-7.14,-3.92,-7.14,6.00,5.66,5.76,2.08,2.08,3.22
54.10,-3.84,-7.05,-3.84,-7.05,6.00,5.64,5.80,2.16,2.16,3.21
54.64,-3.76,-6.96,-3.77,-6.96,6.00,5.63,5.83,2.24,2.23,3.20
55.18,-3.69,-6.88,-3.69,-6.88,6.00,5.61,5.86,2.31,2.31,3.18
55.74,-3.62,-6.80,-3.62,-6.79,6.00,5.59,5.89,2.38,2.38,3.17
56.29,-3.55,-6.70,-3.55,-6.71,6.00,5.57,5.91,2.45,2.45,3.15
56.86,-3.48,-6.62,-3.48,-6.62,6.00,5.55,5.94,2.52,2.52,3.14
57.42,-3.40,-6.52,-3.41,-6.52,6.01,5.53,5.96,2.61,2.60,3.12
58.00,-3.33,-6.43,-3.33,-6.43,6.01,5.51,5.97,2.68,2.68,3.10
58.58,-3.26,-6.34,-3.26,-6.34,6.01,5.49,5.99,2.75,2.75,3.07
59.16,-3.19,-6.24,-3.19,-6.24,6.01,5.47,5.99,2.82,2.82,3.05
59.76,-3.12,-6.15,-3.12,-6.14,5.99,5.45,6.00,2.87,2.87,3.03
60.35,-3.05,-6.04,-3.06,-6.05,5.96,5.43,5.99,2.91,2.90,2.99
60.96,-2.99,-5.96,-3.00,-5.96,5.92,5.40,5.99,2.93,2.92,2.97
61.57,-2.94,-5.88,-2.94,-5.88,5.87,5.38,5.97,2.92,2.93,2.94
62.18,-2.88,-5.79,-2.89,-5.80,5.80,5.35,5.95,2.92,2.91,2.91
62.80,-2.83,-5.71,-2.83,-5.71,5.73,5.33,5.92,2.89,2.89,2.88
63.43,-2.78,-5.64,-2.78,-5.63,5.64,5.30,5.89,2.86,2.87,2.85
64.07,-2.72,-5.55,-2.73,-5.55,5.56,5.28,5.85,2.84,2.83,2.83
64.71,-2.67,-5.47,-2.67,-5.47,5.48,5.25,5.80,2.80,2.80,2.80
65.35,-2.62,-5.40,-2.62,-5.40,5.40,5.22,5.75,2.78,2.78,2.78
66.01,-2.57,-5.33,-2.57,-5.33,5.34,5.19,5.69,2.76,2.76,2.76
66.67,-2.52,-5.27,-2.52,-5.27,5.27,5.16,5.63,2.75,2.75,2.74
67.33,-2.48,-5.21,-2.48,-5.21,5.22,5.13,5.56,2.73,2.73,2.72
68.01,-2.44,-5.16,-2.44,-5.16,5.16,5.10,5.48,2.72,2.72,2.71
68.69,-2.41,-5.12,-2.41,-5.11,5.12,5.07,5.41,2.70,2.70,2.70
69.37,-2.38,-5.07,-2.38,-5.07,5.07,5.03,5.33,2.69,2.69,2.69
70.07,-2.35,-5.03,-2.35,-5.03,5.03,5.00,5.24,2.67,2.68,2.68
70.77,-2.31,-4.98,-2.32,-4.99,4.98,4.96,5.15,2.67,2.67,2.67
71.48,-2.28,-4.95,-2.28,-4.94,4.94,4.93,5.06,2.66,2.66,2.66
72.19,-2.25,-4.90,-2.25,-4.90,4.90,4.89,4.97,2.64,2.65,2.65
72.91,-2.21,-4.85,-2.22,-4.85,4.85,4.85,4.88,2.64,2.64,2.64
73.64,-2.18,-4.81,-2.18,-4.80,4.80,4.81,4.78,2.62,2.62,2.62
74.38,-2.14,-4.75,-2.15,-4.75,4.75,4.77,4.69,2.61,2.61,2.61
75.12,-2.11,-4.70,-2.11,-4.71,4.70,4.73,4.59,2.59,2.59,2.59
75.87,-2.08,-4.66,-2.08,-4.65,4.65,4.69,4.50,2.57,2.57,2.58
76.63,-2.04,-4.60,-2.05,-4.60,4.60,4.65,4.41,2.56,2.56,2.56
77.40,-2.01,-4.54,-2.01,-4.55,4.55,4.61,4.31,2.54,2.54,2.53
78.17,-1.98,-4.50,-1.98,-4.50,4.51,4.57,4.22,2.53,2.52,2.51
78.95,-1.96,-4.46,-1.96,-4.46,4.46,4.52,4.13,2.50,2.50,2.49
79.74,-1.94,-4.42,-1.94,-4.42,4.42,4.48,4.04,2.47,2.47,2.48
80.54,-1.92,-4.38,-1.92,-4.38,4.37,4.43,3.95,2.45,2.45,2.46
81.35,-1.90,-4.34,-1.90,-4.33,4.32,4.38,3.87,2.42,2.42,2.44
82.16,-1.86,-4.28,-1.87,-4.28,4.27,4.34,3.79,2.41,2.41,2.41
82.98,-1.83,-4.23,-1.83,-4.23,4.23,4.29,3.70,2.39,2.40,2.39
83.81,-1.79,-4.17,-1.79,-4.17,4.18,4.24,3.62,2.39,2.39,2.38
84.65,-1.75,-4.12,-1.76,-4.13,4.13,4.19,3.55,2.38,2.37,2.37
85.50,-1.72,-4.08,-1.72,-4.08,4.08,4.14,3.47,2.36,2.36,2.36
86.35,-1.69,-4.04,-1.69,-4.04,4.04,4.09,3.40,2.35,2.35,2.34
87.22,-1.66,-3.99,-1.67,-4.00,4.00,4.04,3.33,2.34,2.33,2.33
88.09,-1.64,-3.96,-1.64,-3.96,3.96,3.98,3.26,2.32,2.32,2.32
88.97,-1.62,-3.92,-1.62,-3.92,3.92,3.93,3.20,2.30,2.30,2.30
89.86,-1.60,-3.89,-1.60,-3.89,3.89,3.88,3.14,2.28,2.28,2.29
90.76,-1.58,-3.85,-1.58,-3.86,3.85,3.82,3.08,2.27,2.27,2.27
91.66,-1.56,-3.82,-1.56,-3.81,3.81,3.77,3.02,2.25,2.25,2.26
92.58,-1.53,-3.77,-1.53,-3.77,3.77,3.71,2.97,2.24,2.24,2.24
93.51,-1.50,-3.72,-1.51,-3.73,3.73,3.66,2.91,2.22,2.22,2.21
94.44,-1.48,-3.68,-1.48,-3.68,3.68,3.60,2.86,2.20,2.20,2.20
95.39,-1.46,-3.63,-1.46,-3.63,3.63,3.54,2.81,2.17,2.18,2.17
96.34,-1.43,-3.58,-1.44,-3.58,3.58,3.49,2.77,2.15,2.14,2.14
97.30,-1.42,-3.53,-1.42,-3.53,3.53,3.43,2.72,2.11,2.11,2.11
98.28,-1.40,-3.48,-1.40,-3.48,3.47,3.37,2.68,2.07,2.07,2.08
99.26,-1.38,-3.42,-1.38,-3.42,3.41,3.31,2.64,2.03,2.03,2.04
100.25,-1.35,-3.35,-1.35,-3.35,3.35,3.25,2.60,1.99,2.00,2.00
101.25,-1.31,-3.28,-1.31,-3.28,3.28,3.20,2.57,1.96,1.96,1.96
102.27,-1.26,-3.19,-1.27,-3.20,3.20,3.14,2.53,1.94,1.93,1.93
103.29,-1.24,-3.13,-1.24,-3.12,3.12,3.08,2.50,1.88,1.89,1.89
104.32,-1.20,-3.04,-1.20,-3.04,3.04,3.02,2.46,1.84,1.84,1.84
105.37,-1.16,-2.96,-1.16,-2.96,2.96,2.96,2.43,1.80,1.80,1.80
106.42,-1.11,-2.87,-1.12,-2.87,2.87,2.90,2.40,1.76,1.76,1.75
107.48,-1.07,-2.79,-1.07,-2.78,2.79,2.84,2.37,1.71,1.71,1.71
108.56,-1.03,-2.70,-1.03,-2.70,2.70,2.78,2.34,1.66,1.67,1.67
109.64,-0.98,-2.61,-0.99,-2.61,2.61,2.72,2.31,1.62,1.62,1.63
110.74,-0.94,-2.52,-0.94,-2.52,2.52,2.66,2.29,1.57,1.58,1.58
111.85,-0.89,-2.43,-0.89,-2.43,2.43,2.60,2.26,1.54,1.54,1.54
112.97,-0.83,-2.34,-0.84,-2.34,2.34,2.55,2.23,1.51,1.51,1.50
114.10,-0.78,-2.25,-0.79,-2.25,2.26,2.49,2.20,1.48,1.48,1.47
115.24,-0.74,-2.17,-0.75,-2.17,2.18,2.43,2.18,1.44,1.44,1.43
116.39,-0.71,-2.11,-0.71,-2.11,2.11,2.37,2.15,1.40,1.40,1.39
117.55,-0.68,-2.05,-0.68,-2.04,2.04,2.31,2.12,1.35,1.36,1.37
118.73,-0.64,-1.97,-0.64,-1.97,1.97,2.26,2.09,1.32,1.33,1.33
119.92,-0.59,-1.90,-0.60,-1.90,1.90,2.20,2.06,1.31,1.30,1.30
121.12,-0.55,-1.83,-0.56,-1.84,1.83,2.14,2.03,1.28,1.27,1.28
122.33,-0.52,-1.78,-0.52,-1.78,1.77,2.09,2.00,1.25,1.25,1.26
123.55,-0.48,-1.72,-0.47,-1.71,1.71,2.03,1.97,1.22,1.23,1.24
124.79,-0.42,-1.64,-0.43,-1.64,1.65,1.98,1.94,1.22,1.22,1.21
126.03,-0.37,-1.57,-0.38,-1.58,1.59,1.92,1.90,1.22,1.20,1.20
127.29,-0.35,-1.53,-0.35,-1.53,1.54,1.87,1.87,1.18,1.19,1.17
128.57,-0.33,-1.49,-0.32,-1.48,1.49,1.82,1.83,1.15,1.16,1.16
129.85,-0.29,-1.43,-0.30,-1.44,1.44,1.76,1.79,1.15,1.14,1.14
131.15,-0.27,-1.40,-0.28,-1.40,1.40,1.71,1.76,1.13,1.12,1.13
132.46,-0.26,-1.37,-0.26,-1.36,1.36,1.66,1.72,1.09,1.10,1.10
133.79,-0.24,-1.33,-0.24,-1.32,1.32,1.61,1.68,1.07,1.08,1.08
135.12,-0.21,-1.27,-0.22,-1.28,1.28,1.56,1.63,1.06,1.06,1.06
136.48,-0.20,-1.24,-0.19,-1.23,1.24,1.51,1.59,1.03,1.04,1.04
137.84,-0.16,-1.18,-0.17,-1.19,1.19,1.46,1.55,1.03,1.02,1.02
139.22,-0.15,-1.14,-0.15,-1.15,1.15,1.41,1.51,0.99,1.00,0.99
140.61,-0.13,-1.11,-0.13,-1.10,1.10,1.37,1.46,0.97,0.97,0.97
142.02,-0.10,-1.05,-0.11,-1.06,1.05,1.32,1.42,0.95,0.94,0.95
143.44,-0.08,-1.01,-0.08,-1.00,1.00,1.27,1.37,0.91,0.92,0.93
144.87,-0.04,-0.94,-0.05,-0.95,0.94,1.23,1.32,0.90,0.90,0.90
146.32,-0.01,-0.89,-0.01,-0.89,0.89,1.18,1.28,0.88,0.88,0.87
147.78,0.02,-0.84,0.02,-0.84,0.84,1.14,1.23,0.85,0.85,0.86
149.26,0.05,-0.79,0.05,-0.79,0.78,1.10,1.19,0.83,0.83,0.83
150.75,0.08,-0.73,0.08,-0.73,0.73,1.05,1.14,0.81,0.81,0.81
152.26,0.10,-0.69,0.10,-0.68,0.69,1.01,1.09,0.79,0.79,0.78
153.78,0.13,-0.63,0.12,-0.64,0.65,0.97,1.04,0.78,0.77,0.76
155.32,0.14,-0.61,0.14,-0.61,0.62,0.93,1.00,0.76,0.75,0.75
156.88,0.14,-0.59,0.14,-0.58,0.59,0.89,0.95,0.73,0.73,0.73
158.44,0.14,-0.57,0.13,-0.57,0.57,0.85,0.90,0.71,0.71,0.70
160.03,0.13,-0.55,0.13,-0.56,0.55,0.81,0.86,0.68,0.68,0.68
161.63,0.12,-0.55,0.12,-0.55,0.54,0.77,0.81,0.65,0.66,0.67
163.24,0.12,-0.53,0.12,-0.53,0.52,0.74,0.77,0.64,0.64,0.65
164.88,0.12,-0.51,0.12,-0.52,0.51,0.70,0.72,0.63,0.63,0.63
166.53,0.12,-0.50,0.12,-0.50,0.50,0.66,0.67,0.62,0.62,0.62
168.19,0.12,-0.49,0.12,-0.48,0.49,0.63,0.63,0.61,0.61,0.60
169.87,0.12,-0.47,0.11,-0.48,0.48,0.59,0.58,0.60,0.60,0.58
171.57,0.11,-0.47,0.11,-0.47,0.48,0.56,0.54,0.58,0.58,0.58
173.29,0.10,-0.47,0.10,-0.47,0.47,0.53,0.49,0.57,0.57,0.57
175.02,0.10,-0.47,0.10,-0.46,0.46,0.49,0.45,0.56,0.56,0.56
176.77,0.10,-0.45,0.10,-0.46,0.45,0.46,0.40,0.55,0.55,0.55
178.54,0.11,-0.44,0.11,-0.44,0.44,0.43,0.36,0.54,0.54,0.55
180.32,0.12,-0.43,0.12,-0.43,0.42,0.40,0.32,0.54,0.54,0.55
182.13,0.14,-0.40,0.14,-0.40,0.40,0.36,0.27,0.54,0.54,0.54
183.95,0.17,-0.37,0.17,-0.37,0.37,0.33,0.23,0.54,0.54,0.54
185.79,0.20,-0.35,0.20,-0.34,0.34,0.30,0.18,0.54,0.54,0.54
187.65,0.23,-0.31,0.23,-0.31,0.31,0.27,0.14,0.54,0.54,0.54
189.52,0.26,-0.28,0.26,-0.28,0.28,0.24,0.10,0.53,0.54,0.54
191.42,0.30,-0.24,0.29,-0.24,0.24,0.21,0.06,0.54,0.53,0.53
193.33,0.33,-0.20,0.33,-0.20,0.21,0.18,0.01,0.54,0.54,0.53
195.27,0.36,-0.17,0.36,-0.17,0.18,0.15,-0.03,0.53,0.54,0.53
197.22,0.39,-0.14,0.38,-0.14,0.15,0.13,-0.07,0.54,0.53,0.53
199.19,0.41,-0.12,0.40,-0.12,0.12,0.10,-0.11,0.53,0.53,0.53
201.18,0.42,-0.10,0.42,-0.10,0.10,0.07,-0.15,0.52,0.52,0.52
203.19,0.43,-0.09,0.43,-0.08,0.08,0.04,-0.19,0.51,0.51,0.52
205.23,0.45,-0.06,0.44,-0.06,0.06,0.01,-0.23,0.51,0.50,0.50
207.28,0.46,-0.04,0.46,-0.04,0.04,-0.02,-0.27,0.50,0.50,0.50
209.35,0.47,-0.03,0.47,-0.02,0.02,-0.04,-0.31,0.49,0.49,0.50
211.44,0.49,0.00,0.49,0.00,-0.01,-0.07,-0.35,0.48,0.48,0.49
213.56,0.51,0.03,0.51,0.03,-0.04,-0.10,-0.38,0.47,0.48,0.48
215.69,0.55,0.07,0.54,0.07,-0.07,-0.13,-0.42,0.48,0.47,0.48
217.85,0.58,0.11,0.58,0.11,-0.11,-0.16,-0.46,0.47,0.47,0.47
220.03,0.61,0.14,0.61,0.14,-0.15,-0.18,-0.49,0.46,0.46,0.46
222.23,0.64,0.18,0.64,0.18,-0.19,-0.21,-0.52,0.45,0.45,0.46
224.45,0.67,0.22,0.67,0.22,-0.22,-0.24,-0.56,0.44,0.45,0.45
226.70,0.71,0.27,0.71,0.26,-0.26,-0.27,-0.59,0.45,0.44,0.44
228.96,0.74,0.30,0.74,0.30,-0.29,-0.29,-0.61,0.45,0.44,0.43
231.25,0.76,0.33,0.76,0.33,-0.32,-0.32,-0.64,0.44,0.44,0.43
233.57,0.77,0.36,0.77,0.35,-0.34,-0.35,-0.67,0.43,0.42,0.41
235.90,0.77,0.36,0.77,0.37,-0.36,-0.38,-0.69,0.41,0.41,0.40
238.26,0.77,0.38,0.77,0.38,-0.38,-0.41,-0.71,0.39,0.39,0.39
240.64,0.77,0.38,0.77,0.39,-0.40,-0.44,-0.73,0.37,0.37,0.38
243.05,0.78,0.41,0.78,0.41,-0.42,-0.46,-0.75,0.36,0.36,0.37
245.48,0.79,0.44,0.79,0.43,-0.44,-0.49,-0.77,0.34,0.34,0.35
247.93,0.81,0.46,0.81,0.47,-0.47,-0.52,-0.78,0.34,0.34,0.35
250.41,0.83,0.50,0.84,0.50,-0.50,-0.55,-0.79,0.32,0.33,0.33
252.92,0.88,0.55,0.87,0.54,-0.54,-0.58,-0.80,0.33,0.32,0.33
255.45,0.90,0.59,0.90,0.59,-0.58,-0.61,-0.81,0.31,0.32,0.31
258.00,0.93,0.62,0.93,0.63,-0.63,-0.64,-0.81,0.30,0.31,0.31
260.58,0.97,0.67,0.96,0.67,-0.67,-0.67,-0.82,0.30,0.29,0.29
263.19,1.00,0.71,1.00,0.71,-0.71,-0.70,-0.82,0.29,0.29,0.29
265.82,1.04,0.75,1.03,0.75,-0.75,-0.72,-0.82,0.29,0.28,0.28
268.48,1.06,0.79,1.06,0.78,-0.79,-0.75,-0.82,0.27,0.27,0.27
271.16,1.08,0.81,1.08,0.82,-0.82,-0.78,-0.81,0.26,0.27,0.27
273.87,1.11,0.85,1.10,0.85,-0.84,-0.81,-0.81,0.27,0.26,0.25
276.61,1.12,0.88,1.11,0.87,-0.86,-0.83,-0.80,0.26,0.25,0.24
279.38,1.12,0.88,1.12,0.88,-0.88,-0.86,-0.79,0.24,0.24,0.24
282.17,1.11,0.88,1.11,0.89,-0.89,-0.89,-0.78,0.22,0.22,0.22
284.99,1.10,0.89,1.10,0.89,-0.90,-0.91,-0.77,0.20,0.20,0.21
287.84,1.10,0.90,1.09,0.90,-0.90,-0.94,-0.76,0.19,0.19,0.20
290.72,1.09,0.90,1.09,0.91,-0.91,-0.96,-0.75,0.18,0.18,0.18
293.63,1.09,0.92,1.09,0.92,-0.92,-0.98,-0.74,0.17,0.17,0.17
296.57,1.09,0.93,1.09,0.93,-0.93,-1.00,-0.73,0.16,0.16,0.16
299.53,1.09,0.94,1.09,0.94,-0.94,-1.02,-0.71,0.15,0.15,0.14
302.53,1.09,0.95,1.09,0.95,-0.95,-1.04,-0.70,0.13,0.13,0.13
305.55,1.09,0.97,1.09,0.97,-0.97,-1.06,-0.68,0.12,0.12,0.12
308.61,1.09,0.98,1.09,0.98,-0.98,-1.07,-0.67,0.11,0.11,0.11
311.69,1.09,0.99,1.09,0.99,-0.99,-1.08,-0.66,0.10,0.10,0.10
314.81,1.09,1.00,1.09,1.00,-1.00,-1.10,-0.64,0.09,0.09,0.08
317.96,1.09,1.02,1.09,1.01,-1.01,-1.11,-0.63,0.08,0.08,0.07
321.14,1.09,1.02,1.09,1.02,-1.02,-1.11,-0.61,0.07,0.07,0.07
324.35,1.09,1.03,1.09,1.03,-1.03,-1.12,-0.60,0.06,0.06,0.06
327.59,1.09,1.03,1.09,1.03,-1.04,-1.12,-0.59,0.05,0.05,0.06
330.87,1.09,1.04,1.09,1.04,-1.04,-1.13,-0.57,0.05,0.05,0.04
334.18,1.09,1.05,1.09,1.05,-1.05,-1.13,-0.56,0.04,0.04,0.04
337.52,1.09,1.05,1.09,1.05,-1.05,-1.12,-0.55,0.04,0.04,0.04
340.90,1.09,1.06,1.09,1.06,-1.05,-1.12,-0.54,0.03,0.03,0.03
344.30,1.09,1.06,1.09,1.06,-1.06,-1.12,-0.52,0.03,0.03,0.03
347.75,1.09,1.06,1.09,1.06,-1.06,-1.11,-0.51,0.03,0.03,0.03
351.23,1.09,1.06,1.09,1.06,-1.07,-1.10,-0.50,0.02,0.02,0.02
354.74,1.09,1.06,1.09,1.07,-1.07,-1.09,-0.49,0.02,0.02,0.02
358.28,1.09,1.07,1.09,1.07,-1.07,-1.08,-0.48,0.02,0.02,0.02
361.87,1.10,1.08,1.10,1.08,-1.07,-1.07,-0.47,0.02,0.02,0.02
365.49,1.10,1.08,1.10,1.08,-1.08,-1.06,-0.46,0.02,0.02,0.02
369.14,1.11,1.09,1.10,1.08,-1.08,-1.04,-0.45,0.03,0.02,0.02
372.83,1.10,1.07,1.10,1.08,-1.08,-1.03,-0.44,0.02,0.02,0.03
376.56,1.10,1.07,1.10,1.08,-1.08,-1.01,-0.43,0.02,0.02,0.03
380.33,1.10,1.08,1.09,1.08,-1.08,-1.00,-0.43,0.02,0.02,0.01
384.13,1.09,1.07,1.09,1.08,-1.07,-0.98,-0.42,0.02,0.02,0.01
387.97,1.08,1.07,1.08,1.07,-1.06,-0.96,-0.41,0.02,0.02,0.01
391.85,1.07,1.06,1.06,1.05,-1.05,-0.94,-0.41,0.02,0.01,0.01
395.77,1.04,1.03,1.04,1.03,-1.04,-0.93,-0.40,0.00,0.01,0.01
399.73,1.02,1.02,1.02,1.02,-1.02,-0.91,-0.40,-0.00,0.00,-0.00
403.72,1.00,1.00,0.99,1.00,-1.00,-0.89,-0.39,0.00,-0.00,-0.00
407.76,0.97,0.98,0.97,0.98,-0.97,-0.87,-0.39,-0.01,-0.00,-0.01
411.84,0.94,0.95,0.93,0.95,-0.95,-0.85,-0.38,-0.01,-0.01,-0.01
415.96,0.90,0.92,0.89,0.92,-0.92,-0.83,-0.38,-0.02,-0.03,-0.02
420.12,0.85,0.88,0.85,0.89,-0.89,-0.81,-0.37,-0.05,-0.04,-0.03
424.32,0.81,0.86,0.81,0.86,-0.87,-0.79,-0.37,-0.06,-0.06,-0.06
428.56,0.77,0.83,0.77,0.83,-0.84,-0.77,-0.37,-0.07,-0.07,-0.07
432.85,0.73,0.80,0.72,0.81,-0.81,-0.75,-0.37,-0.08,-0.08,-0.08
437.18,0.68,0.77,0.68,0.78,-0.78,-0.73,-0.37,-0.10,-0.09,-0.10
441.55,0.64,0.76,0.64,0.75,-0.74,-0.71,-0.36,-0.11,-0.11,-0.12
445.96,0.59,0.72,0.58,0.72,-0.71,-0.69,-0.36,-0.12,-0.13,-0.13
450.42,0.53,0.68,0.53,0.68,-0.67,-0.67,-0.36,-0.15,-0.14,-0.15
454.93,0.47,0.64,0.47,0.64,-0.64,-0.64,-0.36,-0.17,-0.17,-0.17
459.48,0.42,0.60,0.41,0.60,-0.60,-0.62,-0.36,-0.18,-0.19,-0.18
464.07,0.36,0.56,0.36,0.56,-0.57,-0.60,-0.36,-0.21,-0.21,-0.20
468.71,0.31,0.52,0.31,0.53,-0.53,-0.58,-0.36,-0.23,-0.22,-0.21
473.40,0.27,0.50,0.27,0.50,-0.50,-0.56,-0.36,-0.24,-0.24,-0.23
478.13,0.24,0.48,0.23,0.47,-0.48,-0.53,-0.37,-0.24,-0.24,-0.24
482.91,0.20,0.45,0.20,0.45,-0.45,-0.51,-0.37,-0.25,-0.25,-0.25
487.74,0.17,0.43,0.17,0.43,-0.43,-0.49,-0.37,-0.26,-0.26,-0.26
492.62,0.14,0.41,0.13,0.41,-0.40,-0.46,-0.37,-0.26,-0.27,-0.27
