frequency,raw,error,smoothed,error_smoothed,equalization,parametric_eq,fixed_band_eq,equalized_raw,equalized_smoothed,target
20.00,7.08,1.67,7.08,1.68,-1.68,-1.90,-1.05,5.40,5.40,5.41
20.20,7.09,1.70,7.08,1.69,-1.69,-1.91,-1.08,5.39,5.39,5.39
20.40,7.09,1.71,7.09,1.71,-1.71,-1.92,-1.11,5.38,5.38,5.37
20.61,7.10,1.72,7.10,1.73,-1.73,-1.93,-1.14,5.37,5.37,5.37
20.81,7.11,1.75,7.10,1.75,-1.75,-1.94,-1.17,5.36,5.36,5.35
21.02,7.12,1.77,7.12,1.77,-1.76,-1.95,-1.21,5.35,5.35,5.34
21.23,7.13,1.79,7.13,1.79,-1.79,-1.96,-1.24,5.34,5.34,5.33
21.44,7.15,1.80,7.14,1.81,-1.81,-1.97,-1.28,5.34,5.33,5.34
21.66,7.16,1.82,7.16,1.83,-1.83,-1.98,-1.31,5.33,5.33,5.33
21.87,7.18,1.86,7.17,1.85,-1.86,-1.98,-1.35,5.32,5.32,5.32
22.09,7.20,1.89,7.19,1.88,-1.88,-1.99,-1.39,5.31,5.31,5.31
22.31,7.21,1.90,7.22,1.91,-1.91,-2.00,-1.43,5.30,5.30,5.31
22.54,7.25,1.95,7.24,1.94,-1.94,-2.01,-1.47,5.30,5.30,5.30
22.76,7.28,1.97,7.27,1.97,-1.98,-2.02,-1.51,5.30,5.30,5.31
22.99,7.31,2.01,7.31,2.01,-2.01,-2.04,-1.55,5.30,5.30,5.30
23.22,7.34,2.05,7.34,2.04,-2.04,-2.05,-1.59,5.29,5.29,5.29
23.45,7.37,2.08,7.36,2.08,-2.07,-2.06,-1.64,5.29,5.29,5.29
23.69,7.39,2.10,7.39,2.11,-2.10,-2.07,-1.68,5.29,5.29,5.29
23.92,7.42,2.13,7.42,2.13,-2.12,-2.08,-1.73,5.29,5.29,5.28
24.16,7.44,2.15,7.43,2.15,-2.14,-2.09,-1.78,5.30,5.29,5.28
24.40,7.45,2.15,7.45,2.16,-2.15,-2.10,-1.82,5.30,5.30,5.29
24.65,7.45,2.15,7.45,2.16,-2.16,-2.11,-1.87,5.29,5.29,5.29
24.89,7.45,2.17,7.44,2.16,-2.16,-2.12,-1.92,5.29,5.28,5.28
25.14,7.44,2.17,7.44,2.16,-2.16,-2.14,-1.97,5.27,5.27,5.27
25.39,7.43,2.16,7.43,2.17,-2.16,-2.15,-2.02,5.26,5.26,5.27
25.65,7.43,2.17,7.43,2.17,-2.17,-2.16,-2.07,5.25,5.26,5.26
25.91,7.44,2.18,7.43,2.17,-2.18,-2.17,-2.12,5.25,5.25,5.26
26.16,7.45,2.18,7.45,2.19,-2.20,-2.19,-2.17,5.25,5.25,5.27
26.43,7.47,2.21,7.47,2.21,-2.22,-2.20,-2.22,5.25,5.25,5.25
26.69,7.50,2.24,7.49,2.24,-2.24,-2.21,-2.27,5.25,5.25,5.25
26.96,7.53,2.27,7.52,2.28,-2.27,-2.23,-2.32,5.25,5.25,5.25
27.23,7.56,2.31,7.56,2.31,-2.30,-2.24,-2.37,5.25,5.25,5.24
27.50,7.59,2.35,7.59,2.34,-2.34,-2.25,-2.42,5.25,5.25,5.24
27.77,7.62,2.37,7.62,2.37,-2.37,-2.27,-2.47,5.25,5.25,5.25
28.05,7.65,2.40,7.65,2.40,-2.40,-2.28,-2.51,5.25,5.24,5.25
28.33,7.68,2.43,7.67,2.43,-2.43,-2.30,-2.56,5.25,5.24,5.25
28.62,7.70,2.45,7.70,2.45,-2.45,-2.31,-2.60,5.24,5.25,5.24
28.90,7.73,2.47,7.72,2.48,-2.48,-2.33,-2.64,5.25,5.25,5.25
29.19,7.75,2.50,7.75,2.50,-2.49,-2.34,-2.68,5.25,5.25,5.25
29.48,7.77,2.52,7.76,2.51,-2.51,-2.36,-2.71,5.26,5.26,5.25
29.78,7.78,2.53,7.77,2.52,-2.51,-2.37,-2.75,5.26,5.26,5.25
30.08,7.78,2.51,7.78,2.52,-2.52,-2.39,-2.78,5.26,5.26,5.26
30.38,7.78,2.52,7.78,2.52,-2.52,-2.40,-2.81,5.25,5.25,5.25
30.68,7.78,2.52,7.77,2.52,-2.52,-2.42,-2.83,5.25,5.25,5.25
30.99,7.77,2.52,7.77,2.52,-2.52,-2.43,-2.86,5.24,5.25,5.25
31.30,7.77,2.52,7.76,2.52,-2.52,-2.45,-2.88,5.24,5.24,5.25
31.61,7.76,2.51,7.76,2.52,-2.52,-2.47,-2.90,5.23,5.24,5.24
31.93,7.76,2.52,7.76,2.52,-2.52,-2.49,-2.91,5.23,5.23,5.23
32.24,7.76,2.53,7.76,2.53,-2.53,-2.50,-2.93,5.23,5.23,5.23
32.57,7.76,2.54,7.76,2.54,-2.53,-2.52,-2.94,5.22,5.22,5.22
32.89,7.76,2.54,7.76,2.54,-2.54,-2.54,-2.94,5.22,5.22,5.21
33.22,7.76,2.54,7.76,2.54,-2.54,-2.56,-2.95,5.21,5.21,5.21
33.55,7.76,2.55,7.76,2.55,-2.55,-2.57,-2.95,5.20,5.20,5.21
33.89,7.76,2.56,7.76,2.56,-2.56,-2.59,-2.95,5.20,5.20,5.20
34.23,7.76,2.57,7.76,2.57,-2.57,-2.61,-2.95,5.19,5.19,5.18
34.57,7.76,2.58,7.76,2.58,-2.58,-2.63,-2.95,5.18,5.18,5.18
34.92,7.76,2.59,7.76,2.58,-2.59,-2.65,-2.95,5.17,5.17,5.17
35.27,7.76,2.58,7.76,2.59,-2.60,-2.67,-2.95,5.16,5.16,5.17
35.62,7.76,2.62,7.76,2.61,-2.61,-2.69,-2.94,5.15,5.15,5.14
35.97,7.76,2.62,7.76,2.62,-2.62,-2.71,-2.94,5.14,5.14,5.14
36.33,7.76,2.63,7.76,2.64,-2.63,-2.73,-2.93,5.12,5.12,5.12
36.70,7.76,2.65,7.76,2.65,-2.65,-2.75,-2.93,5.11,5.11,5.11
37.06,7.76,2.66,7.76,2.66,-2.66,-2.77,-2.92,5.10,5.10,5.09
37.43,7.76,2.68,7.76,2.68,-2.68,-2.79,-2.92,5.08,5.08,5.08
37.81,7.76,2.69,7.76,2.69,-2.69,-2.81,-2.91,5.06,5.06,5.07
38.19,7.76,2.71,7.76,2.71,-2.71,-2.83,-2.91,5.04,5.04,5.04
38.57,7.76,2.73,7.76,2.73,-2.73,-2.85,-2.91,5.02,5.02,5.03
38.95,7.76,2.75,7.76,2.75,-2.75,-2.87,-2.91,5.00,5.00,5.00
39.34,7.76,2.78,7.76,2.78,-2.77,-2.90,-2.91,4.98,4.98,4.98
39.74,7.76,2.79,7.76,2.80,-2.80,-2.92,-2.91,4.96,4.96,4.96
40.14,7.76,2.82,7.76,2.82,-2.82,-2.94,-2.91,4.94,4.94,4.94
40.54,7.76,2.83,7.76,2.84,-2.84,-2.96,-2.92,4.92,4.92,4.92
40.94,7.76,2.86,7.76,2.86,-2.86,-2.98,-2.93,4.90,4.90,4.90
41.35,7.76,2.88,7.76,2.88,-2.88,-3.01,-2.94,4.88,4.88,4.88
41.76,7.76,2.89,7.76,2.89,-2.90,-3.03,-2.95,4.86,4.86,4.86
42.18,7.76,2.91,7.76,2.91,-2.92,-3.05,-2.96,4.84,4.84,4.85
42.60,7.76,2.94,7.76,2.94,-2.94,-3.08,-2.98,4.82,4.82,4.82
43.03,7.76,2.96,7.76,2.96,-2.96,-3.10,-2.99,4.80,4.80,4.79
43.46,7.76,2.98,7.76,2.98,-2.98,-3.13,-3.01,4.78,4.78,4.78
43.90,7.76,3.01,7.76,3.01,-3.00,-3.15,-3.04,4.75,4.75,4.75
44.33,7.76,3.03,7.76,3.03,-3.03,-3.17,-3.06,4.73,4.73,4.73
44.78,7.76,3.05,7.76,3.05,-3.05,-3.20,-3.09,4.70,4.70,4.70
45.23,7.76,3.07,7.76,3.08,-3.08,-3.22,-3.12,4.67,4.67,4.68
45.68,7.76,3.11,7.76,3.11,-3.11,-3.25,-3.15,4.64,4.64,4.65
46.13,7.76,3.15,7.76,3.15,-3.14,-3.27,-3.18,4.61,4.61,4.61
46.60,7.76,3.18,7.76,3.18,-3.18,-3.30,-3.22,4.58,4.58,4.58
47.06,7.76,3.21,7.76,3.21,-3.21,-3.33,-3.26,4.55,4.55,4.55
47.53,7.76,3.24,7.76,3.24,-3.25,-3.35,-3.30,4.51,4.51,4.52
48.01,7.76,3.29,7.76,3.28,-3.28,-3.38,-3.34,4.47,4.47,4.47
48.49,7.76,3.32,7.76,3.32,-3.32,-3.40,-3.38,4.43,4.43,4.44
48.97,7.76,3.36,7.76,3.36,-3.36,-3.43,-3.43,4.40,4.40,4.40
49.46,7.76,3.39,7.76,3.40,-3.39,-3.46,-3.48,4.36,4.36,4.36
49.96,7.76,3.44,7.76,3.43,-3.43,-3.48,-3.53,4.33,4.33,4.31
50.46,7.76,3.47,7.76,3.47,-3.47,-3.51,-3.58,4.29,4.29,4.29
50.96,7.76,3.50,7.76,3.50,-3.50,-3.54,-3.63,4.26,4.26,4.26
51.47,7.76,3.53,7.76,3.53,-3.53,-3.56,-3.68,4.22,4.22,4.22
51.99,7.76,3.57,7.76,3.56,-3.57,-3.59,-3.74,4.19,4.19,4.19
52.51,7.76,3.60,7.76,3.60,-3.60,-3.62,-3.79,4.16,4.16,4.16
53.03,7.76,3.62,7.76,3.63,-3.63,-3.65,-3.85,4.12,4.12,4.13
53.56,7.76,3.67,7.76,3.66,-3.67,-3.67,-3.90,4.09,4.09,4.09
54.10,7.76,3.70,7.76,3.70,-3.71,-3.70,-3.95,4.05,4.05,4.05
54.64,7.76,3.74,7.76,3.75,-3.74,-3.73,-4.01,4.01,4.01,4.02
55.18,7.76,3.79,7.76,3.78,-3.78,-3.76,-4.06,3.98,3.98,3.97
55.74,7.76,3.82,7.76,3.82,-3.81,-3.79,-4.11,3.94,3.94,3.93
56.29,7.76,3.84,7.76,3.85,-3.84,-3.81,-4.16,3.91,3.91,3.92
56.86,7.76,3.87,7.76,3.88,-3.87,-3.84,-4.21,3.88,3.88,3.89
57.42,7.76,3.91,7.76,3.90,-3.90,-3.87,-4.26,3.86,3.86,3.85
58.00,7.76,3.94,7.76,3.93,-3.93,-3.90,-4.31,3.83,3.83,3.82
58.58,7.76,3.95,7.76,3.95,-3.95,-3.93,-4.35,3.80,3.80,3.81
59.16,7.76,3.98,7.76,3.98,-3.99,-3.96,-4.39,3.77,3.77,3.78
59.76,7.76,4.01,7.76,4.01,-4.02,-3.98,-4.42,3.74,3.74,3.75
60.35,7.76,4.05,7.76,4.05,-4.06,-4.01,-4.45,3.70,3.70,3.71
60.96,7.76,4.09,7.76,4.10,-4.10,-4.04,-4.48,3.66,3.66,3.66
61.57,7.76,4.15,7.76,4.14,-4.14,-4.07,-4.51,3.62,3.62,3.61
62.18,7.76,4.19,7.76,4.19,-4.18,-4.10,-4.53,3.57,3.57,3.57
62.80,7.76,4.23,7.76,4.24,-4.23,-4.13,-4.54,3.53,3.53,3.52
63.43,7.76,4.28,7.76,4.28,-4.27,-4.16,-4.56,3.49,3.49,3.48
64.07,7.76,4.32,7.76,4.32,-4.31,-4.18,-4.57,3.44,3.44,3.44
64.71,7.76,4.35,7.76,4.35,-4.35,-4.21,-4.57,3.40,3.40,3.40
65.35,7.76,4.39,7.76,4.39,-4.39,-4.24,-4.58,3.37,3.37,3.37
66.01,7.76,4.43,7.76,4.42,-4.43,-4.27,-4.57,3.33,3.33,3.33
66.67,7.76,4.46,7.76,4.46,-4.47,-4.30,-4.57,3.29,3.29,3.30
67.33,7.76,4.51,7.76,4.50,-4.50,-4.33,-4.56,3.25,3.25,3.25
68.01,7.76,4.55,7.76,4.54,-4.54,-4.35,-4.56,3.21,3.21,3.21
68.69,7.76,4.59,7.76,4.59,-4.58,-4.38,-4.54,3.17,3.17,3.17
69.37,7.76,4.62,7.76,4.62,-4.63,-4.41,-4.53,3.13,3.13,3.14
70.07,7.77,4.66,7.76,4.66,-4.67,-4.44,-4.52,3.09,3.09,3.10
70.77,7.77,4.71,7.77,4.71,-4.72,-4.47,-4.50,3.05,3.05,3.06
71.48,7.78,4.76,7.77,4.76,-4.76,-4.49,-4.48,3.02,3.01,3.02
72.19,7.78,4.81,7.78,4.80,-4.80,-4.52,-4.47,2.98,2.98,2.97
72.91,7.78,4.84,7.78,4.85,-4.84,-4.55,-4.45,2.94,2.94,2.93
73.64,7.77,4.88,7.77,4.88,-4.87,-4.58,-4.43,2.90,2.90,2.89
74.38,7.76,4.91,7.75,4.90,-4.89,-4.60,-4.42,2.86,2.86,2.85
75.12,7.74,4.91,7.73,4.91,-4.91,-4.63,-4.40,2.83,2.82,2.82
75.87,7.71,4.91,7.71,4.92,-4.92,-4.66,-4.39,2.79,2.79,2.79
76.63,7.69,4.92,7.68,4.92,-4.92,-4.68,-4.38,2.76,2.76,2.76
77.40,7.66,4.93,7.66,4.93,-4.92,-4.71,-4.37,2.73,2.73,2.73
78.17,7.63,4.93,7.62,4.92,-4.92,-4.74,-4.36,2.71,2.70,2.70
78.95,7.59,4.91,7.59,4.91,-4.91,-4.76,-4.35,2.67,2.67,2.68
79.74,7.56,4.90,7.56,4.91,-4.91,-4.79,-4.35,2.65,2.65,2.65
80.54,7.53,4.91,7.53,4.90,-4.91,-4.81,-4.35,2.62,2.62,2.62
81.35,7.51,4.91,7.50,4.91,-4.91,-4.84,-4.35,2.60,2.59,2.59
82.16,7.48,4.91,7.48,4.91,-4.92,-4.86,-4.35,2.56,2.56,2.57
82.98,7.46,4.92,7.46,4.92,-4.92,-4.89,-4.36,2.53,2.53,2.53
83.81,7.44,4.94,7.44,4.94,-4.94,-4.91,-4.37,2.50,2.50,2.49
84.65,7.43,4.96,7.43,4.96,-4.96,-4.94,-4.38,2.46,2.46,2.47
85.50,7.42,4.99,7.42,4.98,-4.99,-4.96,-4.40,2.42,2.42,2.43
86.35,7.42,5.02,7.42,5.02,-5.03,-4.99,-4.41,2.39,2.39,2.40
87.22,7.42,5.05,7.42,5.06,-5.06,-5.01,-4.44,2.35,2.36,2.37
88.09,7.44,5.11,7.43,5.10,-5.10,-5.03,-4.46,2.33,2.33,2.33
88.97,7.45,5.15,7.45,5.15,-5.14,-5.06,-4.49,2.30,2.30,2.30
89.86,7.46,5.20,7.45,5.20,-5.18,-5.08,-4.52,2.27,2.27,2.26
90.76,7.46,5.23,7.45,5.23,-5.22,-5.10,-4.56,2.24,2.24,2.22
91.66,7.45,5.25,7.45,5.26,-5.25,-5.12,-4.60,2.20,2.20,2.19
92.58,7.44,5.28,7.44,5.28,-5.27,-5.14,-4.64,2.16,2.16,2.16
93.51,7.42,5.29,7.42,5.29,-5.29,-5.17,-4.69,2.12,2.12,2.12
94.44,7.40,5.31,7.39,5.31,-5.31,-5.19,-4.74,2.09,2.09,2.09
95.39,7.37,5.32,7.37,5.32,-5.32,-5.21,-4.79,2.04,2.05,2.05
96.34,7.34,5.33,7.34,5.33,-5.33,-5.23,-4.85,2.00,2.00,2.00
97.30,7.31,5.34,7.31,5.34,-5.34,-5.25,-4.90,1.96,1.96,1.97
98.28,7.28,5.34,7.28,5.35,-5.35,-5.27,-4.96,1.92,1.92,1.93
99.26,7.25,5.36,7.25,5.36,-5.36,-5.29,-5.03,1.88,1.89,1.89
100.25,7.23,5.38,7.23,5.37,-5.37,-5.31,-5.09,1.86,1.86,1.85
101.25,7.21,5.37,7.21,5.38,-5.38,-5.33,-5.16,1.83,1.83,1.83
102.27,7.19,5.39,7.18,5.38,-5.38,-5.35,-5.23,1.81,1.80,1.80
103.29,7.16,5.39,7.16,5.39,-5.39,-5.36,-5.30,1.77,1.77,1.76
104.32,7.13,5.38,7.13,5.39,-5.39,-5.38,-5.37,1.74,1.74,1.75
105.37,7.11,5.40,7.10,5.39,-5.40,-5.40,-5.44,1.71,1.71,1.71
106.42,7.08,5.39,7.08,5.39,-5.40,-5.42,-5.51,1.68,1.67,1.68
107.48,7.05,5.40,7.05,5.40,-5.41,-5.44,-5.59,1.64,1.64,1.65
108.56,7.03,5.41,7.03,5.41,-5.41,-5.45,-5.66,1.62,1.62,1.62
109.64,7.01,5.42,7.01,5.42,-5.42,-5.47,-5.73,1.59,1.59,1.58
110.74,6.99,5.43,6.98,5.43,-5.42,-5.48,-5.80,1.56,1.56,1.56
111.85,6.96,5.43,6.96,5.43,-5.43,-5.50,-5.86,1.53,1.53,1.52
112.97,6.93,5.44,6.93,5.44,-5.44,-5.51,-5.93,1.49,1.49,1.49
114.10,6.90,5.43,6.90,5.44,-5.44,-5.53,-5.99,1.45,1.45,1.46
115.24,6.87,5.45,6.87,5.45,-5.45,-5.54,-6.05,1.42,1.41,1.42
116.39,6.84,5.46,6.84,5.46,-5.46,-5.56,-6.10,1.37,1.38,1.37
117.55,6.82,5.47,6.81,5.47,-5.48,-5.57,-6.15,1.34,1.34,1.35
118.73,6.80,5.49,6.80,5.49,-5.49,-5.58,-6.20,1.30,1.30,1.30
119.92,6.79,5.51,6.79,5.51,-5.51,-5.60,-6.23,1.27,1.27,1.28
121.12,6.79,5.53,6.78,5.53,-5.54,-5.61,-6.27,1.25,1.25,1.26
122.33,6.79,5.56,6.79,5.56,-5.56,-5.62,-6.29,1.22,1.22,1.23
123.55,6.79,5.59,6.79,5.59,-5.59,-5.63,-6.32,1.20,1.20,1.19
124.79,6.79,5.61,6.78,5.62,-5.61,-5.64,-6.33,1.18,1.18,1.17
126.03,6.78,5.64,6.77,5.64,-5.63,-5.65,-6.34,1.15,1.14,1.13
127.29,6.76,5.65,6.76,5.65,-5.65,-5.66,-6.34,1.11,1.11,1.10
128.57,6.73,5.65,6.73,5.66,-5.66,-5.67,-6.34,1.07,1.07,1.07
129.85,6.71,5.67,6.70,5.67,-5.67,-5.67,-6.33,1.04,1.03,1.03
131.15,6.68,5.68,6.67,5.67,-5.68,-5.68,-6.31,1.00,0.99,1.00
132.46,6.64,5.68,6.64,5.68,-5.68,-5.69,-6.29,0.95,0.96,0.96
133.79,6.61,5.68,6.61,5.69,-5.69,-5.69,-6.27,0.92,0.92,0.92
135.12,6.59,5.70,6.59,5.69,-5.70,-5.70,-6.23,0.89,0.89,0.89
136.48,6.57,5.69,6.57,5.70,-5.70,-5.70,-6.20,0.86,0.86,0.87
137.84,6.55,5.71,6.54,5.71,-5.71,-5.70,-6.16,0.84,0.83,0.84
139.22,6.52,5.72,6.52,5.71,-5.71,-5.71,-6.12,0.80,0.80,0.79
140.61,6.49,5.72,6.49,5.72,-5.72,-5.71,-6.08,0.77,0.77,0.77
142.02,6.47,5.73,6.46,5.72,-5.72,-5.71,-6.03,0.75,0.74,0.74
143.44,6.44,5.73,6.44,5.72,-5.72,-5.71,-5.98,0.71,0.71,0.71
144.87,6.41,5.71,6.41,5.72,-5.72,-5.71,-5.94,0.68,0.69,0.70
146.32,6.39,5.72,6.39,5.72,-5.72,-5.71,-5.89,0.66,0.66,0.67
147.78,6.37,5.72,6.37,5.72,-5.72,-5.71,-5.84,0.65,0.65,0.65
149.26,6.35,5.73,6.34,5.72,-5.72,-5.71,-5.79,0.63,0.63,0.62
150.75,6.32,5.72,6.32,5.72,-5.71,-5.71,-5.74,0.61,0.61,0.59
152.26,6.29,5.71,6.29,5.71,-5.70,-5.72,-5.70,0.58,0.58,0.58
153.78,6.26,5.70,6.26,5.70,-5.70,-5.72,-5.65,0.56,0.56,0.55
155.32,6.23,5.70,6.22,5.70,-5.70,-5.73,-5.61,0.53,0.52,0.53
156.88,6.20,5.69,6.20,5.69,-5.70,-5.73,-5.57,0.49,0.49,0.50
158.44,6.17,5.70,6.17,5.70,-5.71,-5.74,-5.54,0.46,0.46,0.47
160.03,6.16,5.71,6.15,5.71,-5.72,-5.75,-5.50,0.44,0.43,0.45
161.63,6.15,5.73,6.14,5.73,-5.74,-5.76,-5.47,0.41,0.41,0.42
163.24,6.14,5.76,6.14,5.76,-5.76,-5.78,-5.44,0.37,0.38,0.38
164.88,6.14,5.79,6.14,5.79,-5.79,-5.79,-5.42,0.35,0.35,0.35
166.53,6.14,5.82,6.14,5.82,-5.82,-5.81,-5.40,0.32,0.32,0.32
168.19,6.14,5.85,6.14,5.85,-5.84,-5.83,-5.38,0.29,0.29,0.29
169.87,6.13,5.88,6.13,5.87,-5.86,-5.84,-5.37,0.26,0.26,0.25
171.57,6.12,5.89,6.11,5.89,-5.88,-5.86,-5.36,0.23,0.23,0.22
173.29,6.09,5.90,6.09,5.90,-5.90,-5.88,-5.36,0.19,0.19,0.19
175.02,6.07,5.91,6.06,5.91,-5.91,-5.90,-5.36,0.16,0.16,0.15
176.77,6.04,5.92,6.03,5.91,-5.91,-5.92,-5.36,0.12,0.12,0.12
178.54,6.00,5.90,6.00,5.91,-5.91,-5.94,-5.37,0.08,0.09,0.09
180.32,5.97,5.92,5.97,5.91,-5.92,-5.95,-5.38,0.05,0.05,0.05
182.13,5.94,5.92,5.93,5.92,-5.92,-5.97,-5.39,0.02,0.02,0.02
183.95,5.91,5.92,5.91,5.92,-5.92,-5.99,-5.41,-0.02,-0.02,-0.01
185.79,5.88,5.93,5.88,5.93,-5.93,-6.00,-5.44,-0.05,-0.05,-0.06
187.65,5.86,5.94,5.85,5.94,-5.94,-6.02,-5.46,-0.09,-0.09,-0.09
189.52,5.83,5.95,5.83,5.95,-5.96,-6.03,-5.49,-0.13,-0.13,-0.13
191.42,5.82,5.97,5.81,5.97,-5.98,-6.05,-5.53,-0.17,-0.17,-0.16
193.33,5.81,5.99,5.81,6.00,-6.01,-6.06,-5.57,-0.20,-0.20,-0.18
195.27,5.81,6.03,5.81,6.03,-6.04,-6.07,-5.61,-0.23,-0.23,-0.22
197.22,5.82,6.08,5.81,6.07,-6.07,-6.09,-5.65,-0.25,-0.25,-0.26
199.19,5.82,6.09,5.82,6.10,-6.09,-6.10,-5.70,-0.28,-0.28,-0.28
201.18,5.83,6.14,5.82,6.13,-6.12,-6.11,-5.75,-0.29,-0.30,-0.31
203.19,5.82,6.15,5.82,6.15,-6.14,-6.12,-5.80,-0.32,-0.32,-0.33
205.23,5.81,6.16,5.81,6.16,-6.15,-6.12,-5.85,-0.34,-0.35,-0.36
207.28,5.79,6.16,5.78,6.16,-6.16,-6.13,-5.91,-0.37,-0.37,-0.37
209.35,5.76,6.16,5.76,6.16,-6.16,-6.14,-5.97,-0.40,-0.40,-0.41
211.44,5.73,6.16,5.73,6.15,-6.16,-6.14,-6.02,-0.43,-0.43,-0.43
213.56,5.70,6.14,5.70,6.14,-6.15,-6.14,-6.08,-0.46,-0.46,-0.44
215.69,5.67,6.13,5.67,6.14,-6.15,-6.14,-6.14,-0.48,-0.48,-0.47
217.85,5.65,6.14,5.65,6.13,-6.14,-6.14,-6.19,-0.49,-0.49,-0.49
220.03,5.63,6.14,5.62,6.14,-6.13,-6.14,-6.25,-0.51,-0.51,-0.51
222.23,5.60,6.13,5.60,6.13,-6.12,-6.13,-6.30,-0.53,-0.53,-0.53
224.45,5.57,6.12,5.57,6.12,-6.11,-6.12,-6.35,-0.55,-0.54,-0.56
226.70,5.54,6.10,5.54,6.10,-6.10,-6.11,-6.40,-0.56,-0.56,-0.57
228.96,5.51,6.08,5.50,6.08,-6.08,-6.09,-6.45,-0.57,-0.58,-0.58
231.25,5.47,6.06,5.47,6.06,-6.06,-6.08,-6.48,-0.60,-0.60,-0.60
233.57,5.43,6.03,5.43,6.04,-6.04,-6.06,-6.52,-0.62,-0.61,-0.61
235.90,5.40,6.02,5.40,6.02,-6.02,-6.04,-6.55,-0.63,-0.63,-0.63
238.26,5.37,6.00,5.37,6.00,-6.01,-6.02,-6.57,-0.64,-0.64,-0.64
240.64,5.35,5.97,5.35,5.98,-5.99,-5.99,-6.59,-0.64,-0.64,-0.63
243.05,5.33,5.96,5.33,5.97,-5.97,-5.97,-6.60,-0.65,-0.64,-0.63
245.48,5.32,5.97,5.31,5.96,-5.95,-5.94,-6.60,-0.64,-0.64,-0.65
247.93,5.29,5.95,5.29,5.94,-5.93,-5.92,-6.60,-0.64,-0.64,-0.66
250.41,5.27,5.91,5.26,5.92,-5.91,-5.89,-6.58,-0.64,-0.64,-0.65
252.92,5.24,5.88,5.23,5.88,-5.88,-5.86,-6.56,-0.64,-0.64,-0.65
255.45,5.20,5.85,5.20,5.85,-5.85,-5.83,-6.53,-0.65,-0.65,-0.65
258.00,5.17,5.82,5.16,5.82,-5.82,-5.80,-6.50,-0.65,-0.65,-0.65
260.58,5.13,5.78,5.12,5.78,-5.79,-5.77,-6.46,-0.66,-0.66,-0.66
263.19,5.09,5.74,5.09,5.74,-5.76,-5.74,-6.41,-0.67,-0.67,-0.65
265.82,5.06,5.72,5.06,5.72,-5.73,-5.71,-6.35,-0.68,-0.67,-0.66
268.48,5.04,5.69,5.04,5.70,-5.71,-5.68,-6.29,-0.67,-0.67,-0.66
271.16,5.03,5.69,5.02,5.68,-5.68,-5.65,-6.22,-0.66,-0.66,-0.66
273.87,5.01,5.66,5.01,5.67,-5.66,-5.62,-6.15,-0.65,-0.65,-0.66
276.61,4.99,5.65,4.98,5.65,-5.63,-5.59,-6.08,-0.65,-0.65,-0.66
279.38,4.95,5.63,4.95,5.62,-5.60,-5.56,-6.00,-0.66,-0.65,-0.68
282.17,4.92,5.58,4.91,5.58,-5.57,-5.53,-5.91,-0.65,-0.66,-0.66
284.99,4.87,5.52,4.87,5.53,-5.53,-5.50,-5.83,-0.67,-0.67,-0.66
287.84,4.83,5.48,4.83,5.49,-5.50,-5.47,-5.74,-0.67,-0.67,-0.65
290.72,4.79,5.45,4.79,5.45,-5.46,-5.43,-5.65,-0.67,-0.67,-0.67
293.63,4.76,5.42,4.76,5.41,-5.42,-5.40,-5.56,-0.67,-0.67,-0.66
296.57,4.73,5.37,4.73,5.38,-5.39,-5.37,-5.46,-0.66,-0.66,-0.65
299.53,4.71,5.36,4.70,5.35,-5.35,-5.33,-5.37,-0.64,-0.65,-0.65
302.53,4.68,5.32,4.68,5.32,-5.31,-5.30,-5.28,-0.64,-0.64,-0.64
305.55,4.65,5.28,4.65,5.29,-5.28,-5.27,-5.19,-0.63,-0.63,-0.64
308.61,4.62,5.25,4.61,5.24,-5.23,-5.23,-5.10,-0.62,-0.62,-0.63
311.69,4.57,5.19,4.57,5.20,-5.19,-5.20,-5.01,-0.62,-0.62,-0.63
314.81,4.53,5.15,4.52,5.14,-5.15,-5.16,-4.93,-0.62,-0.62,-0.62
317.96,4.48,5.09,4.48,5.09,-5.10,-5.13,-4.84,-0.62,-0.62,-0.61
321.14,4.44,5.04,4.44,5.05,-5.05,-5.09,-4.76,-0.62,-0.62,-0.61
324.35,4.41,5.01,4.40,5.00,-5.01,-5.05,-4.68,-0.60,-0.61,-0.61
327.59,4.37,4.95,4.37,4.96,-4.96,-5.02,-4.61,-0.60,-0.60,-0.58
330.87,4.34,4.92,4.34,4.92,-4.92,-4.98,-4.53,-0.58,-0.58,-0.58
334.18,4.31,4.89,4.30,4.88,-4.87,-4.94,-4.46,-0.57,-0.57,-0.59
337.52,4.27,4.84,4.27,4.84,-4.83,-4.90,-4.39,-0.56,-0.56,-0.57
340.90,4.23,4.79,4.22,4.79,-4.78,-4.86,-4.33,-0.55,-0.55,-0.56
344.30,4.18,4.73,4.18,4.73,-4.73,-4.82,-4.26,-0.56,-0.55,-0.55
347.75,4.14,4.68,4.13,4.68,-4.69,-4.79,-4.20,-0.55,-0.55,-0.55
351.23,4.09,4.63,4.09,4.63,-4.64,-4.75,-4.15,-0.56,-0.55,-0.54
354.74,4.06,4.58,4.06,4.59,-4.60,-4.71,-4.10,-0.54,-0.54,-0.52
358.28,4.03,4.55,4.03,4.55,-4.56,-4.66,-4.05,-0.53,-0.53,-0.52
361.87,4.01,4.53,4.00,4.52,-4.52,-4.62,-4.00,-0.51,-0.51,-0.53
365.49,3.98,4.48,3.98,4.49,-4.48,-4.58,-3.96,-0.50,-0.50,-0.51
369.14,3.96,4.46,3.95,4.45,-4.44,-4.54,-3.92,-0.49,-0.49,-0.50
372.83,3.92,4.41,3.92,4.41,-4.40,-4.50,-3.88,-0.49,-0.49,-0.49
376.56,3.88,4.37,3.88,4.37,-4.36,-4.45,-3.84,-0.49,-0.49,-0.49
380.33,3.84,4.32,3.84,4.32,-4.32,-4.41,-3.81,-0.49,-0.49,-0.48
384.13,3.80,4.27,3.80,4.27,-4.28,-4.37,-3.78,-0.49,-0.49,-0.48
387.97,3.77,4.23,3.77,4.23,-4.24,-4.32,-3.76,-0.48,-0.48,-0.47
391.85,3.74,4.19,3.74,4.20,-4.20,-4.28,-3.73,-0.46,-0.46,-0.45
395.77,3.72,4.17,3.71,4.16,-4.16,-4.24,-3.71,-0.44,-0.44,-0.45
399.73,3.69,4.13,3.69,4.12,-4.11,-4.19,-3.69,-0.43,-0.43,-0.44
403.72,3.66,4.08,3.65,4.08,-4.07,-4.14,-3.67,-0.41,-0.41,-0.42
407.76,3.62,4.03,3.61,4.03,-4.02,-4.10,-3.66,-0.41,-0.41,-0.42
411.84,3.57,3.97,3.57,3.97,-3.98,-4.05,-3.64,-0.41,-0.41,-0.41
415.96,3.52,3.91,3.52,3.92,-3.93,-4.01,-3.63,-0.41,-0.41,-0.40
420.12,3.48,3.87,3.48,3.87,-3.88,-3.96,-3.62,-0.40,-0.40,-0.40
424.32,3.45,3.84,3.44,3.83,-3.83,-3.91,-3.61,-0.39,-0.39,-0.39
428.56,3.41,3.78,3.41,3.78,-3.79,-3.86,-3.60,-0.38,-0.38,-0.37
432.85,3.38,3.73,3.38,3.74,-3.74,-3.82,-3.59,-0.37,-0.37,-0.35
437.18,3.35,3.71,3.34,3.70,-3.70,-3.77,-3.58,-0.35,-0.35,-0.36
441.55,3.31,3.66,3.31,3.66,-3.65,-3.72,-3.57,-0.34,-0.34,-0.35
445.96,3.28,3.62,3.27,3.62,-3.60,-3.67,-3.56,-0.33,-0.33,-0.34
450.42,3.23,3.56,3.23,3.56,-3.55,-3.62,-3.55,-0.33,-0.33,-0.34
454.93,3.18,3.50,3.18,3.51,-3.51,-3.57,-3.54,-0.33,-0.33,-0.33
459.48,3.14,3.45,3.14,3.45,-3.46,-3.52,-3.52,-0.33,-0.33,-0.32
464.07,3.10,3.39,3.10,3.40,-3.42,-3.47,-3.51,-0.32,-0.32,-0.30
468.71,3.07,3.37,3.07,3.36,-3.37,-3.42,-3.49,-0.31,-0.31,-0.30
473.40,3.04,3.33,3.04,3.33,-3.33,-3.37,-3.47,-0.29,-0.29,-0.29
478.13,3.02,3.30,3.01,3.30,-3.29,-3.32,-3.45,-0.27,-0.27,-0.28
482.91,2.99,3.26,2.99,3.26,-3.25,-3.27,-3.43,-0.26,-0.26,-0.27
487.74,2.96,3.22,2.95,3.22,-3.21,-3.22,-3.40,-0.25,-0.26,-0.26
492.62,2.92,3.17,2.92,3.17,-3.17,-3.17,-3.37,-0.25,-0.25,-0.25
497.55,2.88,3.12,2.88,3.12,-3.13,-3.12,-3.34,-0.25,-0.25,-0.24
502.52,2.85,3.08,2.85,3.08,-3.08,-3.07,-3.31,-0.23,-0.23,-0.23
507.55,2.82,3.03,2.81,3.03,-3.03,-3.01,-3.27,-0.22,-0.22,-0.21
512.62,2.79,2.99,2.78,2.99,-2.99,-2.96,-3.23,-0.20,-0.20,-0.20
517.75,2.75,2.93,2.75,2.94,-2.94,-2.91,-3.18,-0.19,-0.19,-0.19
