frequency,raw,error,smoothed,error_smoothed,equalization,parametric_eq,fixed_band_eq,equalized_raw,equalized_smoothed,target
20.00,-4.09,-5.76,-4.09,-5.76,5.76,5.61,1.38,1.67,1.67,1.67
20.20,-4.00,-5.68,-4.00,-5.68,5.67,5.56,1.42,1.68,1.68,1.68
20.40,-3.91,-5.60,-3.90,-5.59,5.59,5.50,1.47,1.69,1.69,1.69
20.61,-3.82,-5.51,-3.82,-5.51,5.51,5.44,1.51,1.69,1.70,1.69
20.81,-3.73,-5.43,-3.73,-5.42,5.44,5.38,1.55,1.71,1.71,1.70
21.02,-3.64,-5.34,-3.64,-5.35,5.36,5.31,1.60,1.72,1.72,1.70
21.23,-3.57,-5.28,-3.57,-5.28,5.29,5.24,1.65,1.72,1.72,1.71
21.44,-3.51,-5.22,-3.50,-5.21,5.21,5.17,1.69,1.71,1.71,1.71
21.66,-3.44,-5.15,-3.44,-5.15,5.15,5.10,1.74,1.71,1.71,1.71
21.87,-3.37,-5.08,-3.37,-5.08,5.08,5.02,1.80,1.72,1.72,1.71
22.09,-3.30,-5.02,-3.30,-5.02,5.02,4.94,1.85,1.72,1.72,1.72
22.31,-3.24,-4.96,-3.24,-4.95,4.95,4.86,1.90,1.72,1.72,1.72
22.54,-3.18,-4.89,-3.18,-4.89,4.88,4.78,1.96,1.70,1.70,1.71
22.76,-3.12,-4.82,-3.12,-4.82,4.80,4.70,2.01,1.68,1.69,1.70
22.99,-3.05,-4.75,-3.04,-4.74,4.72,4.61,2.07,1.67,1.68,1.70
23.22,-2.96,-4.66,-2.96,-4.65,4.64,4.53,2.13,1.68,1.68,1.70
23.45,-2.87,-4.55,-2.87,-4.56,4.57,4.44,2.19,1.70,1.70,1.69
23.69,-2.78,-4.47,-2.77,-4.46,4.50,4.35,2.25,1.72,1.72,1.69
23.92,-2.69,-4.37,-2.70,-4.38,4.44,4.27,2.31,1.75,1.74,1.69
24.16,-2.64,-4.32,-2.64,-4.33,4.37,4.18,2.38,1.73,1.73,1.69
24.40,-2.61,-4.29,-2.61,-4.29,4.30,4.09,2.44,1.69,1.69,1.69
24.65,-2.58,-4.26,-2.58,-4.27,4.22,4.01,2.51,1.64,1.64,1.69
24.89,-2.54,-4.22,-2.52,-4.21,4.13,3.92,2.57,1.59,1.61,1.69
25.14,-2.43,-4.12,-2.42,-4.10,4.03,3.84,2.64,1.60,1.61,1.68
25.39,-2.27,-3.95,-2.28,-3.96,3.93,3.75,2.70,1.66,1.65,1.67
25.65,-2.13,-3.80,-2.12,-3.80,3.83,3.67,2.77,1.71,1.71,1.67
25.91,-1.97,-3.64,-1.99,-3.66,3.73,3.58,2.83,1.76,1.75,1.67
26.16,-1.89,-3.56,-1.90,-3.57,3.64,3.50,2.90,1.75,1.74,1.67
26.43,-1.85,-3.52,-1.84,-3.51,3.55,3.42,2.96,1.70,1.71,1.67
26.69,-1.81,-3.48,-1.81,-3.48,3.47,3.34,3.02,1.67,1.66,1.67
26.96,-1.78,-3.45,-1.77,-3.44,3.41,3.26,3.08,1.63,1.64,1.67
27.23,-1.71,-3.38,-1.71,-3.38,3.34,3.18,3.14,1.63,1.64,1.67
27.50,-1.63,-3.30,-1.64,-3.31,3.27,3.10,3.20,1.65,1.64,1.67
27.77,-1.56,-3.22,-1.56,-3.23,3.20,3.02,3.25,1.64,1.64,1.67
28.05,-1.48,-3.14,-1.47,-3.13,3.11,2.95,3.30,1.64,1.65,1.67
28.33,-1.37,-3.03,-1.36,-3.03,3.03,2.87,3.35,1.66,1.67,1.67
28.62,-1.25,-2.92,-1.25,-2.92,2.95,2.80,3.39,1.70,1.70,1.67
28.90,-1.14,-2.81,-1.15,-2.82,2.87,2.73,3.43,1.73,1.72,1.68
29.19,-1.08,-2.75,-1.08,-2.76,2.80,2.66,3.46,1.72,1.71,1.67
29.48,-1.05,-2.72,-1.04,-2.72,2.73,2.59,3.49,1.68,1.68,1.67
29.78,-1.02,-2.70,-1.01,-2.69,2.66,2.52,3.51,1.65,1.65,1.68
30.08,-0.98,-2.66,-0.97,-2.65,2.61,2.45,3.53,1.63,1.64,1.68
30.38,-0.90,-2.58,-0.90,-2.58,2.56,2.38,3.54,1.66,1.66,1.68
30.68,-0.82,-2.50,-0.82,-2.49,2.50,2.32,3.54,1.69,1.69,1.68
30.99,-0.73,-2.41,-0.74,-2.42,2.45,2.25,3.54,1.72,1.71,1.68
31.30,-0.69,-2.36,-0.69,-2.37,2.39,2.19,3.53,1.70,1.70,1.68
31.61,-0.66,-2.33,-0.65,-2.33,2.32,2.13,3.52,1.67,1.67,1.68
31.93,-0.62,-2.29,-0.61,-2.28,2.26,2.07,3.49,1.64,1.65,1.67
32.24,-0.55,-2.21,-0.55,-2.21,2.19,2.01,3.47,1.65,1.65,1.66
32.57,-0.48,-2.14,-0.48,-2.14,2.13,1.95,3.43,1.66,1.66,1.66
32.89,-0.40,-2.06,-0.41,-2.06,2.07,1.89,3.39,1.68,1.67,1.66
33.22,-0.35,-2.00,-0.35,-2.00,2.01,1.83,3.35,1.66,1.66,1.65
33.55,-0.30,-1.94,-0.29,-1.94,1.94,1.78,3.30,1.65,1.65,1.65
33.89,-0.25,-1.88,-0.24,-1.88,1.88,1.72,3.25,1.63,1.64,1.64
34.23,-0.19,-1.82,-0.19,-1.82,1.82,1.67,3.19,1.63,1.63,1.63
34.57,-0.14,-1.77,-0.14,-1.77,1.76,1.62,3.12,1.63,1.63,1.63
34.92,-0.08,-1.71,-0.08,-1.71,1.72,1.57,3.06,1.64,1.63,1.63
35.27,-0.04,-1.67,-0.03,-1.66,1.67,1.51,2.98,1.63,1.64,1.63
35.62,0.01,-1.61,0.02,-1.61,1.63,1.46,2.91,1.64,1.64,1.63
35.97,0.06,-1.56,0.05,-1.57,1.58,1.41,2.83,1.65,1.63,1.62
36.33,0.08,-1.54,0.08,-1.54,1.53,1.37,2.76,1.62,1.61,1.62
36.70,0.10,-1.52,0.11,-1.51,1.48,1.32,2.68,1.59,1.59,1.62
37.06,0.13,-1.48,0.15,-1.46,1.43,1.27,2.59,1.57,1.59,1.62
37.43,0.22,-1.39,0.22,-1.39,1.38,1.23,2.51,1.61,1.61,1.62
37.81,0.31,-1.31,0.30,-1.32,1.33,1.18,2.43,1.65,1.63,1.62
38.19,0.37,-1.25,0.37,-1.25,1.28,1.14,2.34,1.66,1.65,1.62
38.57,0.40,-1.21,0.41,-1.21,1.23,1.09,2.26,1.64,1.64,1.62
38.95,0.44,-1.18,0.44,-1.18,1.18,1.05,2.17,1.63,1.63,1.62
39.34,0.47,-1.15,0.48,-1.15,1.14,1.00,2.09,1.61,1.61,1.62
39.74,0.51,-1.11,0.51,-1.11,1.09,0.96,2.00,1.61,1.61,1.62
40.14,0.55,-1.06,0.55,-1.06,1.05,0.92,1.92,1.61,1.60,1.61
40.54,0.59,-1.02,0.59,-1.02,1.01,0.88,1.84,1.61,1.61,1.61
40.94,0.63,-0.97,0.64,-0.97,0.97,0.84,1.75,1.61,1.61,1.61
41.35,0.68,-0.92,0.68,-0.92,0.93,0.80,1.67,1.61,1.61,1.60
41.76,0.72,-0.87,0.72,-0.87,0.88,0.76,1.59,1.60,1.60,1.59
42.18,0.76,-0.82,0.76,-0.83,0.83,0.72,1.51,1.59,1.59,1.59
42.60,0.79,-0.79,0.80,-0.79,0.78,0.68,1.43,1.57,1.57,1.58
43.03,0.83,-0.75,0.84,-0.74,0.73,0.65,1.35,1.56,1.57,1.58
43.46,0.89,-0.68,0.89,-0.68,0.68,0.61,1.27,1.57,1.57,1.57
43.90,0.95,-0.61,0.94,-0.62,0.63,0.57,1.19,1.58,1.57,1.56
44.33,0.98,-0.57,0.98,-0.57,0.58,0.54,1.12,1.57,1.57,1.55
44.78,1.01,-0.54,1.01,-0.53,0.54,0.50,1.04,1.55,1.55,1.55
45.23,1.04,-0.50,1.04,-0.50,0.49,0.46,0.97,1.54,1.54,1.54
45.68,1.07,-0.47,1.08,-0.47,0.45,0.43,0.89,1.53,1.53,1.54
46.13,1.11,-0.43,1.11,-0.43,0.42,0.39,0.82,1.54,1.54,1.54
46.60,1.15,-0.39,1.15,-0.39,0.40,0.36,0.75,1.55,1.55,1.54
47.06,1.19,-0.35,1.19,-0.35,0.38,0.32,0.68,1.57,1.56,1.54
47.53,1.21,-0.33,1.21,-0.33,0.35,0.29,0.61,1.57,1.57,1.55
48.01,1.22,-0.33,1.22,-0.33,0.33,0.26,0.54,1.56,1.55,1.55
48.49,1.22,-0.33,1.22,-0.33,0.31,0.22,0.47,1.53,1.53,1.55
48.97,1.22,-0.33,1.24,-0.32,0.29,0.19,0.41,1.51,1.53,1.56
49.46,1.27,-0.29,1.27,-0.29,0.26,0.16,0.34,1.54,1.53,1.56
49.96,1.32,-0.25,1.32,-0.25,0.24,0.12,0.28,1.57,1.56,1.57
50.46,1.36,-0.21,1.37,-0.21,0.23,0.09,0.21,1.59,1.60,1.57
50.96,1.41,-0.17,1.40,-0.19,0.22,0.06,0.15,1.63,1.62,1.59
51.47,1.41,-0.18,1.41,-0.17,0.21,0.03,0.09,1.62,1.63,1.59
51.99,1.41,-0.18,1.42,-0.17,0.20,-0.01,0.03,1.61,1.62,1.59
52.51,1.41,-0.18,1.41,-0.18,0.18,-0.04,-0.03,1.60,1.59,1.59
53.03,1.41,-0.18,1.38,-0.21,0.16,-0.07,-0.09,1.57,1.54,1.59
53.56,1.36,-0.23,1.38,-0.22,0.14,-0.10,-0.15,1.50,1.51,1.59
54.10,1.36,-0.24,1.44,-0.16,0.11,-0.13,-0.21,1.48,1.55,1.60
54.64,1.55,-0.05,1.52,-0.08,0.08,-0.16,-0.26,1.64,1.61,1.60
55.18,1.67,0.07,1.61,0.01,0.05,-0.20,-0.32,1.73,1.66,1.60
55.74,1.62,0.03,1.65,0.05,0.02,-0.23,-0.37,1.64,1.67,1.59
56.29,1.60,0.01,1.62,0.03,-0.01,-0.26,-0.42,1.59,1.61,1.59
56.86,1.60,0.01,1.60,0.01,-0.03,-0.29,-0.47,1.57,1.57,1.59
57.42,1.60,0.03,1.60,0.02,-0.04,-0.32,-0.52,1.57,1.56,1.58
58.00,1.60,0.04,1.60,0.04,-0.03,-0.35,-0.57,1.57,1.57,1.56
58.58,1.60,0.05,1.61,0.05,-0.04,-0.38,-0.61,1.57,1.57,1.55
59.16,1.60,0.06,1.61,0.07,-0.05,-0.41,-0.65,1.55,1.55,1.54
59.76,1.60,0.08,1.57,0.05,-0.09,-0.45,-0.69,1.51,1.48,1.52
60.35,1.57,0.07,1.56,0.06,-0.14,-0.48,-0.73,1.44,1.42,1.50
60.96,1.52,0.05,1.62,0.14,-0.19,-0.51,-0.77,1.33,1.42,1.48
61.57,1.72,0.27,1.70,0.25,-0.26,-0.54,-0.81,1.47,1.45,1.45
62.18,1.86,0.45,1.78,0.37,-0.32,-0.57,-0.84,1.54,1.46,1.42
62.80,1.81,0.43,1.84,0.46,-0.38,-0.60,-0.87,1.43,1.45,1.38
63.43,1.79,0.46,1.82,0.48,-0.44,-0.63,-0.90,1.35,1.37,1.33
64.07,1.79,0.50,1.79,0.50,-0.50,-0.66,-0.93,1.30,1.29,1.30
64.71,1.79,0.54,1.80,0.54,-0.55,-0.69,-0.96,1.24,1.25,1.25
65.35,1.79,0.58,1.79,0.58,-0.59,-0.73,-0.99,1.20,1.19,1.21
66.01,1.79,0.62,1.77,0.60,-0.63,-0.76,-1.01,1.16,1.13,1.17
66.67,1.74,0.61,1.78,0.64,-0.68,-0.79,-1.03,1.07,1.10,1.13
67.33,1.78,0.68,1.81,0.71,-0.72,-0.82,-1.06,1.06,1.09,1.10
68.01,1.89,0.83,1.85,0.78,-0.77,-0.85,-1.08,1.12,1.08,1.06
68.69,1.89,0.86,1.89,0.86,-0.83,-0.88,-1.10,1.07,1.07,1.03
69.37,1.89,0.89,1.90,0.90,-0.87,-0.92,-1.11,1.02,1.03,1.00
70.07,1.89,0.92,1.89,0.92,-0.91,-0.95,-1.13,0.98,0.98,0.97
70.77,1.89,0.96,1.89,0.95,-0.95,-0.98,-1.15,0.94,0.94,0.94
71.48,1.89,0.98,1.89,0.98,-0.98,-1.01,-1.17,0.91,0.91,0.91
72.19,1.89,1.01,1.89,1.01,-1.02,-1.04,-1.18,0.87,0.87,0.88
72.91,1.89,1.05,1.89,1.04,-1.06,-1.08,-1.20,0.83,0.83,0.85
73.64,1.89,1.08,1.88,1.07,-1.11,-1.11,-1.22,0.79,0.78,0.81
74.38,1.89,1.12,1.91,1.13,-1.16,-1.14,-1.23,0.73,0.75,0.78
75.12,1.91,1.17,1.95,1.21,-1.22,-1.18,-1.25,0.70,0.73,0.74
75.87,2.03,1.34,1.99,1.30,-1.28,-1.21,-1.27,0.76,0.72,0.69
76.63,2.03,1.38,2.02,1.37,-1.33,-1.24,-1.28,0.70,0.69,0.66
77.40,2.01,1.40,2.02,1.41,-1.38,-1.27,-1.30,0.63,0.64,0.61
78.17,1.99,1.42,2.00,1.43,-1.43,-1.31,-1.32,0.56,0.57,0.57
78.95,1.99,1.47,1.99,1.47,-1.47,-1.34,-1.34,0.52,0.53,0.52
79.74,1.99,1.51,1.99,1.51,-1.50,-1.38,-1.36,0.49,0.49,0.48
80.54,1.99,1.56,1.99,1.55,-1.55,-1.41,-1.38,0.45,0.44,0.43
81.35,1.97,1.58,1.95,1.56,-1.59,-1.44,-1.40,0.38,0.36,0.39
82.16,1.93,1.58,1.94,1.60,-1.65,-1.48,-1.42,0.29,0.30,0.35
82.98,1.91,1.61,1.97,1.66,-1.70,-1.51,-1.45,0.21,0.26,0.31
83.81,2.05,1.79,2.02,1.75,-1.76,-1.55,-1.47,0.30,0.26,0.27
84.65,2.09,1.86,2.09,1.86,-1.81,-1.58,-1.50,0.29,0.28,0.23
85.50,2.12,1.93,2.12,1.93,-1.85,-1.61,-1.53,0.27,0.26,0.19
86.35,2.10,1.96,2.08,1.94,-1.90,-1.65,-1.56,0.20,0.18,0.15
87.22,2.01,1.91,2.04,1.94,-1.95,-1.68,-1.59,0.07,0.09,0.10
88.09,1.99,1.94,2.00,1.94,-1.98,-1.72,-1.62,0.01,0.02,0.06
88.97,1.99,1.97,1.99,1.97,-2.01,-1.75,-1.65,-0.02,-0.03,0.02
89.86,1.99,2.02,1.99,2.02,-2.03,-1.79,-1.68,-0.04,-0.04,-0.02
90.76,1.99,2.06,2.00,2.06,-2.05,-1.82,-1.72,-0.06,-0.05,-0.07
91.66,1.99,2.10,2.00,2.11,-2.07,-1.86,-1.75,-0.08,-0.07,-0.11
92.58,2.00,2.15,1.99,2.13,-2.10,-1.90,-1.79,-0.10,-0.11,-0.14
93.51,1.96,2.15,1.95,2.14,-2.13,-1.93,-1.83,-0.17,-0.18,-0.19
94.44,1.89,2.12,1.91,2.14,-2.16,-1.97,-1.87,-0.26,-0.25,-0.23
95.39,1.86,2.13,1.88,2.15,-2.18,-2.00,-1.91,-0.32,-0.30,-0.27
96.34,1.88,2.19,1.88,2.18,-2.20,-2.04,-1.95,-0.32,-0.32,-0.31
97.30,1.89,2.24,1.88,2.23,-2.23,-2.07,-2.00,-0.33,-0.34,-0.34
98.28,1.88,2.28,1.88,2.27,-2.26,-2.11,-2.04,-0.37,-0.37,-0.39
99.26,1.86,2.29,1.87,2.30,-2.29,-2.14,-2.09,-0.43,-0.43,-0.43
100.25,1.85,2.32,1.85,2.32,-2.33,-2.18,-2.13,-0.48,-0.49,-0.47
101.25,1.83,2.34,1.84,2.35,-2.37,-2.22,-2.18,-0.54,-0.53,-0.51
102.27,1.82,2.38,1.84,2.40,-2.40,-2.25,-2.23,-0.58,-0.56,-0.56
103.29,1.84,2.45,1.84,2.45,-2.42,-2.29,-2.27,-0.58,-0.58,-0.61
104.32,1.84,2.50,1.81,2.46,-2.43,-2.32,-2.32,-0.59,-0.62,-0.66
105.37,1.75,2.45,1.76,2.46,-2.44,-2.36,-2.37,-0.68,-0.68,-0.70
106.42,1.65,2.40,1.69,2.44,-2.44,-2.39,-2.42,-0.79,-0.75,-0.75
107.48,1.64,2.44,1.63,2.42,-2.44,-2.43,-2.46,-0.80,-0.81,-0.80
108.56,1.59,2.44,1.57,2.42,-2.43,-2.46,-2.51,-0.84,-0.86,-0.85
109.64,1.50,2.40,1.52,2.41,-2.42,-2.50,-2.56,-0.92,-0.90,-0.89
110.74,1.46,2.40,1.47,2.41,-2.41,-2.53,-2.60,-0.95,-0.94,-0.93
111.85,1.44,2.42,1.45,2.42,-2.41,-2.56,-2.64,-0.97,-0.96,-0.97
112.97,1.43,2.44,1.42,2.43,-2.41,-2.60,-2.69,-0.98,-1.00,-1.01
114.10,1.40,2.45,1.38,2.43,-2.42,-2.63,-2.73,-1.02,-1.04,-1.05
115.24,1.30,2.38,1.34,2.42,-2.43,-2.66,-2.76,-1.13,-1.09,-1.08
116.39,1.31,2.43,1.32,2.43,-2.45,-2.70,-2.80,-1.14,-1.13,-1.12
117.55,1.33,2.47,1.32,2.45,-2.47,-2.73,-2.83,-1.14,-1.15,-1.13
118.73,1.33,2.49,1.34,2.50,-2.49,-2.76,-2.87,-1.16,-1.15,-1.16
119.92,1.34,2.52,1.35,2.52,-2.51,-2.79,-2.90,-1.17,-1.17,-1.18
121.12,1.35,2.55,1.35,2.55,-2.54,-2.82,-2.92,-1.19,-1.19,-1.19
122.33,1.36,2.57,1.36,2.57,-2.57,-2.86,-2.94,-1.20,-1.21,-1.21
123.55,1.36,2.59,1.37,2.59,-2.59,-2.89,-2.96,-1.23,-1.22,-1.23
124.79,1.37,2.62,1.37,2.62,-2.62,-2.92,-2.98,-1.24,-1.24,-1.24
126.03,1.38,2.64,1.38,2.64,-2.64,-2.94,-2.99,-1.26,-1.26,-1.26
127.29,1.38,2.65,1.39,2.66,-2.66,-2.97,-3.00,-1.28,-1.27,-1.27
128.57,1.39,2.68,1.39,2.68,-2.68,-3.00,-3.01,-1.29,-1.29,-1.29
129.85,1.40,2.70,1.40,2.70,-2.70,-3.03,-3.02,-1.30,-1.30,-1.30
131.15,1.40,2.72,1.41,2.72,-2.72,-3.05,-3.02,-1.32,-1.31,-1.31
132.46,1.41,2.75,1.41,2.74,-2.74,-3.08,-3.02,-1.33,-1.33,-1.33
133.79,1.41,2.76,1.41,2.76,-2.76,-3.11,-3.02,-1.35,-1.35,-1.35
135.12,1.41,2.78,1.42,2.78,-2.78,-3.13,-3.01,-1.37,-1.37,-1.37
136.48,1.42,2.80,1.42,2.80,-2.81,-3.15,-3.00,-1.38,-1.39,-1.38
137.84,1.42,2.82,1.42,2.82,-2.83,-3.18,-2.99,-1.40,-1.40,-1.40
139.22,1.42,2.84,1.42,2.84,-2.84,-3.20,-2.98,-1.41,-1.41,-1.42
140.61,1.42,2.86,1.42,2.86,-2.85,-3.22,-2.97,-1.42,-1.42,-1.44
142.02,1.42,2.88,1.43,2.89,-2.86,-3.24,-2.96,-1.44,-1.43,-1.46
143.44,1.42,2.91,1.42,2.91,-2.88,-3.26,-2.95,-1.46,-1.46,-1.48
144.87,1.42,2.94,1.37,2.89,-2.90,-3.28,-2.93,-1.48,-1.53,-1.51
146.32,1.32,2.86,1.34,2.88,-2.93,-3.29,-2.92,-1.61,-1.59,-1.54
147.78,1.28,2.86,1.35,2.93,-2.97,-3.31,-2.91,-1.68,-1.61,-1.58
149.26,1.42,3.03,1.39,3.00,-3.02,-3.32,-2.89,-1.59,-1.62,-1.61
150.75,1.48,3.14,1.43,3.09,-3.08,-3.34,-2.88,-1.59,-1.64,-1.66
152.26,1.44,3.15,1.44,3.15,-3.15,-3.35,-2.87,-1.70,-1.71,-1.71
153.78,1.38,3.15,1.42,3.19,-3.22,-3.36,-2.86,-1.83,-1.79,-1.76
155.32,1.40,3.23,1.43,3.26,-3.28,-3.37,-2.85,-1.88,-1.85,-1.83
156.88,1.50,3.38,1.46,3.34,-3.33,-3.38,-2.84,-1.83,-1.87,-1.88
158.44,1.47,3.41,1.48,3.42,-3.35,-3.39,-2.83,-1.88,-1.88,-1.94
160.03,1.43,3.43,1.44,3.43,-3.36,-3.40,-2.82,-1.93,-1.92,-1.99
161.63,1.36,3.40,1.34,3.37,-3.34,-3.40,-2.82,-1.98,-2.00,-2.03
163.24,1.21,3.30,1.23,3.31,-3.30,-3.41,-2.82,-2.09,-2.07,-2.08
164.88,1.09,3.21,1.12,3.23,-3.24,-3.41,-2.82,-2.15,-2.13,-2.11
166.53,1.03,3.18,1.02,3.16,-3.18,-3.42,-2.82,-2.14,-2.16,-2.14
168.19,0.95,3.11,0.95,3.11,-3.11,-3.42,-2.82,-2.16,-2.16,-2.16
169.87,0.88,3.05,0.89,3.06,-3.07,-3.42,-2.83,-2.19,-2.18,-2.17
171.57,0.83,3.01,0.80,2.97,-3.04,-3.42,-2.84,-2.21,-2.24,-2.18
173.29,0.77,2.95,0.79,2.96,-3.03,-3.41,-2.85,-2.25,-2.24,-2.17
175.02,0.73,2.89,0.85,3.01,-3.03,-3.41,-2.86,-2.30,-2.18,-2.16
176.77,1.02,3.17,0.92,3.07,-3.05,-3.41,-2.88,-2.03,-2.13,-2.15
178.54,1.04,3.18,0.99,3.12,-3.07,-3.40,-2.89,-2.03,-2.09,-2.13
180.32,0.96,3.07,1.04,3.15,-3.10,-3.39,-2.91,-2.14,-2.06,-2.11
182.13,1.02,3.12,1.04,3.13,-3.12,-3.39,-2.93,-2.10,-2.09,-2.09
183.95,1.11,3.18,1.08,3.15,-3.15,-3.38,-2.96,-2.04,-2.07,-2.07
185.79,1.12,3.18,1.13,3.19,-3.17,-3.37,-2.98,-2.04,-2.04,-2.06
187.65,1.14,3.20,1.13,3.18,-3.18,-3.36,-3.01,-2.04,-2.06,-2.05
189.52,1.11,3.16,1.12,3.17,-3.20,-3.34,-3.04,-2.09,-2.08,-2.05
191.42,1.11,3.16,1.14,3.19,-3.23,-3.33,-3.07,-2.12,-2.08,-2.05
193.33,1.19,3.23,1.19,3.23,-3.26,-3.32,-3.11,-2.06,-2.07,-2.04
195.27,1.27,3.32,1.25,3.30,-3.29,-3.30,-3.14,-2.02,-2.04,-2.04
197.22,1.30,3.36,1.30,3.35,-3.32,-3.28,-3.18,-2.02,-2.02,-2.05
199.19,1.32,3.38,1.32,3.38,-3.35,-3.27,-3.22,-2.03,-2.03,-2.06
201.18,1.32,3.39,1.33,3.39,-3.38,-3.25,-3.26,-2.06,-2.05,-2.07
203.19,1.33,3.41,1.33,3.41,-3.41,-3.23,-3.30,-2.08,-2.08,-2.08
205.23,1.33,3.42,1.33,3.42,-3.43,-3.21,-3.34,-2.09,-2.09,-2.09
207.28,1.33,3.43,1.33,3.43,-3.44,-3.19,-3.38,-2.10,-2.10,-2.10
209.35,1.33,3.44,1.33,3.44,-3.45,-3.17,-3.42,-2.11,-2.11,-2.11
211.44,1.33,3.46,1.33,3.45,-3.46,-3.14,-3.46,-2.12,-2.13,-2.12
213.56,1.32,3.46,1.33,3.46,-3.47,-3.12,-3.51,-2.14,-2.14,-2.13
215.69,1.32,3.47,1.32,3.47,-3.47,-3.10,-3.55,-2.15,-2.15,-2.15
217.85,1.31,3.47,1.32,3.48,-3.48,-3.07,-3.59,-2.17,-2.16,-2.16
220.03,1.31,3.49,1.32,3.49,-3.48,-3.05,-3.62,-2.17,-2.16,-2.18
222.23,1.31,3.50,1.32,3.51,-3.48,-3.02,-3.66,-2.17,-2.16,-2.18
224.45,1.31,3.50,1.29,3.48,-3.48,-3.00,-3.69,-2.16,-2.19,-2.19
226.70,1.28,3.48,1.25,3.45,-3.47,-2.97,-3.72,-2.18,-2.21,-2.20
228.96,1.16,3.37,1.24,3.44,-3.45,-2.94,-3.75,-2.29,-2.21,-2.20
231.25,1.24,3.44,1.23,3.44,-3.44,-2.91,-3.77,-2.19,-2.20,-2.20
233.57,1.28,3.49,1.23,3.43,-3.42,-2.88,-3.79,-2.14,-2.19,-2.21
235.90,1.21,3.42,1.23,3.43,-3.41,-2.85,-3.81,-2.19,-2.18,-2.20
238.26,1.17,3.37,1.20,3.39,-3.40,-2.82,-3.82,-2.23,-2.21,-2.20
240.64,1.18,3.37,1.18,3.36,-3.41,-2.79,-3.82,-2.22,-2.23,-2.18
243.05,1.19,3.37,1.19,3.37,-3.41,-2.76,-3.82,-2.22,-2.22,-2.18
245.48,1.21,3.39,1.21,3.39,-3.41,-2.73,-3.82,-2.20,-2.20,-2.17
247.93,1.24,3.41,1.25,3.42,-3.41,-2.70,-3.81,-2.17,-2.15,-2.17
250.41,1.28,3.45,1.29,3.45,-3.40,-2.67,-3.79,-2.12,-2.11,-2.16
252.92,1.32,3.48,1.29,3.45,-3.39,-2.64,-3.77,-2.07,-2.10,-2.16
255.45,1.25,3.42,1.25,3.41,-3.39,-2.61,-3.74,-2.13,-2.13,-2.16
258.00,1.18,3.35,1.18,3.35,-3.37,-2.58,-3.71,-2.19,-2.19,-2.17
260.58,1.09,3.27,1.12,3.29,-3.35,-2.54,-3.67,-2.26,-2.23,-2.17
263.19,1.08,3.26,1.10,3.28,-3.32,-2.51,-3.62,-2.24,-2.22,-2.18
265.82,1.11,3.29,1.10,3.28,-3.29,-2.48,-3.57,-2.18,-2.19,-2.18
268.48,1.13,3.32,1.11,3.29,-3.26,-2.44,-3.52,-2.13,-2.15,-2.18
271.16,1.06,3.25,1.07,3.25,-3.22,-2.41,-3.46,-2.16,-2.16,-2.19
273.87,1.00,3.19,1.01,3.20,-3.18,-2.38,-3.40,-2.18,-2.18,-2.19
276.61,0.92,3.12,0.94,3.14,-3.14,-2.34,-3.33,-2.21,-2.19,-2.19
279.38,0.91,3.11,0.90,3.09,-3.08,-2.31,-3.26,-2.17,-2.18,-2.20
282.17,0.84,3.03,0.84,3.03,-3.02,-2.28,-3.18,-2.17,-2.18,-2.19
284.99,0.78,2.97,0.76,2.95,-2.95,-2.24,-3.11,-2.17,-2.19,-2.18
287.84,0.65,2.84,0.67,2.85,-2.88,-2.21,-3.03,-2.23,-2.21,-2.19
290.72,0.59,2.77,0.60,2.78,-2.82,-2.18,-2.95,-2.23,-2.22,-2.18
293.63,0.55,2.72,0.56,2.73,-2.75,-2.14,-2.86,-2.20,-2.19,-2.17
296.57,0.54,2.71,0.53,2.70,-2.69,-2.11,-2.78,-2.14,-2.15,-2.16
299.53,0.50,2.67,0.49,2.65,-2.62,-2.08,-2.69,-2.12,-2.13,-2.17
302.53,0.42,2.58,0.43,2.59,-2.55,-2.04,-2.61,-2.13,-2.12,-2.16
305.55,0.34,2.50,0.33,2.49,-2.49,-2.01,-2.52,-2.15,-2.16,-2.16
308.61,0.25,2.42,0.24,2.41,-2.42,-1.97,-2.43,-2.17,-2.18,-2.16
311.69,0.11,2.28,0.17,2.34,-2.36,-1.94,-2.34,-2.24,-2.18,-2.16
314.81,0.15,2.33,0.10,2.27,-2.29,-1.91,-2.26,-2.13,-2.19,-2.18
317.96,0.04,2.22,0.05,2.23,-2.22,-1.87,-2.17,-2.17,-2.17,-2.18
321.14,-0.06,2.13,-0.02,2.16,-2.15,-1.84,-2.08,-2.21,-2.18,-2.19
324.35,-0.06,2.13,-0.12,2.08,-2.09,-1.80,-1.99,-2.15,-2.21,-2.19
327.59,-0.23,1.98,-0.15,2.05,-2.04,-1.77,-1.91,-2.27,-2.19,-2.20
330.87,-0.21,2.01,-0.22,2.00,-1.99,-1.74,-1.82,-2.20,-2.21,-2.21
334.18,-0.22,2.01,-0.32,1.91,-1.94,-1.70,-1.74,-2.16,-2.26,-2.23
337.52,-0.45,1.79,-0.35,1.88,-1.88,-1.67,-1.65,-2.33,-2.23,-2.24
340.90,-0.45,1.79,-0.40,1.85,-1.82,-1.63,-1.57,-2.27,-2.22,-2.24
344.30,-0.36,1.89,-0.46,1.79,-1.77,-1.60,-1.49,-2.12,-2.23,-2.25
347.75,-0.51,1.77,-0.52,1.75,-1.72,-1.56,-1.41,-2.22,-2.23,-2.27
351.23,-0.68,1.61,-0.63,1.66,-1.67,-1.53,-1.33,-2.34,-2.29,-2.28
354.74,-0.75,1.55,-0.74,1.55,-1.61,-1.49,-1.25,-2.36,-2.36,-2.29
358.28,-0.79,1.52,-0.79,1.51,-1.56,-1.45,-1.17,-2.35,-2.36,-2.31
361.87,-0.82,1.50,-0.81,1.51,-1.51,-1.42,-1.09,-2.32,-2.31,-2.32
365.49,-0.83,1.51,-0.82,1.51,-1.46,-1.38,-1.01,-2.28,-2.28,-2.34
369.14,-0.86,1.49,-0.89,1.45,-1.41,-1.34,-0.94,-2.27,-2.31,-2.35
372.83,-0.97,1.39,-1.00,1.36,-1.36,-1.30,-0.86,-2.33,-2.36,-2.36
376.56,-1.16,1.21,-1.09,1.29,-1.32,-1.27,-0.79,-2.47,-2.40,-2.37
380.33,-1.17,1.21,-1.14,1.25,-1.27,-1.23,-0.72,-2.43,-2.40,-2.38
384.13,-1.12,1.28,-1.18,1.22,-1.21,-1.18,-0.64,-2.33,-2.39,-2.39
387.97,-1.19,1.22,-1.23,1.17,-1.15,-1.14,-0.57,-2.34,-2.38,-2.40
391.85,-1.36,1.06,-1.31,1.10,-1.10,-1.10,-0.50,-2.46,-2.41,-2.41
395.77,-1.44,0.99,-1.40,1.03,-1.06,-1.06,-0.44,-2.49,-2.45,-2.43
399.73,-1.42,1.02,-1.45,0.98,-1.01,-1.01,-0.37,-2.43,-2.46,-2.44
403.72,-1.48,0.97,-1.48,0.97,-0.96,-0.96,-0.30,-2.44,-2.44,-2.45
407.76,-1.55,0.92,-1.54,0.92,-0.90,-0.91,-0.24,-2.45,-2.44,-2.47
411.84,-1.63,0.85,-1.63,0.84,-0.83,-0.86,-0.18,-2.46,-2.46,-2.48
415.96,-1.72,0.77,-1.71,0.78,-0.76,-0.81,-0.11,-2.48,-2.47,-2.49
420.12,-1.81,0.68,-1.79,0.71,-0.69,-0.75,-0.05,-2.50,-2.48,-2.49
424.32,-1.85,0.65,-1.89,0.60,-0.61,-0.69,0.00,-2.46,-2.51,-2.50
428.56,-2.00,0.50,-2.00,0.50,-0.53,-0.63,0.06,-2.52,-2.52,-2.50
432.85,-2.14,0.35,-2.09,0.41,-0.43,-0.56,0.11,-2.56,-2.51,-2.49
437.18,-2.15,0.33,-2.16,0.32,-0.33,-0.49,0.17,-2.47,-2.48,-2.48
441.55,-2.19,0.27,-2.20,0.26,-0.23,-0.42,0.22,-2.41,-2.43,-2.46
445.96,-2.26,0.19,-2.27,0.17,-0.13,-0.34,0.26,-2.38,-2.40,-2.44
450.42,-2.38,0.04,-2.38,0.03,-0.03,-0.25,0.31,-2.41,-2.41,-2.41
454.93,-2.50,-0.12,-2.47,-0.10,0.07,-0.16,0.35,-2.43,-2.40,-2.37
459.48,-2.55,-0.21,-2.52,-0.19,0.16,-0.06,0.39,-2.39,-2.37,-2.33
464.07,-2.54,-0.23,-2.56,-0.26,0.24,0.04,0.42,-2.29,-2.32,-2.30
468.71,-2.57,-0.30,-2.60,-0.33,0.33,0.14,0.45,-2.24,-2.26,-2.26
473.40,-2.67,-0.44,-2.63,-0.40,0.42,0.25,0.48,-2.25,-2.21,-2.22
478.13,-2.68,-0.49,-2.67,-0.48,0.50,0.37,0.51,-2.18,-2.17,-2.19
482.91,-2.68,-0.52,-2.71,-0.56,0.58,0.48,0.53,-2.10,-2.14,-2.16
487.74,-2.75,-0.62,-2.74,-0.61,0.65,0.59,0.55,-2.10,-2.09,-2.13
492.62,-2.83,-0.72,-2.80,-0.70,0.71,0.70,0.56,-2.12,-2.09,-2.11
