frequency,raw,error,smoothed,error_smoothed,equalization,parametric_eq,fixed_band_eq,equalized_raw,equalized_smoothed,target
20.00,3.26,-2.36,3.27,-2.35,2.40,0.74,-0.41,5.67,5.68,5.62
20.20,3.33,-2.30,3.32,-2.31,2.33,0.77,-0.42,5.66,5.65,5.63
20.40,3.39,-2.25,3.39,-2.25,2.24,0.79,-0.43,5.64,5.63,5.64
20.61,3.46,-2.18,3.46,-2.19,2.16,0.81,-0.44,5.62,5.61,5.64
20.81,3.53,-2.12,3.53,-2.12,2.07,0.82,-0.45,5.60,5.60,5.65
21.02,3.60,-2.05,3.62,-2.03,1.98,0.81,-0.46,5.58,5.60,5.65
21.23,3.74,-1.92,3.74,-1.92,1.88,0.80,-0.47,5.62,5.62,5.66
21.44,3.88,-1.78,3.88,-1.78,1.78,0.78,-0.48,5.66,5.65,5.66
21.66,4.02,-1.64,4.03,-1.63,1.66,0.75,-0.49,5.68,5.69,5.66
21.87,4.16,-1.50,4.16,-1.51,1.54,0.71,-0.51,5.70,5.70,5.66
22.09,4.28,-1.39,4.27,-1.39,1.42,0.67,-0.52,5.70,5.69,5.67
22.31,4.36,-1.31,4.37,-1.30,1.31,0.62,-0.53,5.67,5.68,5.67
22.54,4.45,-1.21,4.46,-1.20,1.20,0.56,-0.54,5.65,5.66,5.66
22.76,4.54,-1.11,4.54,-1.11,1.10,0.49,-0.55,5.65,5.65,5.65
22.99,4.63,-1.02,4.63,-1.02,1.01,0.43,-0.57,5.64,5.64,5.65
23.22,4.72,-0.93,4.72,-0.92,0.92,0.36,-0.58,5.64,5.64,5.65
23.45,4.81,-0.82,4.81,-0.83,0.83,0.29,-0.59,5.64,5.64,5.64
23.69,4.90,-0.74,4.90,-0.74,0.73,0.22,-0.61,5.63,5.63,5.64
23.92,4.99,-0.64,5.00,-0.64,0.63,0.15,-0.62,5.62,5.63,5.64
24.16,5.10,-0.53,5.10,-0.53,0.52,0.08,-0.64,5.63,5.62,5.64
24.40,5.21,-0.42,5.21,-0.42,0.42,0.01,-0.65,5.63,5.63,5.64
24.65,5.32,-0.31,5.33,-0.31,0.32,-0.06,-0.67,5.64,5.64,5.64
24.89,5.43,-0.20,5.43,-0.20,0.22,-0.13,-0.69,5.65,5.65,5.64
25.14,5.53,-0.10,5.52,-0.11,0.12,-0.20,-0.70,5.65,5.64,5.63
25.39,5.60,-0.02,5.61,-0.02,0.03,-0.26,-0.72,5.63,5.64,5.62
25.65,5.68,0.06,5.69,0.06,-0.06,-0.33,-0.74,5.62,5.63,5.62
25.91,5.76,0.14,5.76,0.14,-0.14,-0.39,-0.76,5.62,5.62,5.62
26.16,5.84,0.22,5.84,0.22,-0.22,-0.45,-0.77,5.62,5.62,5.62
26.43,5.91,0.29,5.91,0.29,-0.29,-0.51,-0.79,5.62,5.62,5.62
26.69,5.98,0.36,5.99,0.36,-0.36,-0.57,-0.81,5.62,5.62,5.62
26.96,6.06,0.44,6.06,0.44,-0.43,-0.63,-0.83,5.63,5.63,5.62
27.23,6.13,0.51,6.13,0.51,-0.51,-0.68,-0.85,5.63,5.62,5.62
27.50,6.20,0.58,6.20,0.58,-0.58,-0.74,-0.88,5.62,5.62,5.62
27.77,6.26,0.64,6.27,0.65,-0.66,-0.79,-0.90,5.60,5.61,5.62
28.05,6.34,0.73,6.35,0.73,-0.74,-0.84,-0.92,5.60,5.60,5.62
28.33,6.43,0.82,6.43,0.82,-0.83,-0.90,-0.94,5.61,5.61,5.62
28.62,6.53,0.91,6.53,0.91,-0.91,-0.95,-0.97,5.62,5.62,5.62
28.90,6.63,1.01,6.63,1.01,-1.01,-1.00,-0.99,5.63,5.62,5.63
29.19,6.72,1.10,6.73,1.10,-1.10,-1.05,-1.02,5.62,5.63,5.62
29.48,6.82,1.20,6.83,1.20,-1.19,-1.10,-1.04,5.63,5.63,5.62
29.78,6.92,1.29,6.92,1.29,-1.28,-1.14,-1.07,5.64,5.63,5.63
30.08,7.01,1.38,7.01,1.37,-1.37,-1.19,-1.10,5.64,5.64,5.63
30.38,7.08,1.45,7.09,1.46,-1.45,-1.24,-1.13,5.63,5.64,5.63
30.68,7.16,1.53,7.16,1.53,-1.53,-1.29,-1.16,5.63,5.64,5.63
30.99,7.24,1.61,7.23,1.61,-1.60,-1.34,-1.19,5.64,5.63,5.63
31.30,7.30,1.67,7.30,1.67,-1.67,-1.38,-1.22,5.63,5.63,5.63
31.61,7.36,1.74,7.37,1.74,-1.75,-1.43,-1.25,5.62,5.62,5.63
31.93,7.43,1.81,7.43,1.81,-1.82,-1.48,-1.28,5.61,5.62,5.62
32.24,7.50,1.89,7.50,1.89,-1.89,-1.52,-1.32,5.61,5.61,5.61
32.57,7.58,1.97,7.58,1.97,-1.97,-1.57,-1.35,5.61,5.61,5.61
32.89,7.65,2.04,7.66,2.05,-2.05,-1.62,-1.39,5.60,5.61,5.61
33.22,7.73,2.13,7.73,2.13,-2.14,-1.66,-1.42,5.60,5.59,5.60
33.55,7.81,2.22,7.81,2.22,-2.23,-1.71,-1.46,5.59,5.58,5.60
33.89,7.89,2.31,7.90,2.31,-2.32,-1.76,-1.50,5.57,5.58,5.59
34.23,7.99,2.41,7.99,2.41,-2.41,-1.80,-1.54,5.58,5.58,5.58
34.57,8.09,2.51,8.09,2.51,-2.50,-1.85,-1.58,5.59,5.59,5.58
34.92,8.19,2.61,8.18,2.60,-2.59,-1.90,-1.63,5.61,5.60,5.58
35.27,8.26,2.68,8.26,2.68,-2.67,-1.95,-1.67,5.59,5.59,5.58
35.62,8.32,2.75,8.33,2.75,-2.75,-2.00,-1.72,5.58,5.58,5.58
35.97,8.39,2.82,8.39,2.82,-2.82,-2.04,-1.76,5.57,5.57,5.57
36.33,8.45,2.88,8.46,2.88,-2.89,-2.09,-1.81,5.56,5.56,5.57
36.70,8.52,2.95,8.52,2.95,-2.96,-2.14,-1.86,5.56,5.56,5.57
37.06,8.59,3.03,8.59,3.02,-3.03,-2.19,-1.92,5.56,5.56,5.57
37.43,8.66,3.10,8.66,3.10,-3.10,-2.24,-1.97,5.56,5.56,5.56
37.81,8.73,3.16,8.74,3.17,-3.17,-2.29,-2.03,5.56,5.56,5.57
38.19,8.81,3.24,8.81,3.24,-3.24,-2.34,-2.08,5.57,5.57,5.57
38.57,8.88,3.32,8.88,3.31,-3.30,-2.40,-2.14,5.58,5.59,5.57
38.95,8.95,3.38,8.94,3.37,-3.35,-2.45,-2.20,5.60,5.59,5.57
39.34,8.99,3.42,8.99,3.42,-3.41,-2.50,-2.26,5.59,5.59,5.57
39.74,9.03,3.46,9.04,3.47,-3.46,-2.55,-2.33,5.57,5.58,5.57
40.14,9.07,3.51,9.07,3.50,-3.52,-2.61,-2.40,5.56,5.55,5.56
40.54,9.11,3.55,9.11,3.55,-3.57,-2.66,-2.46,5.54,5.53,5.56
40.94,9.15,3.60,9.16,3.61,-3.64,-2.72,-2.53,5.52,5.53,5.56
41.35,9.23,3.68,9.24,3.68,-3.70,-2.77,-2.61,5.53,5.54,5.55
41.76,9.32,3.78,9.32,3.77,-3.77,-2.83,-2.68,5.55,5.55,5.54
42.18,9.40,3.87,9.40,3.86,-3.84,-2.89,-2.76,5.56,5.56,5.54
42.60,9.47,3.94,9.47,3.94,-3.92,-2.94,-2.84,5.55,5.55,5.53
43.03,9.53,4.00,9.53,4.00,-4.00,-3.00,-2.92,5.53,5.53,5.53
43.46,9.58,4.06,9.58,4.06,-4.07,-3.06,-3.00,5.51,5.51,5.52
43.90,9.63,4.12,9.64,4.13,-4.14,-3.12,-3.09,5.49,5.50,5.51
44.33,9.70,4.20,9.71,4.21,-4.20,-3.18,-3.18,5.50,5.51,5.50
44.78,9.79,4.29,9.77,4.28,-4.26,-3.24,-3.27,5.53,5.52,5.50
45.23,9.83,4.34,9.82,4.32,-4.31,-3.30,-3.36,5.52,5.51,5.49
45.68,9.84,4.35,9.85,4.36,-4.36,-3.36,-3.46,5.48,5.49,5.49
46.13,9.87,4.38,9.89,4.40,-4.41,-3.42,-3.56,5.46,5.48,5.49
46.60,9.95,4.46,9.95,4.46,-4.47,-3.49,-3.66,5.49,5.48,5.49
47.06,10.03,4.54,10.00,4.51,-4.52,-3.55,-3.76,5.52,5.49,5.49
47.53,10.05,4.56,10.05,4.56,-4.57,-3.61,-3.87,5.49,5.49,5.50
48.01,10.07,4.57,10.10,4.60,-4.61,-3.68,-3.97,5.46,5.49,5.50
48.49,10.16,4.66,10.16,4.66,-4.66,-3.74,-4.08,5.50,5.50,5.50
48.97,10.25,4.75,10.23,4.72,-4.70,-3.81,-4.19,5.55,5.53,5.51
49.46,10.28,4.77,10.29,4.77,-4.75,-3.87,-4.31,5.54,5.54,5.51
49.96,10.31,4.79,10.32,4.80,-4.79,-3.94,-4.42,5.52,5.53,5.52
50.46,10.34,4.82,10.34,4.81,-4.83,-4.01,-4.54,5.51,5.51,5.52
50.96,10.37,4.84,10.38,4.85,-4.87,-4.08,-4.65,5.50,5.51,5.54
51.47,10.43,4.89,10.43,4.89,-4.92,-4.14,-4.77,5.51,5.51,5.54
51.99,10.49,4.95,10.49,4.95,-4.96,-4.21,-4.88,5.53,5.53,5.54
52.51,10.55,5.01,10.55,5.01,-4.99,-4.28,-5.00,5.56,5.56,5.54
53.03,10.60,5.06,10.60,5.05,-5.03,-4.35,-5.12,5.57,5.57,5.54
53.56,10.63,5.09,10.64,5.09,-5.07,-4.42,-5.23,5.57,5.57,5.54
54.10,10.66,5.11,10.67,5.12,-5.10,-4.49,-5.35,5.56,5.57,5.55
54.64,10.69,5.14,10.68,5.13,-5.14,-4.56,-5.46,5.56,5.55,5.55
55.18,10.70,5.15,10.69,5.14,-5.17,-4.63,-5.57,5.53,5.53,5.55
55.74,10.70,5.16,10.72,5.17,-5.20,-4.70,-5.67,5.50,5.52,5.54
56.29,10.74,5.20,10.76,5.22,-5.24,-4.77,-5.78,5.51,5.52,5.54
56.86,10.83,5.29,10.81,5.28,-5.28,-4.84,-5.87,5.55,5.54,5.54
57.42,10.87,5.35,10.86,5.34,-5.32,-4.91,-5.97,5.55,5.54,5.53
58.00,10.89,5.38,10.90,5.38,-5.37,-4.98,-6.05,5.52,5.53,5.51
58.58,10.91,5.41,10.92,5.42,-5.41,-5.05,-6.14,5.50,5.51,5.50
59.16,10.94,5.45,10.95,5.46,-5.45,-5.12,-6.21,5.49,5.49,5.49
59.76,10.98,5.51,10.97,5.50,-5.49,-5.19,-6.28,5.49,5.48,5.47
60.35,10.99,5.54,10.99,5.54,-5.53,-5.26,-6.34,5.47,5.46,5.45
60.96,10.99,5.57,11.00,5.57,-5.56,-5.32,-6.39,5.43,5.43,5.43
61.57,10.99,5.59,10.99,5.59,-5.61,-5.39,-6.43,5.38,5.38,5.40
62.18,10.99,5.63,10.99,5.62,-5.66,-5.46,-6.47,5.34,5.33,5.37
62.80,10.99,5.66,11.01,5.68,-5.71,-5.52,-6.49,5.29,5.30,5.33
63.43,11.03,5.75,11.04,5.75,-5.76,-5.59,-6.51,5.27,5.28,5.28
64.07,11.08,5.84,11.06,5.82,-5.81,-5.65,-6.52,5.27,5.25,5.25
64.71,11.08,5.88,11.08,5.88,-5.86,-5.72,-6.52,5.22,5.23,5.20
65.35,11.08,5.92,11.09,5.93,-5.90,-5.78,-6.52,5.18,5.19,5.16
66.01,11.08,5.96,11.08,5.96,-5.94,-5.84,-6.50,5.14,5.14,5.12
66.67,11.07,5.99,11.06,5.98,-5.97,-5.90,-6.48,5.10,5.09,5.08
67.33,11.04,5.99,11.04,5.99,-6.00,-5.95,-6.46,5.04,5.04,5.05
68.01,10.99,5.98,11.01,5.99,-6.02,-6.01,-6.42,4.97,4.99,5.01
68.69,10.99,6.01,10.99,6.01,-6.04,-6.06,-6.38,4.96,4.95,4.98
69.37,10.99,6.04,10.99,6.04,-6.05,-6.11,-6.34,4.94,4.94,4.95
70.07,10.99,6.07,11.00,6.08,-6.05,-6.16,-6.30,4.94,4.94,4.92
70.77,10.99,6.11,10.98,6.09,-6.06,-6.21,-6.25,4.94,4.92,4.89
71.48,10.94,6.08,10.94,6.08,-6.06,-6.26,-6.20,4.89,4.89,4.86
72.19,10.88,6.05,10.89,6.06,-6.06,-6.30,-6.14,4.83,4.84,4.83
72.91,10.84,6.05,10.84,6.04,-6.05,-6.34,-6.09,4.79,4.78,4.80
73.64,10.79,6.03,10.79,6.02,-6.05,-6.38,-6.03,4.74,4.74,4.76
74.38,10.74,6.02,10.75,6.02,-6.05,-6.41,-5.98,4.69,4.70,4.73
75.12,10.70,6.01,10.71,6.03,-6.05,-6.45,-5.92,4.66,4.67,4.69
75.87,10.70,6.06,10.69,6.05,-6.05,-6.48,-5.87,4.65,4.64,4.64
76.63,10.67,6.07,10.67,6.07,-6.06,-6.50,-5.82,4.62,4.62,4.61
77.40,10.64,6.08,10.64,6.08,-6.06,-6.53,-5.77,4.58,4.58,4.56
78.17,10.59,6.07,10.59,6.07,-6.06,-6.55,-5.72,4.53,4.53,4.52
78.95,10.53,6.06,10.53,6.06,-6.05,-6.56,-5.67,4.48,4.48,4.47
79.74,10.45,6.02,10.47,6.04,-6.03,-6.58,-5.63,4.42,4.44,4.43
80.54,10.41,6.03,10.40,6.02,-6.01,-6.59,-5.59,4.40,4.39,4.38
81.35,10.34,6.00,10.31,5.97,-5.98,-6.60,-5.56,4.36,4.33,4.34
82.16,10.21,5.91,10.24,5.94,-5.94,-6.60,-5.52,4.27,4.29,4.30
82.98,10.13,5.87,10.16,5.90,-5.90,-6.60,-5.49,4.23,4.26,4.26
83.81,10.12,5.91,10.09,5.87,-5.86,-6.60,-5.47,4.26,4.23,4.22
84.65,10.03,5.85,10.03,5.85,-5.83,-6.59,-5.45,4.20,4.20,4.18
85.50,9.93,5.79,9.93,5.79,-5.80,-6.58,-5.43,4.13,4.12,4.14
86.35,9.82,5.73,9.82,5.73,-5.77,-6.57,-5.41,4.05,4.05,4.10
87.22,9.72,5.67,9.77,5.72,-5.75,-6.56,-5.41,3.98,4.02,4.05
88.09,9.74,5.74,9.73,5.72,-5.71,-6.54,-5.40,4.03,4.02,4.01
88.97,9.73,5.76,9.69,5.72,-5.68,-6.51,-5.40,4.05,4.01,3.97
89.86,9.60,5.68,9.63,5.70,-5.65,-6.49,-5.40,3.96,3.98,3.93
90.76,9.52,5.64,9.52,5.63,-5.62,-6.46,-5.41,3.90,3.90,3.88
91.66,9.41,5.57,9.40,5.56,-5.60,-6.43,-5.42,3.82,3.81,3.84
92.58,9.30,5.50,9.33,5.53,-5.57,-6.39,-5.44,3.73,3.75,3.81
93.51,9.26,5.50,9.27,5.51,-5.54,-6.36,-5.45,3.72,3.73,3.76
94.44,9.24,5.52,9.23,5.51,-5.51,-6.32,-5.48,3.73,3.72,3.72
95.39,9.19,5.51,9.19,5.50,-5.47,-6.28,-5.50,3.72,3.72,3.68
96.34,9.12,5.48,9.13,5.48,-5.43,-6.23,-5.53,3.69,3.69,3.64
97.30,9.04,5.44,9.04,5.44,-5.40,-6.19,-5.57,3.64,3.64,3.61
98.28,8.96,5.41,8.95,5.39,-5.37,-6.14,-5.60,3.59,3.58,3.56
99.26,8.84,5.32,8.84,5.33,-5.35,-6.09,-5.64,3.50,3.50,3.52
100.25,8.76,5.28,8.76,5.28,-5.32,-6.03,-5.69,3.44,3.44,3.48
101.25,8.67,5.23,8.71,5.27,-5.31,-5.98,-5.73,3.37,3.40,3.44
102.27,8.70,5.31,8.69,5.30,-5.30,-5.92,-5.78,3.40,3.38,3.39
103.29,8.69,5.35,8.68,5.33,-5.32,-5.86,-5.83,3.37,3.35,3.34
104.32,8.67,5.38,8.67,5.38,-5.36,-5.80,-5.88,3.31,3.31,3.29
105.37,8.65,5.40,8.66,5.41,-5.42,-5.74,-5.93,3.24,3.24,3.25
106.42,8.66,5.46,8.67,5.46,-5.49,-5.68,-5.98,3.18,3.18,3.20
107.48,8.69,5.54,8.70,5.54,-5.56,-5.62,-6.03,3.13,3.14,3.15
108.56,8.76,5.66,8.76,5.65,-5.64,-5.55,-6.07,3.12,3.12,3.10
109.64,8.80,5.75,8.81,5.75,-5.72,-5.49,-6.12,3.08,3.09,3.06
110.74,8.88,5.87,8.85,5.83,-5.82,-5.42,-6.17,3.06,3.03,3.02
111.85,8.87,5.90,8.89,5.91,-5.93,-5.35,-6.21,2.94,2.96,2.98
112.97,8.91,5.97,8.94,6.00,-6.04,-5.28,-6.25,2.88,2.90,2.94
114.10,9.02,6.12,9.00,6.09,-6.14,-5.22,-6.28,2.88,2.86,2.90
115.24,9.07,6.20,9.10,6.23,-6.23,-5.15,-6.31,2.84,2.87,2.87
116.39,9.18,6.35,9.19,6.35,-6.31,-5.08,-6.34,2.87,2.88,2.83
117.55,9.27,6.46,9.25,6.43,-6.38,-5.01,-6.36,2.89,2.87,2.82
118.73,9.27,6.48,9.27,6.48,-6.43,-4.94,-6.37,2.84,2.83,2.79
119.92,9.24,6.47,9.24,6.47,-6.47,-4.87,-6.37,2.77,2.77,2.77
121.12,9.19,6.44,9.22,6.47,-6.49,-4.80,-6.37,2.70,2.73,2.75
122.33,9.20,6.46,9.20,6.46,-6.50,-4.73,-6.36,2.70,2.70,2.74
123.55,9.20,6.48,9.18,6.46,-6.48,-4.66,-6.34,2.72,2.70,2.72
124.79,9.14,6.44,9.14,6.44,-6.45,-4.59,-6.31,2.69,2.69,2.71
126.03,9.07,6.38,9.09,6.40,-6.40,-4.52,-6.27,2.68,2.69,2.69
127.29,9.01,6.33,9.01,6.33,-6.31,-4.45,-6.23,2.70,2.70,2.68
128.57,8.93,6.27,8.93,6.27,-6.20,-4.38,-6.17,2.73,2.73,2.66
129.85,8.79,6.14,8.80,6.15,-6.07,-4.31,-6.11,2.72,2.73,2.65
131.15,8.64,6.01,8.60,5.96,-5.92,-4.24,-6.03,2.72,2.68,2.64
132.46,8.34,5.73,8.35,5.73,-5.76,-4.17,-5.95,2.58,2.59,2.61
133.79,8.08,5.48,8.10,5.50,-5.58,-4.10,-5.87,2.50,2.52,2.60
135.12,7.87,5.29,7.90,5.32,-5.40,-4.04,-5.77,2.48,2.51,2.58
136.48,7.75,5.18,7.78,5.21,-5.21,-3.97,-5.67,2.54,2.57,2.57
137.84,7.71,5.16,7.67,5.12,-5.05,-3.90,-5.57,2.67,2.62,2.55
139.22,7.53,5.00,7.47,4.94,-4.90,-3.84,-5.45,2.63,2.57,2.53
140.61,7.25,4.74,7.25,4.74,-4.76,-3.77,-5.34,2.49,2.49,2.51
142.02,6.96,4.47,7.09,4.60,-4.64,-3.71,-5.22,2.32,2.44,2.49
143.44,7.00,4.54,6.98,4.52,-4.54,-3.64,-5.10,2.47,2.45,2.46
144.87,7.01,4.57,6.92,4.48,-4.45,-3.58,-4.97,2.56,2.47,2.44
146.32,6.83,4.42,6.85,4.44,-4.40,-3.51,-4.84,2.43,2.45,2.41
147.78,6.69,4.32,6.71,4.34,-4.40,-3.45,-4.71,2.29,2.31,2.37
149.26,6.63,4.29,6.61,4.27,-4.43,-3.39,-4.58,2.20,2.18,2.34
150.75,6.56,4.27,6.63,4.34,-4.47,-3.32,-4.45,2.10,2.17,2.29
152.26,6.69,4.45,6.70,4.46,-4.49,-3.26,-4.31,2.20,2.21,2.24
153.78,6.83,4.65,6.76,4.58,-4.48,-3.20,-4.18,2.35,2.28,2.19
155.32,6.74,4.62,6.76,4.63,-4.44,-3.14,-4.05,2.30,2.31,2.12
156.88,6.62,4.55,6.60,4.54,-4.37,-3.08,-3.92,2.25,2.23,2.07
158.44,6.33,4.32,6.32,4.31,-4.25,-3.02,-3.78,2.08,2.07,2.01
160.03,5.98,4.03,5.99,4.03,-4.08,-2.96,-3.65,1.90,1.91,1.96
161.63,5.59,3.68,5.62,3.71,-3.86,-2.91,-3.53,1.74,1.76,1.92
163.24,5.26,3.40,5.25,3.38,-3.57,-2.85,-3.40,1.69,1.68,1.87
164.88,4.89,3.06,4.88,3.05,-3.26,-2.79,-3.27,1.63,1.62,1.84
166.53,4.52,2.72,4.52,2.71,-2.95,-2.74,-3.15,1.57,1.57,1.81
168.19,4.19,2.40,4.18,2.39,-2.68,-2.68,-3.02,1.51,1.50,1.79
169.87,3.90,2.12,3.93,2.15,-2.47,-2.62,-2.90,1.43,1.46,1.78
171.57,3.77,2.00,3.78,2.00,-2.33,-2.57,-2.78,1.45,1.45,1.77
173.29,3.75,1.98,3.75,1.98,-2.25,-2.51,-2.66,1.50,1.50,1.77
175.02,3.83,2.04,3.84,2.06,-2.25,-2.46,-2.55,1.58,1.59,1.79
176.77,4.02,2.22,4.01,2.21,-2.31,-2.41,-2.43,1.71,1.70,1.80
178.54,4.23,2.42,4.24,2.42,-2.42,-2.35,-2.32,1.81,1.82,1.82
180.32,4.48,2.64,4.51,2.67,-2.56,-2.30,-2.21,1.92,1.94,1.84
182.13,4.73,2.88,4.72,2.86,-2.72,-2.25,-2.10,2.01,2.00,1.86
183.95,4.94,3.06,4.85,2.97,-2.86,-2.20,-1.99,2.08,1.99,1.88
185.79,4.86,2.97,4.92,3.03,-2.97,-2.15,-1.88,1.89,1.95,1.89
187.65,4.88,2.99,4.93,3.03,-3.01,-2.10,-1.78,1.88,1.92,1.90
189.52,4.95,3.05,4.89,2.99,-2.99,-2.04,-1.68,1.96,1.90,1.90
191.42,4.84,2.94,4.85,2.94,-2.93,-1.99,-1.58,1.91,1.92,1.90
193.33,4.73,2.82,4.75,2.84,-2.84,-1.94,-1.48,1.89,1.91,1.91
195.27,4.62,2.72,4.62,2.71,-2.73,-1.89,-1.38,1.89,1.89,1.91
197.22,4.48,2.59,4.49,2.59,-2.61,-1.84,-1.28,1.87,1.89,1.89
199.19,4.37,2.48,4.36,2.47,-2.49,-1.79,-1.19,1.88,1.87,1.89
201.18,4.23,2.35,4.23,2.34,-2.37,-1.74,-1.10,1.86,1.86,1.88
203.19,4.09,2.22,4.11,2.24,-2.26,-1.69,-1.01,1.83,1.85,1.87
205.23,3.99,2.13,4.00,2.13,-2.15,-1.64,-0.92,1.84,1.84,1.86
207.28,3.91,2.06,3.89,2.04,-2.05,-1.59,-0.83,1.86,1.84,1.85
209.35,3.79,1.95,3.80,1.96,-1.96,-1.54,-0.75,1.84,1.85,1.84
211.44,3.68,1.86,3.70,1.87,-1.86,-1.49,-0.67,1.83,1.85,1.83
213.56,3.61,1.80,3.59,1.77,-1.75,-1.44,-0.59,1.86,1.83,1.82
215.69,3.46,1.66,3.46,1.66,-1.64,-1.38,-0.51,1.82,1.82,1.80
217.85,3.31,1.52,3.32,1.53,-1.52,-1.33,-0.43,1.79,1.80,1.79
220.03,3.17,1.40,3.16,1.39,-1.39,-1.28,-0.36,1.78,1.77,1.77
222.23,3.01,1.25,3.01,1.25,-1.25,-1.22,-0.29,1.76,1.76,1.77
224.45,2.86,1.10,2.87,1.11,-1.11,-1.17,-0.22,1.75,1.76,1.76
226.70,2.72,0.97,2.72,0.97,-0.96,-1.11,-0.16,1.76,1.76,1.75
228.96,2.58,0.84,2.57,0.82,-0.81,-1.05,-0.10,1.77,1.75,1.75
231.25,2.41,0.66,2.41,0.67,-0.67,-1.00,-0.04,1.74,1.74,1.75
233.57,2.25,0.51,2.26,0.52,-0.54,-0.94,0.02,1.72,1.73,1.74
235.90,2.13,0.39,2.14,0.39,-0.41,-0.87,0.07,1.72,1.73,1.75
238.26,2.03,0.28,2.03,0.28,-0.28,-0.81,0.12,1.75,1.75,1.75
240.64,1.95,0.19,1.94,0.18,-0.17,-0.74,0.16,1.78,1.77,1.77
243.05,1.84,0.07,1.85,0.08,-0.07,-0.67,0.20,1.77,1.78,1.77
245.48,1.77,-0.00,1.76,-0.02,0.01,-0.60,0.24,1.79,1.77,1.77
247.93,1.66,-0.12,1.66,-0.12,0.09,-0.53,0.28,1.75,1.76,1.78
250.41,1.58,-0.20,1.60,-0.19,0.17,-0.45,0.31,1.75,1.77,1.79
252.92,1.53,-0.26,1.54,-0.24,0.24,-0.37,0.33,1.78,1.79,1.79
255.45,1.52,-0.26,1.50,-0.29,0.32,-0.29,0.36,1.84,1.82,1.79
258.00,1.43,-0.35,1.42,-0.36,0.40,-0.20,0.38,1.83,1.82,1.78
260.58,1.33,-0.45,1.33,-0.44,0.46,-0.11,0.39,1.80,1.80,1.78
263.19,1.21,-0.56,1.23,-0.54,0.53,-0.02,0.41,1.74,1.76,1.77
265.82,1.15,-0.62,1.15,-0.62,0.60,0.08,0.42,1.75,1.74,1.77
268.48,1.08,-0.68,1.07,-0.69,0.66,0.19,0.43,1.74,1.74,1.77
271.16,1.02,-0.74,1.03,-0.73,0.72,0.29,0.43,1.75,1.75,1.76
273.87,0.97,-0.79,0.99,-0.77,0.78,0.41,0.43,1.75,1.77,1.76
276.61,0.97,-0.78,0.94,-0.81,0.83,0.52,0.43,1.80,1.77,1.76
279.38,0.90,-0.85,0.89,-0.86,0.87,0.64,0.43,1.77,1.76,1.75
282.17,0.82,-0.94,0.84,-0.92,0.91,0.76,0.42,1.73,1.75,1.76
284.99,0.79,-0.97,0.81,-0.95,0.95,0.87,0.41,1.75,1.76,1.77
287.84,0.79,-0.97,0.79,-0.98,0.99,0.99,0.40,1.79,1.78,1.76
290.72,0.80,-0.97,0.76,-1.01,1.03,1.10,0.39,1.83,1.79,1.77
293.63,0.70,-1.08,0.71,-1.06,1.06,1.21,0.38,1.76,1.77,1.78
296.57,0.64,-1.14,0.67,-1.11,1.08,1.30,0.37,1.72,1.75,1.79
299.53,0.65,-1.13,0.65,-1.14,1.10,1.39,0.35,1.76,1.75,1.78
302.53,0.66,-1.13,0.66,-1.13,1.13,1.46,0.33,1.79,1.79,1.79
305.55,0.67,-1.12,0.67,-1.12,1.15,1.51,0.32,1.82,1.82,1.79
308.61,0.68,-1.11,0.66,-1.13,1.17,1.55,0.30,1.85,1.83,1.79
311.69,0.61,-1.17,0.62,-1.16,1.19,1.56,0.28,1.80,1.81,1.79
314.81,0.56,-1.21,0.57,-1.21,1.20,1.56,0.26,1.77,1.77,1.77
317.96,0.51,-1.26,0.52,-1.25,1.22,1.54,0.24,1.73,1.74,1.77
321.14,0.50,-1.26,0.50,-1.26,1.23,1.50,0.22,1.74,1.74,1.76
324.35,0.50,-1.26,0.50,-1.26,1.25,1.45,0.20,1.75,1.75,1.76
327.59,0.50,-1.24,0.50,-1.25,1.26,1.39,0.18,1.76,1.76,1.75
330.87,0.49,-1.24,0.50,-1.24,1.25,1.32,0.16,1.75,1.75,1.73
334.18,0.49,-1.23,0.49,-1.23,1.24,1.24,0.14,1.73,1.73,1.72
337.52,0.49,-1.22,0.49,-1.23,1.22,1.16,0.12,1.71,1.70,1.71
340.90,0.49,-1.22,0.49,-1.22,1.19,1.08,0.10,1.68,1.68,1.71
344.30,0.49,-1.21,0.51,-1.18,1.17,1.00,0.08,1.66,1.68,1.70
347.75,0.55,-1.13,0.55,-1.14,1.14,0.92,0.06,1.69,1.68,1.68
351.23,0.59,-1.07,0.58,-1.09,1.11,0.85,0.04,1.70,1.69,1.67
354.74,0.59,-1.06,0.60,-1.06,1.08,0.78,0.02,1.67,1.68,1.66
358.28,0.59,-1.05,0.60,-1.04,1.06,0.71,-0.00,1.65,1.65,1.64
361.87,0.60,-1.03,0.60,-1.03,1.03,0.64,-0.02,1.63,1.63,1.63
365.49,0.60,-1.01,0.60,-1.01,1.01,0.58,-0.04,1.61,1.62,1.61
369.14,0.61,-0.99,0.61,-0.99,0.99,0.53,-0.06,1.60,1.60,1.60
372.83,0.62,-0.97,0.62,-0.97,0.96,0.47,-0.08,1.59,1.58,1.59
376.56,0.63,-0.95,0.62,-0.96,0.93,0.43,-0.10,1.57,1.56,1.58
380.33,0.63,-0.94,0.64,-0.93,0.91,0.38,-0.12,1.54,1.54,1.57
384.13,0.64,-0.91,0.67,-0.88,0.88,0.34,-0.14,1.52,1.55,1.56
387.97,0.73,-0.81,0.72,-0.83,0.85,0.31,-0.16,1.59,1.57,1.55
391.85,0.77,-0.76,0.75,-0.78,0.82,0.28,-0.18,1.60,1.58,1.54
395.77,0.76,-0.76,0.77,-0.76,0.79,0.25,-0.20,1.55,1.55,1.52
399.73,0.75,-0.76,0.75,-0.77,0.74,0.22,-0.21,1.50,1.49,1.51
403.72,0.74,-0.76,0.74,-0.76,0.70,0.19,-0.23,1.45,1.45,1.50
407.76,0.74,-0.74,0.78,-0.70,0.67,0.17,-0.25,1.41,1.45,1.48
411.84,0.85,-0.62,0.84,-0.63,0.63,0.15,-0.27,1.49,1.48,1.47
415.96,0.94,-0.52,0.90,-0.56,0.60,0.14,-0.28,1.54,1.50,1.46
420.12,0.93,-0.53,0.94,-0.51,0.55,0.12,-0.30,1.49,1.50,1.46
424.32,0.94,-0.51,0.94,-0.51,0.51,0.11,-0.31,1.45,1.45,1.45
428.56,0.95,-0.50,0.95,-0.50,0.47,0.09,-0.33,1.42,1.42,1.45
432.85,0.96,-0.50,1.00,-0.45,0.43,0.08,-0.34,1.40,1.44,1.46
437.18,1.09,-0.38,1.07,-0.40,0.41,0.07,-0.36,1.50,1.48,1.47
441.55,1.16,-0.33,1.14,-0.35,0.39,0.06,-0.37,1.55,1.53,1.49
445.96,1.18,-0.32,1.19,-0.32,0.36,0.06,-0.38,1.55,1.55,1.51
450.42,1.21,-0.32,1.20,-0.34,0.33,0.05,-0.39,1.54,1.53,1.54
454.93,1.23,-0.34,1.25,-0.32,0.29,0.05,-0.40,1.52,1.54,1.58
459.48,1.30,-0.31,1.34,-0.28,0.24,0.04,-0.41,1.54,1.57,1.62
464.07,1.48,-0.16,1.44,-0.21,0.18,0.04,-0.42,1.66,1.61,1.65
468.71,1.56,-0.12,1.56,-0.13,0.11,0.03,-0.42,1.67,1.66,1.69
473.40,1.65,-0.07,1.68,-0.05,0.04,0.03,-0.43,1.69,1.71,1.72
478.13,1.79,0.03,1.81,0.04,-0.04,0.03,-0.43,1.76,1.77,1.76
482.91,1.95,0.16,1.95,0.16,-0.12,0.03,-0.43,1.84,1.84,1.79
487.74,2.10,0.28,2.07,0.24,-0.19,0.03,-0.43,1.91,1.87,1.82
492.62,2.13,0.29,2.12,0.27,-0.26,0.03,-0.43,1.87,1.86,1.84
497.55,2.12,0.26,2.14,0.28,-0.30,0.03,-0.43,1.82,1.84,1.86
502.52,2.13,0.26,2.18,0.31,-0.33,0.03,-0.43,1.80,1.85,1.87
507.55,2.25,0.38,2.25,0.38,-0.36,0.04,-0.42,1.89,1.89,1.87
512.62,2.34,0.48,2.30,0.44,-0.39,0.04,-0.41,1.95,1.91,1.86
517.75,2.29,0.45,2.27,0.42,-0.42,0.04,-0.41,1.87,1.84,1.84
522.93,2.19,0.37,2.18,0.37,-0.44,0.04,-0.40,1.75,1.75,1.82
528.16,2.06,0.28,2.15,0.37,-0.44,0.05,-0.38,1.63,1.72,1.78
533.44,2.16,0.43,2.20,0.47,-0.43,0.05,-0.37,1.73,1.77,1.73
538.77,2.31,0.63,2.23,0.55,-0.42,0.06,-0.36,1.89,1.81,1.68
