frequency,raw,error,smoothed,error_smoothed,equalization,parametric_eq,fixed_band_eq,equalized_raw,equalized_smoothed,target
20.00,14.53,7.45,14.53,7.44,-7.44,-7.25,-2.86,7.08,7.08,7.08
20.20,14.53,7.45,14.52,7.44,-7.44,-7.27,-2.95,7.09,7.08,7.08
20.40,14.51,7.43,14.52,7.44,-7.44,-7.29,-3.03,7.07,7.08,7.08
20.61,14.51,7.43,14.51,7.43,-7.43,-7.30,-3.12,7.08,7.08,7.08
20.81,14.51,7.43,14.51,7.43,-7.43,-7.32,-3.21,7.08,7.08,7.08
21.02,14.51,7.43,14.50,7.42,-7.41,-7.33,-3.30,7.10,7.08,7.08
21.23,14.47,7.39,14.48,7.40,-7.40,-7.34,-3.40,7.07,7.08,7.08
21.44,14.46,7.38,14.46,7.38,-7.38,-7.34,-3.49,7.08,7.08,7.08
21.66,14.45,7.37,14.44,7.36,-7.36,-7.34,-3.59,7.09,7.08,7.08
21.87,14.41,7.33,14.42,7.34,-7.34,-7.34,-3.70,7.07,7.08,7.08
22.09,14.39,7.31,14.39,7.31,-7.31,-7.34,-3.80,7.08,7.08,7.08
22.31,14.37,7.29,14.36,7.28,-7.28,-7.33,-3.91,7.08,7.08,7.08
22.54,14.33,7.25,14.33,7.25,-7.25,-7.32,-4.03,7.08,7.08,7.08
22.76,14.29,7.21,14.30,7.22,-7.22,-7.31,-4.14,7.07,7.08,7.08
22.99,14.26,7.18,14.26,7.18,-7.18,-7.30,-4.26,7.08,7.08,7.08
23.22,14.23,7.15,14.22,7.14,-7.14,-7.28,-4.38,7.09,7.08,7.08
23.45,14.18,7.10,14.18,7.10,-7.10,-7.26,-4.51,7.08,7.08,7.08
23.69,14.12,7.05,14.13,7.06,-7.06,-7.24,-4.63,7.06,7.07,7.07
23.92,14.09,7.01,14.09,7.01,-7.01,-7.21,-4.76,7.08,7.07,7.07
24.16,14.04,6.97,14.04,6.96,-6.96,-7.18,-4.89,7.07,7.07,7.07
24.40,14.00,6.93,13.99,6.92,-6.92,-7.15,-5.03,7.08,7.08,7.07
24.65,13.93,6.86,13.94,6.87,-6.87,-7.12,-5.16,7.06,7.07,7.07
24.89,13.90,6.83,13.89,6.82,-6.82,-7.09,-5.30,7.08,7.07,7.07
25.14,13.84,6.77,13.84,6.77,-6.77,-7.05,-5.44,7.07,7.07,7.07
25.39,13.79,6.72,13.79,6.72,-6.72,-7.01,-5.58,7.07,7.07,7.07
25.65,13.74,6.67,13.74,6.67,-6.68,-6.97,-5.72,7.06,7.06,7.07
25.91,13.70,6.63,13.70,6.63,-6.63,-6.93,-5.87,7.07,7.07,7.07
26.16,13.65,6.58,13.65,6.59,-6.59,-6.89,-6.01,7.06,7.07,7.07
26.43,13.62,6.55,13.61,6.55,-6.54,-6.84,-6.15,7.08,7.07,7.07
26.69,13.56,6.49,13.57,6.50,-6.50,-6.79,-6.29,7.06,7.06,7.07
26.96,13.53,6.47,13.53,6.46,-6.46,-6.75,-6.43,7.07,7.07,7.06
27.23,13.48,6.42,13.48,6.42,-6.42,-6.70,-6.57,7.06,7.06,7.06
27.50,13.45,6.39,13.44,6.38,-6.38,-6.65,-6.70,7.07,7.06,7.06
27.77,13.39,6.33,13.40,6.34,-6.34,-6.59,-6.83,7.05,7.06,7.06
28.05,13.36,6.30,13.36,6.30,-6.29,-6.54,-6.95,7.07,7.06,7.06
28.33,13.31,6.25,13.31,6.25,-6.25,-6.49,-7.07,7.06,7.06,7.06
28.62,13.27,6.21,13.27,6.21,-6.21,-6.43,-7.18,7.06,7.06,7.06
28.90,13.22,6.16,13.22,6.16,-6.17,-6.38,-7.28,7.05,7.05,7.06
29.19,13.18,6.12,13.18,6.12,-6.13,-6.32,-7.37,7.05,7.05,7.05
29.48,13.13,6.08,13.13,6.08,-6.09,-6.26,-7.46,7.04,7.05,7.05
29.78,13.10,6.05,13.10,6.04,-6.05,-6.20,-7.53,7.05,7.05,7.05
30.08,13.06,6.01,13.06,6.01,-6.01,-6.15,-7.59,7.05,7.05,7.05
30.38,13.02,5.97,13.02,5.97,-5.97,-6.09,-7.64,7.05,7.05,7.05
30.68,12.99,5.94,12.98,5.93,-5.93,-6.03,-7.67,7.06,7.05,7.05
30.99,12.93,5.89,12.94,5.90,-5.89,-5.97,-7.69,7.04,7.05,7.04
31.30,12.90,5.86,12.89,5.85,-5.85,-5.91,-7.70,7.05,7.04,7.04
31.61,12.85,5.81,12.85,5.81,-5.81,-5.85,-7.70,7.04,7.04,7.04
31.93,12.80,5.76,12.80,5.76,-5.77,-5.79,-7.68,7.03,7.04,7.04
32.24,12.76,5.72,12.76,5.72,-5.72,-5.73,-7.65,7.04,7.03,7.04
32.57,12.71,5.68,12.71,5.68,-5.68,-5.67,-7.60,7.03,7.03,7.03
32.89,12.68,5.65,12.67,5.64,-5.64,-5.61,-7.55,7.04,7.03,7.03
33.22,12.62,5.59,12.63,5.60,-5.60,-5.55,-7.48,7.02,7.03,7.03
33.55,12.59,5.56,12.59,5.56,-5.56,-5.49,-7.40,7.03,7.03,7.03
33.89,12.55,5.52,12.54,5.52,-5.52,-5.43,-7.31,7.03,7.02,7.02
34.23,12.50,5.48,12.51,5.48,-5.48,-5.37,-7.22,7.02,7.02,7.02
34.57,12.47,5.45,12.46,5.45,-5.44,-5.31,-7.12,7.02,7.02,7.02
34.92,12.42,5.40,12.42,5.41,-5.41,-5.26,-7.01,7.01,7.02,7.02
35.27,12.38,5.37,12.38,5.37,-5.37,-5.20,-6.89,7.01,7.01,7.01
35.62,12.33,5.32,12.33,5.32,-5.32,-5.14,-6.77,7.01,7.01,7.01
35.97,12.29,5.28,12.29,5.28,-5.28,-5.08,-6.65,7.01,7.01,7.01
36.33,12.24,5.24,12.24,5.24,-5.23,-5.02,-6.52,7.01,7.01,7.00
36.70,12.19,5.19,12.19,5.19,-5.18,-4.97,-6.39,7.00,7.00,7.00
37.06,12.13,5.13,12.13,5.13,-5.13,-4.91,-6.26,6.99,6.99,7.00
37.43,12.07,5.08,12.07,5.08,-5.08,-4.86,-6.13,6.99,6.99,6.99
37.81,12.01,5.02,12.01,5.03,-5.02,-4.80,-6.00,6.98,6.99,6.99
38.19,11.96,4.98,11.96,4.97,-4.97,-4.74,-5.87,6.99,6.99,6.98
38.57,11.90,4.92,11.89,4.91,-4.91,-4.69,-5.74,6.99,6.98,6.98
38.95,11.82,4.84,11.82,4.85,-4.85,-4.64,-5.62,6.97,6.97,6.98
39.34,11.75,4.78,11.75,4.78,-4.79,-4.58,-5.49,6.96,6.97,6.97
39.74,11.69,4.72,11.69,4.72,-4.73,-4.53,-5.36,6.96,6.96,6.97
40.14,11.63,4.67,11.63,4.67,-4.67,-4.48,-5.24,6.96,6.96,6.96
40.54,11.56,4.60,11.56,4.61,-4.60,-4.43,-5.12,6.96,6.96,6.96
40.94,11.50,4.55,11.49,4.54,-4.54,-4.37,-5.01,6.96,6.95,6.95
41.35,11.42,4.47,11.42,4.48,-4.48,-4.32,-4.89,6.94,6.95,6.94
41.76,11.36,4.42,11.36,4.42,-4.42,-4.27,-4.78,6.94,6.94,6.94
42.18,11.29,4.36,11.29,4.35,-4.36,-4.22,-4.67,6.93,6.93,6.93
42.60,11.22,4.29,11.22,4.30,-4.30,-4.17,-4.57,6.92,6.92,6.93
43.03,11.16,4.24,11.16,4.24,-4.24,-4.13,-4.47,6.92,6.91,6.92
43.46,11.10,4.19,11.10,4.18,-4.18,-4.08,-4.37,6.91,6.91,6.91
43.90,11.03,4.12,11.04,4.13,-4.13,-4.03,-4.27,6.90,6.91,6.91
44.33,10.98,4.08,10.98,4.08,-4.07,-3.98,-4.18,6.91,6.91,6.90
44.78,10.92,4.03,10.91,4.02,-4.01,-3.94,-4.09,6.91,6.90,6.89
45.23,10.84,3.96,10.84,3.96,-3.96,-3.89,-4.01,6.88,6.89,6.88
45.68,10.77,3.89,10.77,3.90,-3.90,-3.85,-3.93,6.87,6.87,6.87
46.13,10.71,3.84,10.71,3.84,-3.84,-3.80,-3.85,6.86,6.86,6.87
46.60,10.65,3.79,10.65,3.79,-3.79,-3.76,-3.77,6.86,6.86,6.86
47.06,10.59,3.74,10.58,3.74,-3.74,-3.72,-3.70,6.85,6.85,6.85
47.53,10.52,3.68,10.53,3.69,-3.69,-3.67,-3.63,6.83,6.83,6.84
48.01,10.47,3.64,10.47,3.64,-3.65,-3.63,-3.56,6.82,6.82,6.83
48.49,10.43,3.61,10.43,3.61,-3.61,-3.59,-3.49,6.82,6.81,6.82
48.97,10.38,3.57,10.38,3.57,-3.58,-3.55,-3.43,6.80,6.81,6.81
49.46,10.35,3.55,10.34,3.54,-3.54,-3.51,-3.37,6.80,6.80,6.80
49.96,10.29,3.50,10.30,3.51,-3.51,-3.47,-3.31,6.78,6.79,6.79
50.46,10.26,3.49,10.26,3.48,-3.48,-3.43,-3.26,6.78,6.78,6.77
50.96,10.21,3.45,10.21,3.45,-3.44,-3.39,-3.21,6.77,6.77,6.76
51.47,10.17,3.42,10.16,3.41,-3.40,-3.35,-3.16,6.76,6.76,6.75
51.99,10.10,3.36,10.11,3.37,-3.37,-3.32,-3.11,6.73,6.74,6.74
52.51,10.05,3.33,10.05,3.32,-3.32,-3.28,-3.06,6.72,6.72,6.72
53.03,9.98,3.27,9.98,3.27,-3.28,-3.24,-3.02,6.70,6.70,6.71
53.56,9.92,3.23,9.92,3.23,-3.24,-3.21,-2.98,6.68,6.69,6.69
54.10,9.86,3.18,9.87,3.19,-3.19,-3.17,-2.94,6.67,6.68,6.68
54.64,9.82,3.16,9.81,3.15,-3.14,-3.14,-2.90,6.68,6.67,6.66
55.18,9.75,3.10,9.75,3.10,-3.09,-3.10,-2.86,6.66,6.66,6.65
55.74,9.67,3.04,9.67,3.04,-3.04,-3.07,-2.82,6.63,6.64,6.63
56.29,9.60,2.99,9.60,2.99,-2.98,-3.03,-2.78,6.61,6.61,6.61
56.86,9.52,2.92,9.52,2.93,-2.93,-3.00,-2.75,6.59,6.59,6.60
57.42,9.46,2.88,9.45,2.87,-2.88,-2.97,-2.72,6.58,6.58,6.58
58.00,9.37,2.81,9.38,2.82,-2.82,-2.94,-2.68,6.55,6.56,6.56
58.58,9.31,2.77,9.30,2.76,-2.77,-2.90,-2.65,6.54,6.53,6.54
59.16,9.23,2.71,9.23,2.72,-2.72,-2.87,-2.62,6.51,6.51,6.52
59.76,9.16,2.66,9.17,2.67,-2.67,-2.84,-2.59,6.49,6.49,6.50
60.35,9.12,2.64,9.10,2.63,-2.63,-2.81,-2.55,6.49,6.47,6.48
60.96,9.03,2.58,9.04,2.59,-2.59,-2.78,-2.52,6.44,6.45,6.45
61.57,8.98,2.55,8.98,2.55,-2.54,-2.75,-2.49,6.44,6.43,6.43
62.18,8.91,2.50,8.91,2.50,-2.50,-2.72,-2.46,6.41,6.41,6.41
62.80,8.85,2.47,8.85,2.47,-2.46,-2.70,-2.43,6.39,6.39,6.38
63.43,8.78,2.42,8.77,2.42,-2.41,-2.67,-2.40,6.37,6.36,6.36
64.07,8.70,2.37,8.70,2.37,-2.37,-2.64,-2.37,6.33,6.33,6.33
64.71,8.62,2.31,8.63,2.32,-2.33,-2.61,-2.34,6.29,6.30,6.31
65.35,8.57,2.29,8.56,2.28,-2.29,-2.59,-2.30,6.28,6.27,6.28
66.01,8.49,2.24,8.49,2.24,-2.25,-2.56,-2.27,6.24,6.24,6.25
66.67,8.42,2.20,8.43,2.21,-2.21,-2.53,-2.24,6.20,6.22,6.22
67.33,8.37,2.18,8.37,2.18,-2.18,-2.51,-2.21,6.19,6.19,6.19
68.01,8.33,2.17,8.32,2.15,-2.15,-2.48,-2.18,6.18,6.17,6.16
68.69,8.25,2.12,8.26,2.13,-2.11,-2.46,-2.15,6.14,6.14,6.13
69.37,8.19,2.09,8.19,2.09,-2.08,-2.43,-2.12,6.11,6.11,6.10
70.07,8.12,2.06,8.12,2.05,-2.05,-2.41,-2.09,6.07,6.07,6.06
70.77,8.05,2.02,8.05,2.02,-2.02,-2.38,-2.06,6.03,6.03,6.03
71.48,7.98,1.98,7.98,1.98,-1.99,-2.36,-2.03,5.98,5.98,6.00
72.19,7.91,1.95,7.91,1.95,-1.97,-2.34,-2.00,5.94,5.94,5.96
72.91,7.86,1.94,7.86,1.94,-1.95,-2.31,-1.98,5.91,5.91,5.92
73.64,7.81,1.92,7.81,1.93,-1.92,-2.29,-1.95,5.89,5.89,5.89
74.38,7.77,1.92,7.76,1.91,-1.90,-2.27,-1.92,5.87,5.86,5.85
75.12,7.71,1.90,7.70,1.90,-1.88,-2.24,-1.90,5.83,5.82,5.81
75.87,7.63,1.86,7.64,1.87,-1.86,-2.22,-1.87,5.77,5.78,5.77
76.63,7.58,1.85,7.57,1.84,-1.84,-2.20,-1.85,5.74,5.73,5.73
77.40,7.50,1.81,7.50,1.81,-1.81,-2.18,-1.82,5.68,5.69,5.69
78.17,7.43,1.78,7.43,1.79,-1.79,-2.16,-1.80,5.64,5.65,5.64
78.95,7.37,1.77,7.36,1.76,-1.76,-2.14,-1.78,5.61,5.60,5.60
79.74,7.29,1.73,7.29,1.73,-1.74,-2.12,-1.76,5.55,5.55,5.56
80.54,7.22,1.71,7.22,1.71,-1.72,-2.10,-1.74,5.50,5.50,5.51
81.35,7.16,1.69,7.16,1.70,-1.70,-2.08,-1.72,5.46,5.46,5.47
82.16,7.11,1.69,7.10,1.68,-1.68,-2.06,-1.71,5.43,5.42,5.42
82.98,7.05,1.68,7.04,1.67,-1.67,-2.04,-1.69,5.38,5.38,5.37
83.81,6.97,1.64,6.98,1.66,-1.65,-2.02,-1.68,5.32,5.33,5.33
84.65,6.92,1.64,6.91,1.63,-1.63,-2.00,-1.66,5.29,5.28,5.28
85.50,6.85,1.62,6.84,1.62,-1.61,-1.98,-1.65,5.24,5.23,5.23
86.35,6.76,1.58,6.78,1.60,-1.59,-1.96,-1.64,5.17,5.18,5.18
87.22,6.71,1.58,6.70,1.57,-1.57,-1.94,-1.63,5.14,5.13,5.13
88.09,6.63,1.56,6.63,1.55,-1.55,-1.92,-1.62,5.07,5.07,5.07
88.97,6.55,1.53,6.56,1.54,-1.54,-1.90,-1.61,5.01,5.02,5.02
89.86,6.49,1.52,6.49,1.52,-1.53,-1.89,-1.61,4.96,4.96,4.97
90.76,6.43,1.51,6.43,1.51,-1.52,-1.87,-1.60,4.91,4.91,4.92
91.66,6.37,1.51,6.37,1.51,-1.52,-1.85,-1.60,4.85,4.86,4.86
92.58,6.32,1.51,6.32,1.51,-1.51,-1.83,-1.60,4.81,4.81,4.81
93.51,6.27,1.52,6.27,1.52,-1.51,-1.81,-1.59,4.76,4.76,4.75
94.44,6.23,1.53,6.22,1.52,-1.51,-1.80,-1.59,4.72,4.71,4.70
95.39,6.16,1.52,6.16,1.52,-1.51,-1.78,-1.59,4.65,4.65,4.64
96.34,6.09,1.50,6.10,1.51,-1.51,-1.76,-1.59,4.58,4.59,4.59
97.30,6.04,1.51,6.03,1.51,-1.51,-1.75,-1.60,4.53,4.53,4.53
98.28,5.98,1.51,5.97,1.50,-1.51,-1.73,-1.60,4.47,4.47,4.47
99.26,5.91,1.49,5.91,1.50,-1.51,-1.71,-1.60,4.40,4.41,4.41
100.25,5.85,1.49,5.86,1.50,-1.51,-1.70,-1.61,4.34,4.35,4.36
101.25,5.81,1.51,5.81,1.51,-1.52,-1.68,-1.61,4.29,4.29,4.30
102.27,5.77,1.53,5.76,1.52,-1.52,-1.66,-1.62,4.25,4.24,4.24
103.29,5.71,1.52,5.72,1.53,-1.53,-1.65,-1.62,4.18,4.19,4.18
104.32,5.67,1.54,5.67,1.54,-1.53,-1.63,-1.63,4.14,4.14,4.13
105.37,5.62,1.55,5.61,1.54,-1.53,-1.61,-1.64,4.09,4.08,4.07
106.42,5.55,1.54,5.55,1.54,-1.53,-1.60,-1.64,4.02,4.02,4.01
107.48,5.48,1.53,5.48,1.53,-1.53,-1.58,-1.65,3.95,3.95,3.95
108.56,5.42,1.52,5.41,1.52,-1.52,-1.57,-1.66,3.90,3.89,3.90
109.64,5.34,1.50,5.34,1.51,-1.51,-1.55,-1.66,3.83,3.83,3.84
110.74,5.28,1.50,5.28,1.50,-1.50,-1.53,-1.67,3.78,3.78,3.78
111.85,5.21,1.49,5.21,1.49,-1.49,-1.52,-1.67,3.72,3.72,3.72
112.97,5.15,1.48,5.15,1.48,-1.48,-1.50,-1.68,3.67,3.67,3.67
114.10,5.09,1.48,5.09,1.48,-1.48,-1.49,-1.68,3.61,3.61,3.61
115.24,5.03,1.48,5.03,1.47,-1.47,-1.47,-1.68,3.56,3.55,3.55
116.39,4.96,1.46,4.97,1.47,-1.47,-1.46,-1.69,3.49,3.50,3.50
117.55,4.91,1.47,4.91,1.47,-1.47,-1.44,-1.69,3.44,3.44,3.44
118.73,4.86,1.47,4.85,1.47,-1.47,-1.43,-1.68,3.39,3.39,3.39
119.92,4.80,1.47,4.80,1.47,-1.47,-1.41,-1.68,3.33,3.33,3.33
121.12,4.75,1.47,4.75,1.47,-1.47,-1.40,-1.68,3.28,3.28,3.28
122.33,4.70,1.47,4.70,1.47,-1.47,-1.38,-1.67,3.23,3.22,3.22
123.55,4.64,1.47,4.65,1.48,-1.48,-1.37,-1.67,3.16,3.17,3.17
124.79,4.61,1.49,4.60,1.48,-1.48,-1.35,-1.66,3.13,3.12,3.12
126.03,4.55,1.48,4.55,1.49,-1.48,-1.34,-1.65,3.06,3.07,3.07
127.29,4.50,1.48,4.51,1.49,-1.49,-1.32,-1.64,3.01,3.02,3.02
128.57,4.47,1.50,4.46,1.49,-1.50,-1.31,-1.62,2.97,2.96,2.97
129.85,4.41,1.49,4.42,1.50,-1.50,-1.29,-1.61,2.90,2.91,2.92
131.15,4.38,1.51,4.38,1.51,-1.51,-1.27,-1.59,2.87,2.87,2.87
132.46,4.33,1.51,4.33,1.51,-1.52,-1.26,-1.57,2.81,2.82,2.82
133.79,4.30,1.53,4.29,1.52,-1.52,-1.24,-1.55,2.78,2.78,2.77
135.12,4.24,1.51,4.25,1.52,-1.51,-1.23,-1.53,2.73,2.73,2.72
136.48,4.20,1.52,4.20,1.52,-1.51,-1.21,-1.51,2.69,2.69,2.68
137.84,4.14,1.51,4.14,1.50,-1.50,-1.20,-1.48,2.64,2.64,2.63
139.22,4.08,1.49,4.08,1.49,-1.48,-1.18,-1.46,2.59,2.59,2.59
140.61,4.01,1.46,4.01,1.46,-1.47,-1.17,-1.43,2.54,2.54,2.55
142.02,3.95,1.45,3.95,1.45,-1.46,-1.15,-1.41,2.49,2.49,2.50
143.44,3.89,1.43,3.89,1.43,-1.44,-1.14,-1.38,2.45,2.45,2.46
144.87,3.85,1.43,3.84,1.42,-1.43,-1.12,-1.35,2.42,2.41,2.42
146.32,3.80,1.42,3.80,1.42,-1.42,-1.11,-1.33,2.38,2.38,2.38
147.78,3.75,1.41,3.75,1.41,-1.41,-1.09,-1.30,2.34,2.34,2.34
149.26,3.71,1.41,3.71,1.40,-1.40,-1.08,-1.27,2.31,2.31,2.30
150.75,3.67,1.40,3.66,1.40,-1.39,-1.06,-1.24,2.28,2.27,2.27
152.26,3.61,1.38,3.62,1.39,-1.39,-1.04,-1.21,2.22,2.23,2.23
153.78,3.57,1.38,3.57,1.37,-1.38,-1.03,-1.18,2.19,2.19,2.19
155.32,3.52,1.36,3.52,1.36,-1.36,-1.01,-1.16,2.16,2.15,2.16
156.88,3.47,1.35,3.47,1.35,-1.35,-1.00,-1.13,2.12,2.12,2.12
158.44,3.42,1.33,3.42,1.33,-1.33,-0.98,-1.10,2.09,2.09,2.09
160.03,3.38,1.32,3.38,1.32,-1.31,-0.97,-1.07,2.07,2.07,2.06
161.63,3.33,1.30,3.32,1.30,-1.29,-0.95,-1.05,2.04,2.03,2.03
163.24,3.27,1.27,3.27,1.27,-1.27,-0.93,-1.02,2.00,2.00,2.00
164.88,3.20,1.23,3.21,1.24,-1.25,-0.92,-0.99,1.95,1.96,1.97
166.53,3.15,1.21,3.15,1.22,-1.22,-0.90,-0.97,1.92,1.93,1.94
168.19,3.11,1.20,3.10,1.19,-1.20,-0.89,-0.94,1.91,1.90,1.91
169.87,3.06,1.18,3.06,1.18,-1.18,-0.87,-0.92,1.88,1.88,1.88
171.57,3.01,1.16,3.01,1.16,-1.16,-0.85,-0.90,1.85,1.86,1.85
173.29,2.97,1.14,2.97,1.14,-1.13,-0.84,-0.87,1.84,1.83,1.83
175.02,2.92,1.12,2.92,1.12,-1.11,-0.82,-0.85,1.81,1.80,1.80
176.77,2.87,1.09,2.87,1.09,-1.09,-0.80,-0.83,1.78,1.77,1.78
178.54,2.82,1.07,2.82,1.07,-1.07,-0.79,-0.81,1.75,1.75,1.75
180.32,2.78,1.05,2.78,1.05,-1.05,-0.77,-0.79,1.73,1.73,1.73
182.13,2.75,1.04,2.74,1.03,-1.03,-0.75,-0.77,1.72,1.71,1.71
183.95,2.69,1.00,2.70,1.01,-1.01,-0.74,-0.75,1.68,1.69,1.69
185.79,2.66,0.99,2.66,0.99,-0.99,-0.72,-0.73,1.67,1.67,1.67
187.65,2.61,0.96,2.61,0.97,-0.97,-0.70,-0.71,1.64,1.64,1.65
189.52,2.58,0.95,2.57,0.94,-0.95,-0.68,-0.70,1.63,1.62,1.63
191.42,2.52,0.91,2.53,0.92,-0.93,-0.67,-0.68,1.59,1.60,1.61
193.33,2.49,0.90,2.49,0.90,-0.91,-0.65,-0.66,1.58,1.58,1.59
195.27,2.46,0.89,2.46,0.89,-0.89,-0.63,-0.65,1.57,1.57,1.57
197.22,2.43,0.88,2.42,0.87,-0.87,-0.61,-0.63,1.56,1.56,1.55
199.19,2.38,0.84,2.38,0.85,-0.84,-0.60,-0.62,1.54,1.54,1.54
201.18,2.34,0.82,2.35,0.83,-0.82,-0.58,-0.60,1.52,1.52,1.52
203.19,2.31,0.81,2.30,0.80,-0.79,-0.56,-0.59,1.51,1.50,1.50
205.23,2.26,0.77,2.26,0.77,-0.77,-0.54,-0.57,1.49,1.49,1.49
207.28,2.20,0.73,2.21,0.74,-0.74,-0.52,-0.56,1.46,1.47,1.47
209.35,2.17,0.71,2.16,0.70,-0.71,-0.50,-0.55,1.46,1.46,1.46
211.44,2.12,0.67,2.12,0.67,-0.67,-0.49,-0.53,1.45,1.45,1.45
213.56,2.08,0.65,2.08,0.64,-0.64,-0.47,-0.52,1.44,1.43,1.43
215.69,2.03,0.61,2.03,0.61,-0.61,-0.45,-0.51,1.42,1.42,1.42
217.85,1.98,0.57,1.99,0.58,-0.58,-0.43,-0.49,1.40,1.40,1.41
220.03,1.95,0.55,1.94,0.55,-0.55,-0.41,-0.48,1.40,1.39,1.40
222.23,1.91,0.53,1.91,0.52,-0.53,-0.39,-0.47,1.38,1.38,1.38
224.45,1.87,0.50,1.88,0.50,-0.50,-0.37,-0.46,1.37,1.37,1.37
226.70,1.84,0.48,1.84,0.48,-0.48,-0.35,-0.44,1.36,1.36,1.36
228.96,1.82,0.47,1.81,0.46,-0.45,-0.34,-0.43,1.36,1.35,1.35
231.25,1.77,0.43,1.78,0.43,-0.43,-0.32,-0.42,1.34,1.35,1.34
233.57,1.74,0.41,1.74,0.41,-0.40,-0.30,-0.40,1.34,1.34,1.33
235.90,1.71,0.39,1.70,0.38,-0.38,-0.28,-0.39,1.33,1.33,1.32
238.26,1.67,0.36,1.67,0.35,-0.35,-0.26,-0.37,1.32,1.32,1.31
240.64,1.63,0.32,1.63,0.32,-0.33,-0.24,-0.36,1.30,1.30,1.31
243.05,1.59,0.29,1.59,0.30,-0.30,-0.22,-0.35,1.29,1.29,1.30
245.48,1.56,0.27,1.56,0.27,-0.28,-0.20,-0.33,1.28,1.28,1.29
247.93,1.54,0.26,1.53,0.25,-0.25,-0.18,-0.31,1.29,1.28,1.28
250.41,1.50,0.23,1.51,0.24,-0.23,-0.16,-0.30,1.27,1.28,1.27
252.92,1.49,0.22,1.48,0.21,-0.21,-0.14,-0.28,1.28,1.27,1.27
255.45,1.45,0.19,1.44,0.18,-0.18,-0.12,-0.26,1.27,1.26,1.26
258.00,1.40,0.15,1.41,0.15,-0.15,-0.10,-0.25,1.25,1.25,1.25
260.58,1.37,0.12,1.37,0.12,-0.13,-0.08,-0.23,1.24,1.25,1.25
263.19,1.34,0.10,1.34,0.10,-0.10,-0.06,-0.21,1.24,1.24,1.24
265.82,1.31,0.07,1.30,0.07,-0.07,-0.03,-0.19,1.24,1.24,1.23
268.48,1.26,0.03,1.26,0.03,-0.04,-0.01,-0.17,1.22,1.23,1.23
271.16,1.22,-0.00,1.22,0.00,-0.01,0.01,-0.15,1.21,1.22,1.22
273.87,1.19,-0.03,1.19,-0.03,0.02,0.03,-0.13,1.21,1.21,1.22
276.61,1.17,-0.04,1.16,-0.05,0.05,0.05,-0.11,1.22,1.21,1.21
279.38,1.13,-0.08,1.13,-0.08,0.08,0.07,-0.08,1.21,1.21,1.21
282.17,1.10,-0.10,1.10,-0.10,0.11,0.09,-0.06,1.21,1.21,1.20
284.99,1.07,-0.13,1.06,-0.14,0.14,0.11,-0.04,1.21,1.20,1.20
287.84,1.03,-0.17,1.03,-0.17,0.17,0.13,-0.01,1.20,1.20,1.19
290.72,0.98,-0.21,0.99,-0.20,0.20,0.15,0.01,1.18,1.19,1.19
293.63,0.97,-0.22,0.96,-0.23,0.22,0.18,0.03,1.19,1.18,1.19
296.57,0.93,-0.25,0.93,-0.25,0.25,0.20,0.06,1.18,1.18,1.18
299.53,0.89,-0.29,0.90,-0.28,0.27,0.22,0.08,1.16,1.18,1.18
302.53,0.89,-0.29,0.88,-0.30,0.30,0.24,0.11,1.19,1.17,1.18
305.55,0.84,-0.33,0.85,-0.32,0.32,0.26,0.13,1.16,1.17,1.17
308.61,0.84,-0.33,0.83,-0.34,0.35,0.28,0.16,1.18,1.17,1.17
311.69,0.79,-0.38,0.80,-0.36,0.37,0.30,0.19,1.16,1.17,1.17
314.81,0.78,-0.38,0.78,-0.39,0.40,0.32,0.21,1.17,1.17,1.16
317.96,0.75,-0.41,0.74,-0.42,0.42,0.35,0.24,1.17,1.16,1.16
321.14,0.70,-0.46,0.71,-0.45,0.45,0.37,0.27,1.15,1.16,1.16
324.35,0.66,-0.49,0.67,-0.48,0.48,0.39,0.30,1.14,1.15,1.15
327.59,0.65,-0.50,0.64,-0.51,0.51,0.41,0.33,1.16,1.14,1.15
330.87,0.61,-0.54,0.61,-0.54,0.53,0.43,0.36,1.14,1.15,1.15
334.18,0.58,-0.57,0.58,-0.56,0.56,0.45,0.39,1.14,1.15,1.15
337.52,0.56,-0.59,0.55,-0.59,0.59,0.48,0.42,1.15,1.14,1.14
340.90,0.53,-0.61,0.53,-0.61,0.62,0.50,0.45,1.15,1.15,1.14
344.30,0.50,-0.64,0.50,-0.64,0.65,0.52,0.48,1.14,1.15,1.14
347.75,0.47,-0.67,0.47,-0.67,0.67,0.54,0.51,1.14,1.14,1.14
351.23,0.44,-0.70,0.44,-0.70,0.70,0.56,0.54,1.14,1.14,1.14
354.74,0.40,-0.73,0.40,-0.73,0.73,0.58,0.57,1.13,1.13,1.13
358.28,0.37,-0.76,0.37,-0.76,0.76,0.60,0.61,1.13,1.13,1.13
361.87,0.34,-0.79,0.34,-0.79,0.78,0.63,0.64,1.12,1.13,1.13
365.49,0.33,-0.80,0.32,-0.80,0.81,0.65,0.67,1.14,1.13,1.13
369.14,0.30,-0.83,0.30,-0.83,0.83,0.67,0.71,1.13,1.13,1.13
372.83,0.28,-0.85,0.27,-0.85,0.85,0.69,0.74,1.13,1.12,1.13
376.56,0.24,-0.88,0.25,-0.87,0.87,0.71,0.78,1.11,1.12,1.12
380.33,0.23,-0.89,0.23,-0.89,0.89,0.73,0.81,1.12,1.12,1.12
384.13,0.22,-0.90,0.21,-0.91,0.91,0.75,0.85,1.13,1.12,1.12
387.97,0.19,-0.93,0.20,-0.92,0.93,0.77,0.88,1.12,1.13,1.12
391.85,0.19,-0.93,0.17,-0.94,0.95,0.79,0.92,1.14,1.13,1.12
395.77,0.14,-0.98,0.15,-0.97,0.97,0.82,0.96,1.11,1.12,1.12
399.73,0.12,-1.00,0.12,-1.00,0.99,0.84,0.99,1.11,1.11,1.12
403.72,0.09,-1.03,0.09,-1.02,1.02,0.86,1.03,1.11,1.11,1.12
407.76,0.08,-1.03,0.07,-1.04,1.04,0.88,1.07,1.12,1.11,1.11
411.84,0.05,-1.06,0.05,-1.06,1.07,0.90,1.10,1.12,1.12,1.11
415.96,0.02,-1.09,0.02,-1.09,1.09,0.92,1.14,1.11,1.11,1.11
420.12,-0.00,-1.11,-0.01,-1.12,1.12,0.94,1.18,1.12,1.11,1.11
424.32,-0.04,-1.15,-0.03,-1.14,1.14,0.96,1.21,1.10,1.11,1.11
428.56,-0.05,-1.16,-0.05,-1.16,1.17,0.98,1.25,1.11,1.11,1.11
432.85,-0.08,-1.19,-0.08,-1.19,1.19,1.00,1.28,1.11,1.11,1.11
437.18,-0.09,-1.20,-0.10,-1.21,1.21,1.02,1.32,1.12,1.10,1.11
441.55,-0.14,-1.25,-0.13,-1.23,1.22,1.04,1.35,1.08,1.10,1.11
445.96,-0.14,-1.25,-0.13,-1.24,1.24,1.06,1.38,1.10,1.10,1.11
450.42,-0.14,-1.25,-0.15,-1.25,1.25,1.08,1.41,1.11,1.10,1.11
454.93,-0.14,-1.25,-0.16,-1.26,1.27,1.09,1.44,1.13,1.11,1.10
459.48,-0.19,-1.29,-0.17,-1.27,1.28,1.11,1.47,1.09,1.11,1.10
464.07,-0.19,-1.29,-0.19,-1.29,1.29,1.13,1.50,1.10,1.10,1.10
468.71,-0.19,-1.29,-0.20,-1.31,1.31,1.15,1.52,1.12,1.10,1.10
473.40,-0.23,-1.33,-0.22,-1.32,1.33,1.17,1.55,1.09,1.11,1.10
478.13,-0.23,-1.33,-0.25,-1.35,1.34,1.19,1.57,1.11,1.10,1.10
482.91,-0.28,-1.38,-0.26,-1.36,1.36,1.21,1.59,1.08,1.10,1.10
487.74,-0.28,-1.38,-0.28,-1.38,1.38,1.22,1.61,1.10,1.10,1.10
492.62,-0.28,-1.38,-0.30,-1.40,1.40,1.24,1.62,1.12,1.10,1.10
497.55,-0.33,-1.43,-0.32,-1.42,1.42,1.26,1.63,1.09,1.10,1.10
502.52,-0.33,-1.43,-0.34,-1.44,1.44,1.28,1.65,1.11,1.09,1.10
507.55,-0.37,-1.47,-0.36,-1.46,1.45,1.29,1.66,1.08,1.10,1.10
512.62,-0.37,-1.47,-0.37,-1.47,1.47,1.31,1.66,1.10,1.10,1.10
517.75,-0.37,-1.47,-0.39,-1.49,1.49,1.33,1.67,1.12,1.10,1.10
522.93,-0.42,-1.52,-0.40,-1.50,1.51,1.34,1.67,1.08,1.10,1.10
528.16,-0.42,-1.52,-0.42,-1.52,1.52,1.36,1.67,1.10,1.10,1.10
