frequency,raw,error,smoothed,error_smoothed,equalization,parametric_eq,fixed_band_eq,equalized_raw,equalized_smoothed,target
20.00,8.92,5.57,8.92,5.57,-5.57,-6.40,-2.90,3.36,3.36,3.35
20.20,8.96,5.64,8.96,5.64,-5.63,-6.40,-2.98,3.33,3.33,3.32
20.40,8.99,5.69,9.00,5.69,-5.70,-6.40,-3.07,3.30,3.30,3.30
20.61,9.03,5.75,9.03,5.75,-5.75,-6.40,-3.15,3.28,3.28,3.28
20.81,9.06,5.80,9.06,5.80,-5.81,-6.41,-3.24,3.25,3.25,3.26
21.02,9.09,5.85,9.09,5.85,-5.86,-6.41,-3.33,3.23,3.23,3.24
21.23,9.12,5.90,9.12,5.90,-5.91,-6.41,-3.43,3.22,3.21,3.22
21.44,9.14,5.94,9.15,5.94,-5.95,-6.41,-3.53,3.19,3.20,3.20
21.66,9.17,5.99,9.17,5.99,-5.99,-6.42,-3.62,3.18,3.18,3.18
21.87,9.19,6.02,9.20,6.03,-6.02,-6.42,-3.73,3.17,3.18,3.17
22.09,9.22,6.07,9.22,6.07,-6.05,-6.42,-3.83,3.17,3.17,3.15
22.31,9.24,6.10,9.23,6.09,-6.08,-6.42,-3.94,3.16,3.15,3.14
22.54,9.23,6.10,9.24,6.11,-6.10,-6.43,-4.05,3.13,3.14,3.13
22.76,9.23,6.11,9.24,6.12,-6.12,-6.43,-4.16,3.11,3.12,3.12
22.99,9.24,6.13,9.24,6.13,-6.14,-6.43,-4.28,3.10,3.10,3.11
23.22,9.25,6.15,9.25,6.15,-6.16,-6.44,-4.40,3.09,3.09,3.10
23.45,9.27,6.18,9.27,6.18,-6.19,-6.44,-4.52,3.09,3.09,3.09
23.69,9.29,6.21,9.30,6.21,-6.21,-6.44,-4.64,3.08,3.08,3.08
23.92,9.32,6.24,9.32,6.24,-6.25,-6.45,-4.77,3.08,3.08,3.08
24.16,9.35,6.28,9.35,6.28,-6.28,-6.45,-4.90,3.07,3.07,3.07
24.40,9.38,6.31,9.39,6.32,-6.32,-6.45,-5.03,3.06,3.07,3.07
24.65,9.42,6.36,9.42,6.36,-6.36,-6.46,-5.16,3.07,3.06,3.06
24.89,9.45,6.39,9.45,6.39,-6.39,-6.46,-5.30,3.06,3.06,3.06
25.14,9.48,6.43,9.48,6.43,-6.43,-6.46,-5.44,3.05,3.05,3.05
25.39,9.50,6.46,9.51,6.46,-6.46,-6.47,-5.57,3.04,3.05,3.04
25.65,9.53,6.49,9.53,6.49,-6.49,-6.47,-5.71,3.04,3.04,3.04
25.91,9.55,6.52,9.55,6.52,-6.51,-6.47,-5.85,3.04,3.04,3.03
26.16,9.56,6.53,9.57,6.53,-6.53,-6.48,-5.99,3.03,3.04,3.03
26.43,9.57,6.54,9.57,6.55,-6.54,-6.48,-6.13,3.03,3.03,3.03
26.69,9.58,6.56,9.58,6.55,-6.55,-6.49,-6.27,3.03,3.03,3.02
26.96,9.57,6.55,9.57,6.56,-6.55,-6.49,-6.41,3.02,3.02,3.02
27.23,9.56,6.55,9.57,6.55,-6.55,-6.49,-6.55,3.01,3.01,3.01
27.50,9.56,6.55,9.56,6.55,-6.55,-6.50,-6.68,3.01,3.01,3.01
27.77,9.55,6.54,9.56,6.55,-6.55,-6.50,-6.81,3.00,3.00,3.01
28.05,9.55,6.55,9.55,6.55,-6.55,-6.50,-6.94,3.00,3.00,3.00
28.33,9.55,6.55,9.55,6.55,-6.55,-6.51,-7.05,3.00,3.00,3.00
28.62,9.55,6.55,9.55,6.56,-6.55,-6.51,-7.17,3.00,3.00,3.00
28.90,9.55,6.56,9.55,6.56,-6.56,-6.52,-7.28,3.00,3.00,2.99
29.19,9.55,6.56,9.55,6.56,-6.56,-6.52,-7.38,2.99,2.99,2.99
29.48,9.55,6.56,9.55,6.56,-6.56,-6.53,-7.47,2.99,2.99,2.99
29.78,9.55,6.56,9.55,6.56,-6.57,-6.53,-7.56,2.99,2.99,2.99
30.08,9.55,6.56,9.55,6.57,-6.57,-6.53,-7.63,2.99,2.99,2.99
30.38,9.55,6.57,9.55,6.57,-6.57,-6.54,-7.69,2.99,2.99,2.98
30.68,9.55,6.57,9.55,6.57,-6.57,-6.54,-7.75,2.99,2.99,2.98
30.99,9.55,6.57,9.55,6.57,-6.57,-6.55,-7.79,2.99,2.99,2.98
31.30,9.55,6.57,9.55,6.57,-6.57,-6.55,-7.82,2.99,2.98,2.98
31.61,9.54,6.57,9.54,6.57,-6.57,-6.56,-7.85,2.98,2.98,2.97
31.93,9.53,6.56,9.54,6.57,-6.57,-6.56,-7.86,2.96,2.97,2.97
32.24,9.53,6.56,9.53,6.57,-6.57,-6.57,-7.86,2.96,2.96,2.97
32.57,9.54,6.58,9.54,6.58,-6.58,-6.57,-7.85,2.96,2.96,2.96
32.89,9.55,6.59,9.55,6.59,-6.60,-6.57,-7.83,2.96,2.96,2.96
33.22,9.57,6.61,9.57,6.62,-6.62,-6.58,-7.81,2.96,2.96,2.96
33.55,9.59,6.64,9.59,6.64,-6.64,-6.58,-7.77,2.95,2.95,2.95
33.89,9.62,6.67,9.62,6.67,-6.67,-6.59,-7.73,2.95,2.95,2.95
34.23,9.64,6.69,9.65,6.70,-6.70,-6.59,-7.68,2.94,2.95,2.95
34.57,9.67,6.73,9.68,6.73,-6.73,-6.60,-7.62,2.94,2.94,2.94
34.92,9.71,6.77,9.71,6.77,-6.77,-6.60,-7.57,2.94,2.94,2.94
35.27,9.74,6.80,9.74,6.81,-6.80,-6.61,-7.50,2.94,2.94,2.94
35.62,9.77,6.84,9.77,6.84,-6.84,-6.61,-7.43,2.94,2.94,2.93
35.97,9.80,6.87,9.80,6.87,-6.87,-6.62,-7.36,2.94,2.93,2.93
36.33,9.82,6.89,9.83,6.90,-6.90,-6.62,-7.29,2.93,2.93,2.93
36.70,9.85,6.92,9.85,6.92,-6.92,-6.63,-7.22,2.93,2.93,2.93
37.06,9.87,6.94,9.87,6.95,-6.94,-6.63,-7.15,2.93,2.93,2.93
37.43,9.89,6.97,9.89,6.97,-6.96,-6.64,-7.08,2.93,2.93,2.92
37.81,9.90,6.98,9.90,6.98,-6.97,-6.64,-7.01,2.93,2.93,2.92
38.19,9.90,6.98,9.90,6.99,-6.98,-6.65,-6.94,2.92,2.92,2.92
38.57,9.90,6.99,9.90,6.99,-6.99,-6.65,-6.87,2.92,2.91,2.91
38.95,9.89,6.98,9.89,6.98,-6.99,-6.66,-6.80,2.90,2.90,2.91
39.34,9.88,6.98,9.89,6.98,-6.99,-6.66,-6.74,2.89,2.90,2.90
39.74,9.88,6.98,9.88,6.98,-6.99,-6.67,-6.68,2.89,2.89,2.90
40.14,9.88,6.99,9.88,6.99,-6.99,-6.67,-6.63,2.89,2.89,2.89
40.54,9.88,6.99,9.88,6.99,-6.99,-6.68,-6.57,2.89,2.89,2.89
40.94,9.88,6.99,9.88,6.99,-6.99,-6.68,-6.53,2.89,2.89,2.89
41.35,9.88,6.99,9.88,6.99,-6.99,-6.69,-6.48,2.89,2.89,2.89
41.76,9.88,6.99,9.88,6.99,-6.99,-6.69,-6.44,2.89,2.89,2.89
42.18,9.88,6.99,9.88,6.99,-6.99,-6.70,-6.41,2.89,2.89,2.89
42.60,9.88,6.99,9.88,6.99,-6.99,-6.70,-6.37,2.89,2.89,2.89
43.03,9.88,6.98,9.88,6.99,-6.99,-6.70,-6.35,2.90,2.90,2.90
43.46,9.88,6.98,9.88,6.98,-6.98,-6.71,-6.33,2.90,2.90,2.90
43.90,9.88,6.98,9.88,6.98,-6.98,-6.71,-6.31,2.90,2.90,2.90
44.33,9.88,6.98,9.88,6.98,-6.98,-6.72,-6.30,2.90,2.90,2.90
44.78,9.88,6.98,9.88,6.98,-6.98,-6.72,-6.29,2.90,2.90,2.90
45.23,9.88,6.98,9.88,6.98,-6.98,-6.73,-6.29,2.90,2.90,2.90
45.68,9.88,6.98,9.88,6.98,-6.98,-6.73,-6.29,2.90,2.90,2.90
46.13,9.88,6.98,9.88,6.98,-6.98,-6.73,-6.29,2.90,2.90,2.90
46.60,9.88,6.98,9.88,6.98,-6.98,-6.74,-6.31,2.90,2.90,2.90
47.06,9.88,6.98,9.88,6.99,-6.99,-6.74,-6.32,2.90,2.90,2.90
47.53,9.88,6.99,9.88,6.99,-6.99,-6.74,-6.34,2.89,2.89,2.89
48.01,9.88,6.99,9.88,6.99,-7.00,-6.75,-6.36,2.89,2.89,2.89
48.49,9.88,6.99,9.89,7.00,-7.00,-6.75,-6.39,2.88,2.89,2.89
48.97,9.89,7.00,9.89,7.00,-7.01,-6.75,-6.42,2.89,2.89,2.89
49.46,9.90,7.01,9.90,7.01,-7.01,-6.76,-6.46,2.90,2.89,2.89
49.96,9.90,7.01,9.90,7.01,-7.01,-6.76,-6.50,2.90,2.90,2.89
50.46,9.90,7.01,9.90,7.01,-7.00,-6.76,-6.54,2.90,2.90,2.89
50.96,9.89,7.00,9.89,7.00,-6.99,-6.77,-6.58,2.90,2.90,2.89
51.47,9.88,6.98,9.88,6.98,-6.98,-6.77,-6.63,2.90,2.90,2.90
51.99,9.86,6.96,9.86,6.96,-6.96,-6.77,-6.68,2.90,2.90,2.90
52.51,9.83,6.93,9.84,6.94,-6.94,-6.77,-6.73,2.90,2.90,2.90
53.03,9.81,6.91,9.81,6.91,-6.91,-6.77,-6.78,2.90,2.90,2.90
53.56,9.78,6.88,9.78,6.88,-6.88,-6.77,-6.84,2.91,2.91,2.90
54.10,9.75,6.84,9.75,6.85,-6.84,-6.77,-6.89,2.91,2.91,2.91
54.64,9.72,6.81,9.72,6.81,-6.81,-6.78,-6.94,2.91,2.91,2.91
55.18,9.68,6.77,9.69,6.77,-6.77,-6.78,-6.99,2.91,2.91,2.91
55.74,9.65,6.74,9.65,6.74,-6.74,-6.78,-7.04,2.91,2.91,2.91
56.29,9.62,6.70,9.62,6.71,-6.71,-6.78,-7.09,2.91,2.91,2.92
56.86,9.60,6.68,9.60,6.68,-6.68,-6.77,-7.13,2.92,2.92,2.92
57.42,9.57,6.65,9.58,6.65,-6.65,-6.77,-7.17,2.92,2.92,2.92
58.00,9.56,6.63,9.56,6.63,-6.63,-6.77,-7.21,2.93,2.93,2.93
58.58,9.54,6.61,9.54,6.61,-6.62,-6.77,-7.24,2.93,2.93,2.93
59.16,9.53,6.60,9.54,6.60,-6.61,-6.77,-7.27,2.93,2.93,2.93
59.76,9.53,6.59,9.53,6.59,-6.60,-6.77,-7.29,2.93,2.93,2.94
60.35,9.53,6.59,9.54,6.60,-6.60,-6.76,-7.31,2.93,2.94,2.94
60.96,9.54,6.60,9.54,6.60,-6.60,-6.76,-7.32,2.94,2.94,2.94
61.57,9.55,6.61,9.55,6.61,-6.60,-6.76,-7.32,2.95,2.95,2.94
62.18,9.55,6.61,9.55,6.61,-6.60,-6.75,-7.32,2.95,2.95,2.94
62.80,9.55,6.61,9.55,6.61,-6.61,-6.75,-7.31,2.95,2.95,2.94
63.43,9.55,6.61,9.55,6.61,-6.61,-6.74,-7.29,2.94,2.94,2.94
64.07,9.55,6.61,9.55,6.61,-6.61,-6.74,-7.27,2.94,2.94,2.94
64.71,9.55,6.61,9.55,6.61,-6.61,-6.73,-7.23,2.94,2.94,2.94
65.35,9.55,6.61,9.55,6.61,-6.62,-6.72,-7.20,2.94,2.94,2.94
66.01,9.55,6.61,9.56,6.61,-6.62,-6.72,-7.15,2.93,2.94,2.94
66.67,9.56,6.62,9.56,6.62,-6.62,-6.71,-7.10,2.94,2.94,2.94
67.33,9.56,6.62,9.57,6.62,-6.63,-6.70,-7.04,2.94,2.94,2.94
68.01,9.57,6.63,9.57,6.63,-6.63,-6.69,-6.98,2.94,2.94,2.94
68.69,9.57,6.63,9.57,6.63,-6.63,-6.68,-6.92,2.94,2.94,2.94
69.37,9.57,6.63,9.58,6.64,-6.63,-6.67,-6.85,2.94,2.95,2.94
70.07,9.57,6.63,9.57,6.63,-6.62,-6.66,-6.78,2.95,2.95,2.94
70.77,9.56,6.62,9.56,6.62,-6.61,-6.65,-6.71,2.95,2.95,2.94
71.48,9.54,6.59,9.54,6.60,-6.59,-6.64,-6.63,2.95,2.95,2.95
72.19,9.52,6.57,9.52,6.57,-6.57,-6.63,-6.56,2.95,2.95,2.95
72.91,9.49,6.54,9.50,6.54,-6.55,-6.62,-6.48,2.95,2.95,2.95
73.64,9.47,6.52,9.47,6.52,-6.51,-6.60,-6.40,2.96,2.96,2.95
74.38,9.44,6.48,9.44,6.48,-6.48,-6.59,-6.33,2.96,2.96,2.96
75.12,9.41,6.45,9.41,6.45,-6.45,-6.58,-6.25,2.97,2.97,2.96
75.87,9.37,6.40,9.38,6.41,-6.41,-6.56,-6.17,2.96,2.97,2.97
76.63,9.34,6.37,9.34,6.37,-6.37,-6.54,-6.10,2.97,2.97,2.97
77.40,9.31,6.34,9.31,6.34,-6.34,-6.53,-6.03,2.97,2.97,2.97
78.17,9.29,6.31,9.29,6.31,-6.31,-6.51,-5.96,2.98,2.98,2.98
78.95,9.26,6.28,9.26,6.28,-6.28,-6.49,-5.89,2.98,2.98,2.98
79.74,9.24,6.26,9.24,6.26,-6.26,-6.48,-5.83,2.98,2.98,2.98
80.54,9.22,6.23,9.23,6.24,-6.25,-6.46,-5.77,2.97,2.98,2.99
81.35,9.22,6.23,9.22,6.23,-6.24,-6.44,-5.71,2.98,2.98,2.99
82.16,9.22,6.23,9.23,6.23,-6.24,-6.42,-5.66,2.98,2.98,2.99
82.98,9.23,6.24,9.23,6.24,-6.24,-6.40,-5.61,2.99,2.99,2.99
83.81,9.24,6.25,9.24,6.25,-6.24,-6.38,-5.56,3.00,3.00,2.99
84.65,9.24,6.24,9.24,6.25,-6.24,-6.35,-5.52,3.01,3.01,3.00
85.50,9.24,6.24,9.24,6.24,-6.23,-6.33,-5.48,3.01,3.01,3.00
86.35,9.23,6.23,9.23,6.23,-6.22,-6.31,-5.45,3.01,3.01,3.00
87.22,9.21,6.21,9.21,6.21,-6.21,-6.29,-5.42,3.01,3.00,3.00
88.09,9.18,6.18,9.19,6.19,-6.19,-6.26,-5.39,3.00,3.00,3.00
88.97,9.16,6.16,9.16,6.16,-6.16,-6.24,-5.37,3.00,3.00,3.00
89.86,9.13,6.13,9.13,6.13,-6.13,-6.21,-5.35,3.00,3.00,3.00
90.76,9.10,6.10,9.10,6.10,-6.10,-6.19,-5.33,3.00,3.00,3.00
91.66,9.07,6.07,9.07,6.07,-6.07,-6.16,-5.32,3.01,3.00,3.00
92.58,9.03,6.03,9.04,6.03,-6.04,-6.13,-5.32,3.00,3.00,3.00
93.51,9.00,6.00,9.00,6.00,-6.01,-6.11,-5.31,3.00,3.00,3.00
94.44,8.97,5.97,8.97,5.97,-5.98,-6.08,-5.31,2.99,3.00,3.00
95.39,8.95,5.95,8.95,5.95,-5.95,-6.05,-5.32,3.00,3.00,3.00
96.34,8.93,5.93,8.94,5.93,-5.93,-6.03,-5.33,3.00,3.00,3.00
97.30,8.92,5.91,8.92,5.91,-5.92,-6.00,-5.34,3.00,3.00,3.01
98.28,8.91,5.90,8.91,5.90,-5.91,-5.97,-5.35,3.01,3.00,3.01
99.26,8.90,5.89,8.91,5.89,-5.90,-5.94,-5.37,3.00,3.01,3.01
100.25,8.90,5.89,8.90,5.89,-5.89,-5.91,-5.39,3.01,3.01,3.01
101.25,8.89,5.88,8.89,5.88,-5.88,-5.88,-5.41,3.02,3.02,3.01
102.27,8.88,5.87,8.89,5.87,-5.86,-5.85,-5.43,3.02,3.02,3.01
103.29,8.87,5.86,8.87,5.86,-5.85,-5.82,-5.46,3.03,3.03,3.01
104.32,8.85,5.83,8.85,5.83,-5.82,-5.79,-5.49,3.03,3.03,3.02
105.37,8.82,5.80,8.82,5.80,-5.80,-5.76,-5.52,3.02,3.02,3.02
106.42,8.79,5.77,8.79,5.77,-5.77,-5.73,-5.55,3.02,3.02,3.02
107.48,8.76,5.73,8.76,5.73,-5.75,-5.70,-5.58,3.02,3.02,3.03
108.56,8.73,5.70,8.74,5.71,-5.72,-5.67,-5.61,3.02,3.02,3.03
109.64,8.71,5.68,8.71,5.68,-5.69,-5.64,-5.64,3.03,3.03,3.03
110.74,8.69,5.66,8.69,5.66,-5.65,-5.61,-5.67,3.04,3.04,3.03
111.85,8.66,5.63,8.67,5.63,-5.62,-5.58,-5.69,3.04,3.04,3.03
112.97,8.64,5.60,8.64,5.60,-5.59,-5.54,-5.72,3.05,3.04,3.04
114.10,8.60,5.56,8.61,5.57,-5.56,-5.51,-5.74,3.04,3.04,3.04
115.24,8.57,5.53,8.57,5.53,-5.53,-5.48,-5.76,3.04,3.04,3.04
116.39,8.54,5.50,8.54,5.50,-5.50,-5.45,-5.78,3.04,3.04,3.04
117.55,8.51,5.46,8.51,5.46,-5.47,-5.42,-5.79,3.04,3.04,3.05
118.73,8.48,5.43,8.49,5.44,-5.45,-5.39,-5.80,3.04,3.04,3.05
119.92,8.46,5.41,8.47,5.41,-5.42,-5.36,-5.80,3.04,3.05,3.05
121.12,8.45,5.40,8.45,5.40,-5.39,-5.32,-5.80,3.06,3.06,3.05
122.33,8.43,5.37,8.43,5.37,-5.36,-5.29,-5.79,3.07,3.07,3.06
123.55,8.40,5.34,8.41,5.34,-5.33,-5.26,-5.78,3.07,3.07,3.06
124.79,8.37,5.30,8.37,5.30,-5.30,-5.23,-5.76,3.08,3.08,3.07
126.03,8.33,5.26,8.33,5.26,-5.26,-5.20,-5.74,3.08,3.08,3.07
127.29,8.29,5.21,8.29,5.22,-5.22,-5.17,-5.71,3.08,3.08,3.08
128.57,8.25,5.17,8.25,5.17,-5.17,-5.13,-5.68,3.08,3.08,3.08
129.85,8.21,5.13,8.21,5.13,-5.13,-5.10,-5.64,3.08,3.08,3.08
131.15,8.17,5.09,8.17,5.09,-5.09,-5.07,-5.59,3.08,3.08,3.08
132.46,8.13,5.04,8.13,5.05,-5.06,-5.04,-5.54,3.07,3.08,3.09
133.79,8.10,5.01,8.11,5.02,-5.03,-5.01,-5.49,3.07,3.08,3.09
135.12,8.08,4.99,8.09,4.99,-5.00,-4.98,-5.43,3.08,3.08,3.09
136.48,8.07,4.98,8.07,4.98,-4.97,-4.94,-5.37,3.10,3.09,3.09
137.84,8.05,4.96,8.05,4.96,-4.95,-4.91,-5.30,3.11,3.10,3.09
139.22,8.02,4.93,8.03,4.93,-4.92,-4.88,-5.23,3.10,3.11,3.09
140.61,7.99,4.90,7.99,4.90,-4.89,-4.85,-5.16,3.10,3.10,3.09
142.02,7.96,4.86,7.96,4.86,-4.86,-4.82,-5.08,3.11,3.10,3.10
143.44,7.92,4.82,7.93,4.82,-4.83,-4.79,-5.01,3.10,3.10,3.10
144.87,7.89,4.79,7.89,4.78,-4.79,-4.75,-4.93,3.10,3.09,3.10
146.32,7.85,4.74,7.85,4.75,-4.76,-4.72,-4.85,3.09,3.09,3.11
147.78,7.82,4.71,7.83,4.72,-4.73,-4.69,-4.78,3.09,3.10,3.11
149.26,7.81,4.70,7.81,4.70,-4.70,-4.66,-4.70,3.11,3.11,3.11
150.75,7.80,4.68,7.80,4.68,-4.67,-4.62,-4.62,3.13,3.13,3.12
152.26,7.78,4.66,7.78,4.66,-4.64,-4.59,-4.54,3.14,3.14,3.12
153.78,7.74,4.62,7.75,4.62,-4.61,-4.56,-4.47,3.13,3.14,3.12
155.32,7.71,4.58,7.71,4.58,-4.58,-4.53,-4.39,3.14,3.13,3.13
156.88,7.66,4.53,7.67,4.54,-4.54,-4.49,-4.32,3.13,3.13,3.13
158.44,7.62,4.49,7.62,4.49,-4.50,-4.46,-4.25,3.13,3.13,3.13
160.03,7.58,4.45,7.58,4.45,-4.46,-4.43,-4.18,3.13,3.13,3.13
161.63,7.54,4.41,7.55,4.41,-4.42,-4.39,-4.11,3.13,3.13,3.13
163.24,7.51,4.37,7.51,4.37,-4.38,-4.36,-4.04,3.14,3.13,3.14
164.88,7.47,4.33,7.48,4.34,-4.34,-4.32,-3.98,3.13,3.14,3.14
166.53,7.44,4.30,7.44,4.30,-4.30,-4.29,-3.92,3.14,3.14,3.14
168.19,7.41,4.27,7.41,4.27,-4.27,-4.26,-3.86,3.15,3.14,3.14
169.87,7.37,4.22,7.38,4.23,-4.23,-4.22,-3.81,3.15,3.15,3.15
171.57,7.34,4.19,7.34,4.19,-4.18,-4.18,-3.76,3.16,3.16,3.15
173.29,7.30,4.15,7.30,4.15,-4.14,-4.15,-3.70,3.17,3.16,3.15
175.02,7.25,4.10,7.25,4.10,-4.09,-4.11,-3.66,3.16,3.16,3.15
176.77,7.19,4.03,7.20,4.04,-4.04,-4.08,-3.61,3.15,3.16,3.16
178.54,7.14,3.98,7.14,3.98,-3.99,-4.04,-3.57,3.16,3.15,3.16
180.32,7.08,3.92,7.09,3.92,-3.93,-4.00,-3.53,3.15,3.15,3.16
182.13,7.03,3.87,7.03,3.87,-3.88,-3.97,-3.50,3.16,3.16,3.16
183.95,6.98,3.82,6.98,3.82,-3.82,-3.93,-3.46,3.16,3.16,3.16
185.79,6.93,3.77,6.94,3.77,-3.77,-3.89,-3.43,3.17,3.17,3.16
187.65,6.89,3.73,6.89,3.72,-3.72,-3.86,-3.40,3.18,3.17,3.16
189.52,6.83,3.67,6.84,3.67,-3.67,-3.82,-3.38,3.16,3.16,3.16
191.42,6.78,3.62,6.79,3.62,-3.63,-3.78,-3.35,3.15,3.16,3.16
193.33,6.74,3.58,6.74,3.58,-3.59,-3.74,-3.33,3.15,3.15,3.16
195.27,6.70,3.54,6.71,3.55,-3.56,-3.70,-3.31,3.14,3.15,3.16
197.22,6.68,3.52,6.69,3.52,-3.53,-3.66,-3.30,3.15,3.15,3.16
199.19,6.67,3.51,6.67,3.51,-3.51,-3.62,-3.28,3.17,3.16,3.16
201.18,6.66,3.49,6.66,3.49,-3.49,-3.58,-3.27,3.18,3.18,3.17
203.19,6.65,3.48,6.65,3.48,-3.47,-3.54,-3.25,3.18,3.18,3.17
205.23,6.63,3.45,6.63,3.46,-3.45,-3.50,-3.24,3.18,3.18,3.18
207.28,6.61,3.43,6.61,3.43,-3.43,-3.46,-3.23,3.18,3.18,3.18
209.35,6.59,3.41,6.59,3.41,-3.41,-3.42,-3.23,3.18,3.18,3.18
211.44,6.57,3.38,6.58,3.39,-3.39,-3.38,-3.22,3.18,3.19,3.19
213.56,6.56,3.37,6.56,3.37,-3.36,-3.34,-3.21,3.20,3.19,3.19
215.69,6.53,3.34,6.53,3.34,-3.33,-3.30,-3.20,3.20,3.20,3.19
217.85,6.50,3.31,6.50,3.31,-3.31,-3.26,-3.20,3.20,3.20,3.19
220.03,6.47,3.27,6.47,3.28,-3.28,-3.22,-3.19,3.19,3.19,3.20
222.23,6.44,3.24,6.45,3.25,-3.25,-3.17,-3.18,3.19,3.19,3.20
224.45,6.42,3.22,6.42,3.22,-3.22,-3.13,-3.18,3.20,3.20,3.20
226.70,6.39,3.19,6.40,3.19,-3.19,-3.09,-3.17,3.20,3.20,3.20
228.96,6.37,3.16,6.37,3.17,-3.16,-3.05,-3.16,3.21,3.21,3.21
231.25,6.35,3.14,6.35,3.14,-3.14,-3.01,-3.15,3.22,3.21,3.21
233.57,6.33,3.12,6.33,3.12,-3.11,-2.96,-3.14,3.22,3.22,3.21
235.90,6.30,3.08,6.31,3.09,-3.09,-2.92,-3.12,3.21,3.22,3.22
238.26,6.28,3.06,6.28,3.06,-3.07,-2.88,-3.10,3.22,3.22,3.22
240.64,6.26,3.03,6.27,3.03,-3.04,-2.84,-3.08,3.22,3.22,3.23
243.05,6.25,3.01,6.25,3.01,-3.02,-2.79,-3.06,3.24,3.24,3.24
245.48,6.24,2.99,6.24,2.99,-2.99,-2.75,-3.04,3.26,3.25,3.25
247.93,6.22,2.97,6.22,2.97,-2.95,-2.71,-3.01,3.27,3.27,3.25
250.41,6.19,2.93,6.19,2.93,-2.92,-2.66,-2.98,3.27,3.27,3.26
252.92,6.15,2.88,6.15,2.88,-2.88,-2.62,-2.95,3.27,3.27,3.27
255.45,6.11,2.83,6.11,2.83,-2.84,-2.58,-2.91,3.28,3.27,3.28
258.00,6.06,2.78,6.07,2.78,-2.79,-2.53,-2.88,3.27,3.28,3.28
260.58,6.02,2.73,6.02,2.74,-2.74,-2.49,-2.83,3.28,3.29,3.29
263.19,5.98,2.69,5.98,2.69,-2.69,-2.45,-2.79,3.30,3.29,3.29
265.82,5.93,2.64,5.93,2.63,-2.63,-2.41,-2.74,3.30,3.30,3.29
268.48,5.87,2.57,5.88,2.58,-2.58,-2.36,-2.70,3.29,3.30,3.30
271.16,5.82,2.52,5.82,2.52,-2.53,-2.32,-2.64,3.30,3.30,3.30
273.87,5.77,2.47,5.77,2.47,-2.47,-2.28,-2.59,3.30,3.30,3.30
276.61,5.72,2.41,5.73,2.42,-2.42,-2.23,-2.54,3.30,3.31,3.31
279.38,5.68,2.37,5.68,2.37,-2.36,-2.19,-2.48,3.32,3.32,3.31
282.17,5.63,2.31,5.63,2.32,-2.31,-2.15,-2.42,3.32,3.33,3.32
284.99,5.58,2.26,5.58,2.26,-2.25,-2.10,-2.36,3.33,3.33,3.32
287.84,5.52,2.20,5.52,2.20,-2.20,-2.06,-2.30,3.32,3.32,3.32
290.72,5.45,2.13,5.46,2.14,-2.14,-2.02,-2.24,3.31,3.32,3.32
293.63,5.40,2.08,5.40,2.08,-2.09,-1.98,-2.18,3.31,3.31,3.32
296.57,5.35,2.03,5.35,2.03,-2.03,-1.93,-2.12,3.32,3.32,3.32
299.53,5.30,1.97,5.31,1.98,-1.97,-1.89,-2.05,3.33,3.33,3.33
302.53,5.26,1.93,5.26,1.93,-1.92,-1.85,-1.99,3.35,3.34,3.33
305.55,5.20,1.87,5.20,1.87,-1.86,-1.81,-1.93,3.34,3.34,3.33
308.61,5.14,1.80,5.14,1.80,-1.80,-1.76,-1.86,3.34,3.34,3.34
311.69,5.08,1.74,5.08,1.74,-1.75,-1.72,-1.80,3.34,3.34,3.34
314.81,5.02,1.67,5.03,1.68,-1.69,-1.68,-1.74,3.33,3.34,3.35
317.96,4.98,1.63,4.98,1.63,-1.64,-1.64,-1.68,3.35,3.35,3.35
321.14,4.94,1.58,4.94,1.58,-1.58,-1.59,-1.61,3.36,3.36,3.36
324.35,4.90,1.54,4.90,1.54,-1.53,-1.55,-1.55,3.37,3.37,3.36
327.59,4.85,1.49,4.85,1.49,-1.48,-1.51,-1.49,3.37,3.37,3.36
330.87,4.80,1.43,4.81,1.44,-1.44,-1.47,-1.43,3.37,3.37,3.37
334.18,4.76,1.38,4.76,1.38,-1.39,-1.43,-1.37,3.37,3.37,3.38
337.52,4.72,1.34,4.72,1.34,-1.34,-1.38,-1.32,3.38,3.38,3.38
340.90,4.68,1.29,4.68,1.30,-1.29,-1.34,-1.26,3.39,3.39,3.39
344.30,4.64,1.25,4.64,1.25,-1.24,-1.30,-1.20,3.40,3.40,3.39
347.75,4.59,1.20,4.59,1.20,-1.19,-1.26,-1.15,3.40,3.40,3.39
351.23,4.53,1.14,4.54,1.14,-1.14,-1.22,-1.09,3.39,3.40,3.39
354.74,4.48,1.08,4.48,1.08,-1.09,-1.18,-1.04,3.39,3.39,3.40
358.28,4.42,1.02,4.43,1.03,-1.04,-1.13,-0.98,3.38,3.39,3.40
361.87,4.38,0.98,4.38,0.98,-0.99,-1.09,-0.93,3.39,3.39,3.40
365.49,4.34,0.94,4.34,0.94,-0.94,-1.05,-0.88,3.40,3.40,3.40
369.14,4.30,0.90,4.30,0.90,-0.89,-1.01,-0.83,3.41,3.41,3.40
372.83,4.25,0.85,4.25,0.85,-0.84,-0.97,-0.78,3.41,3.41,3.40
376.56,4.20,0.79,4.20,0.80,-0.79,-0.93,-0.73,3.41,3.41,3.41
380.33,4.15,0.74,4.15,0.74,-0.74,-0.88,-0.68,3.41,3.41,3.41
384.13,4.10,0.69,4.10,0.69,-0.70,-0.84,-0.63,3.41,3.41,3.41
387.97,4.05,0.64,4.06,0.64,-0.65,-0.80,-0.58,3.40,3.41,3.41
391.85,4.01,0.59,4.02,0.60,-0.60,-0.76,-0.54,3.41,3.41,3.42
395.77,3.98,0.56,3.98,0.56,-0.56,-0.72,-0.49,3.42,3.42,3.42
399.73,3.95,0.52,3.95,0.52,-0.52,-0.67,-0.44,3.43,3.43,3.43
403.72,3.91,0.48,3.92,0.48,-0.48,-0.63,-0.40,3.43,3.44,3.43
407.76,3.88,0.44,3.88,0.44,-0.44,-0.59,-0.35,3.44,3.44,3.44
411.84,3.85,0.41,3.85,0.41,-0.40,-0.55,-0.31,3.45,3.45,3.44
415.96,3.81,0.36,3.82,0.37,-0.36,-0.51,-0.27,3.45,3.45,3.45
420.12,3.78,0.33,3.78,0.33,-0.32,-0.46,-0.22,3.46,3.45,3.45
424.32,3.73,0.28,3.74,0.28,-0.28,-0.42,-0.18,3.45,3.45,3.45
428.56,3.69,0.23,3.70,0.24,-0.24,-0.38,-0.14,3.45,3.45,3.46
432.85,3.65,0.19,3.66,0.19,-0.20,-0.34,-0.10,3.45,3.46,3.46
437.18,3.62,0.16,3.62,0.16,-0.16,-0.29,-0.06,3.46,3.46,3.46
441.55,3.58,0.12,3.58,0.12,-0.12,-0.25,-0.02,3.46,3.46,3.46
445.96,3.54,0.08,3.54,0.08,-0.09,-0.21,0.02,3.46,3.46,3.46
450.42,3.50,0.04,3.51,0.04,-0.05,-0.16,0.06,3.45,3.46,3.46
454.93,3.47,0.01,3.47,0.01,-0.01,-0.12,0.10,3.46,3.46,3.46
459.48,3.43,-0.03,3.44,-0.02,0.03,-0.08,0.14,3.46,3.47,3.46
464.07,3.40,-0.06,3.40,-0.06,0.07,-0.03,0.18,3.48,3.47,3.46
468.71,3.35,-0.11,3.35,-0.11,0.12,0.01,0.22,3.47,3.47,3.46
473.40,3.30,-0.16,3.30,-0.16,0.16,0.06,0.26,3.46,3.46,3.46
478.13,3.25,-0.22,3.25,-0.22,0.21,0.10,0.29,3.46,3.46,3.47
482.91,3.20,-0.27,3.21,-0.26,0.25,0.15,0.33,3.46,3.46,3.47
487.74,3.16,-0.31,3.16,-0.31,0.30,0.19,0.37,3.47,3.47,3.47
492.62,3.12,-0.35,3.12,-0.35,0.35,0.24,0.40,3.48,3.48,3.47
497.55,3.08,-0.40,3.08,-0.40,0.41,0.29,0.44,3.49,3.49,3.48
502.52,3.03,-0.45,3.03,-0.45,0.46,0.33,0.47,3.49,3.49,3.48
507.55,2.97,-0.51,2.97,-0.51,0.51,0.38,0.51,3.49,3.49,3.48
512.62,2.91,-0.57,2.91,-0.57,0.57,0.43,0.54,3.48,3.48,3.48
517.75,2.85,-0.64,2.86,-0.63,0.63,0.47,0.58,3.48,3.48,3.49
522.93,2.80,-0.69,2.80,-0.69,0.68,0.52,0.61,3.49,3.48,3.49
528.16,2.74,-0.75,2.75,-0.75,0.74,0.57,0.65,3.49,3.49,3.49
533.44,2.69,-0.80,2.69,-0.80,0.80,0.62,0.68,3.50,3.50,3.49
538.77,2.64,-0.86,2.64,-0.86,0.86,0.67,0.72,3.50,3.50,3.50
544.16,2.58,-0.92,2.58,-0.92,0.92,0.72,0.75,3.50,3.50,3.50
549.60,2.52,-0.98,2.53,-0.97,0.97,0.77,0.79,3.50,3.50,3.50
