frequency,raw,error,smoothed,error_smoothed,equalization,parametric_eq,fixed_band_eq,equalized_raw,equalized_smoothed,target
20.00,-22.50,-17.66,-22.50,-17.66,6.00,5.97,2.71,-16.50,-16.50,-4.84
20.20,-22.40,-17.65,-22.39,-17.65,6.00,5.97,2.78,-16.40,-16.39,-4.75
20.40,-22.29,-17.63,-22.29,-17.63,6.00,5.98,2.86,-16.29,-16.29,-4.66
20.61,-22.19,-17.60,-22.18,-17.61,6.00,5.98,2.94,-16.19,-16.18,-4.59
20.81,-22.08,-17.58,-22.08,-17.58,6.00,5.99,3.03,-16.08,-16.08,-4.50
21.02,-21.98,-17.56,-21.97,-17.55,6.00,5.99,3.11,-15.98,-15.97,-4.42
21.23,-21.87,-17.51,-21.87,-17.51,6.00,6.00,3.20,-15.87,-15.87,-4.36
21.44,-21.76,-17.47,-21.76,-17.47,6.00,6.00,3.29,-15.76,-15.76,-4.30
21.66,-21.66,-17.43,-21.66,-17.42,6.00,6.00,3.39,-15.66,-15.66,-4.23
21.87,-21.54,-17.37,-21.55,-17.37,6.00,6.01,3.48,-15.54,-15.55,-4.18
22.09,-21.43,-17.31,-21.44,-17.31,6.00,6.01,3.58,-15.43,-15.44,-4.13
22.31,-21.32,-17.25,-21.32,-17.24,6.00,6.02,3.68,-15.32,-15.32,-4.08
22.54,-21.22,-17.19,-21.22,-17.18,6.00,6.02,3.79,-15.22,-15.22,-4.03
22.76,-21.11,-17.11,-21.11,-17.12,6.00,6.02,3.90,-15.11,-15.11,-3.99
22.99,-21.01,-17.06,-21.00,-17.05,6.00,6.03,4.01,-15.01,-15.00,-3.95
23.22,-20.89,-16.97,-20.89,-16.98,6.00,6.03,4.12,-14.89,-14.89,-3.91
23.45,-20.78,-16.91,-20.78,-16.91,6.00,6.03,4.24,-14.78,-14.78,-3.86
23.69,-20.67,-16.84,-20.67,-16.84,6.00,6.03,4.35,-14.67,-14.67,-3.82
23.92,-20.55,-16.77,-20.55,-16.77,6.00,6.04,4.47,-14.55,-14.55,-3.78
24.16,-20.44,-16.70,-20.44,-16.70,6.00,6.04,4.60,-14.44,-14.44,-3.73
24.40,-20.31,-16.62,-20.32,-16.62,6.00,6.04,4.72,-14.31,-14.32,-3.69
24.65,-20.21,-16.54,-20.20,-16.54,6.00,6.04,4.85,-14.21,-14.20,-3.66
24.89,-20.08,-16.46,-20.08,-16.46,6.00,6.05,4.98,-14.08,-14.08,-3.62
25.14,-19.96,-16.38,-19.97,-16.38,6.00,6.05,5.11,-13.96,-13.97,-3.58
25.39,-19.85,-16.31,-19.85,-16.31,6.00,6.05,5.24,-13.85,-13.85,-3.54
25.65,-19.74,-16.23,-19.73,-16.23,6.00,6.05,5.37,-13.74,-13.73,-3.51
25.91,-19.62,-16.14,-19.62,-16.14,6.00,6.05,5.51,-13.62,-13.62,-3.48
26.16,-19.49,-16.06,-19.50,-16.06,6.00,6.05,5.64,-13.49,-13.50,-3.44
26.43,-19.39,-15.98,-19.38,-15.98,6.00,6.05,5.77,-13.39,-13.38,-3.41
26.69,-19.27,-15.90,-19.27,-15.90,6.00,6.06,5.91,-13.27,-13.27,-3.37
26.96,-19.15,-15.82,-19.15,-15.82,6.00,6.06,6.04,-13.15,-13.15,-3.33
27.23,-19.03,-15.73,-19.02,-15.73,6.00,6.06,6.17,-13.03,-13.02,-3.30
27.50,-18.90,-15.64,-18.90,-15.64,6.00,6.06,6.29,-12.90,-12.90,-3.26
27.77,-18.77,-15.54,-18.78,-15.55,6.00,6.06,6.41,-12.77,-12.78,-3.23
28.05,-18.66,-15.46,-18.65,-15.46,6.00,6.06,6.53,-12.66,-12.65,-3.19
28.33,-18.54,-15.36,-18.53,-15.37,6.00,6.06,6.65,-12.54,-12.53,-3.17
28.62,-18.41,-15.27,-18.41,-15.28,6.00,6.06,6.75,-12.41,-12.41,-3.13
28.90,-18.29,-15.19,-18.29,-15.19,6.00,6.06,6.85,-12.29,-12.29,-3.09
29.19,-18.17,-15.10,-18.16,-15.10,6.00,6.06,6.95,-12.17,-12.16,-3.07
29.48,-18.04,-15.02,-18.04,-15.01,6.00,6.06,7.03,-12.04,-12.04,-3.02
29.78,-17.91,-14.91,-17.91,-14.92,6.00,6.06,7.11,-11.91,-11.91,-3.00
30.08,-17.78,-14.82,-17.77,-14.82,6.00,6.06,7.18,-11.78,-11.77,-2.96
30.38,-17.64,-14.71,-17.64,-14.71,6.00,6.06,7.23,-11.64,-11.64,-2.93
30.68,-17.50,-14.61,-17.50,-14.60,6.00,6.06,7.28,-11.50,-11.50,-2.89
30.99,-17.36,-14.49,-17.35,-14.49,6.00,6.06,7.32,-11.36,-11.35,-2.87
31.30,-17.21,-14.37,-17.21,-14.38,6.00,6.06,7.35,-11.21,-11.21,-2.83
31.61,-17.07,-14.26,-17.06,-14.26,6.00,6.05,7.36,-11.07,-11.06,-2.80
31.93,-16.92,-14.14,-16.92,-14.14,6.00,6.05,7.37,-10.92,-10.92,-2.78
32.24,-16.77,-14.02,-16.78,-14.03,6.00,6.05,7.36,-10.77,-10.78,-2.76
32.57,-16.64,-13.91,-16.64,-13.91,6.00,6.05,7.35,-10.64,-10.64,-2.73
32.89,-16.51,-13.82,-16.50,-13.81,6.00,6.05,7.33,-10.51,-10.50,-2.69
33.22,-16.37,-13.69,-16.37,-13.70,6.00,6.05,7.30,-10.37,-10.37,-2.67
33.55,-16.24,-13.59,-16.24,-13.59,6.00,6.05,7.26,-10.24,-10.24,-2.65
33.89,-16.12,-13.48,-16.11,-13.48,6.00,6.04,7.21,-10.12,-10.11,-2.63
34.23,-15.99,-13.38,-15.99,-13.38,6.00,6.04,7.16,-9.99,-9.99,-2.61
34.57,-15.87,-13.28,-15.86,-13.27,6.00,6.04,7.10,-9.87,-9.86,-2.59
34.92,-15.74,-13.16,-15.74,-13.17,6.00,6.04,7.03,-9.74,-9.74,-2.58
35.27,-15.62,-13.07,-15.62,-13.06,6.00,6.04,6.97,-9.62,-9.62,-2.55
35.62,-15.50,-12.95,-15.50,-12.95,6.00,6.03,6.89,-9.50,-9.50,-2.54
35.97,-15.37,-12.84,-15.38,-12.85,6.00,6.03,6.82,-9.37,-9.38,-2.54
36.33,-15.27,-12.75,-15.27,-12.74,6.00,6.03,6.75,-9.27,-9.27,-2.52
36.70,-15.16,-12.65,-15.15,-12.64,6.00,6.03,6.67,-9.16,-9.15,-2.51
37.06,-15.04,-12.54,-15.04,-12.55,6.00,6.02,6.60,-9.04,-9.04,-2.50
37.43,-14.93,-12.45,-14.94,-12.45,6.00,6.02,6.52,-8.93,-8.94,-2.48
37.81,-14.83,-12.35,-14.83,-12.35,6.00,6.02,6.45,-8.83,-8.83,-2.48
38.19,-14.73,-12.26,-14.72,-12.25,6.00,6.02,6.37,-8.73,-8.72,-2.47
38.57,-14.61,-12.14,-14.61,-12.14,6.00,6.01,6.30,-8.61,-8.61,-2.46
38.95,-14.49,-12.03,-14.50,-12.04,6.00,6.01,6.23,-8.49,-8.50,-2.47
39.34,-14.39,-11.93,-14.39,-11.93,6.00,6.01,6.17,-8.39,-8.39,-2.47
39.74,-14.29,-11.82,-14.29,-11.82,6.00,6.01,6.10,-8.29,-8.29,-2.46
40.14,-14.18,-11.71,-14.18,-11.72,6.00,6.00,6.04,-8.18,-8.18,-2.47
40.54,-14.08,-11.61,-14.07,-11.61,6.00,6.00,5.99,-8.08,-8.07,-2.47
40.94,-13.97,-11.50,-13.97,-11.50,6.00,6.00,5.93,-7.97,-7.97,-2.46
41.35,-13.87,-11.40,-13.86,-11.40,6.00,5.99,5.89,-7.87,-7.86,-2.47
41.76,-13.76,-11.30,-13.76,-11.30,6.00,5.99,5.84,-7.76,-7.76,-2.46
42.18,-13.66,-11.20,-13.65,-11.20,6.00,5.99,5.80,-7.66,-7.65,-2.45
42.60,-13.55,-11.09,-13.55,-11.10,6.00,5.98,5.76,-7.55,-7.55,-2.46
43.03,-13.45,-10.99,-13.45,-10.99,6.00,5.98,5.73,-7.45,-7.45,-2.45
43.46,-13.35,-10.89,-13.35,-10.89,6.00,5.98,5.70,-7.35,-7.35,-2.46
43.90,-13.25,-10.78,-13.25,-10.78,6.00,5.97,5.68,-7.25,-7.25,-2.47
44.33,-13.15,-10.67,-13.15,-10.67,6.00,5.97,5.66,-7.15,-7.15,-2.48
44.78,-13.05,-10.57,-13.05,-10.57,6.00,5.97,5.64,-7.05,-7.05,-2.48
45.23,-12.95,-10.46,-12.95,-10.46,6.00,5.96,5.63,-6.95,-6.95,-2.49
45.68,-12.86,-10.37,-12.85,-10.36,6.00,5.96,5.63,-6.86,-6.85,-2.49
46.13,-12.76,-10.26,-12.76,-10.27,6.00,5.96,5.62,-6.76,-6.76,-2.50
46.60,-12.67,-10.18,-12.67,-10.17,6.00,5.95,5.63,-6.67,-6.67,-2.49
47.06,-12.58,-10.09,-12.58,-10.09,6.00,5.95,5.63,-6.58,-6.58,-2.49
47.53,-12.49,-9.99,-12.49,-10.00,6.00,5.95,5.64,-6.49,-6.49,-2.49
48.01,-12.40,-9.92,-12.40,-9.91,6.00,5.94,5.66,-6.40,-6.40,-2.48
48.49,-12.31,-9.81,-12.31,-9.81,6.00,5.94,5.67,-6.31,-6.31,-2.50
48.97,-12.22,-9.71,-12.22,-9.72,6.00,5.94,5.69,-6.22,-6.22,-2.50
49.46,-12.14,-9.63,-12.13,-9.62,6.00,5.93,5.72,-6.14,-6.13,-2.51
49.96,-12.05,-9.53,-12.05,-9.54,6.00,5.93,5.75,-6.05,-6.05,-2.52
50.46,-11.96,-9.46,-11.96,-9.46,6.00,5.93,5.78,-5.96,-5.96,-2.50
50.96,-11.88,-9.38,-11.87,-9.37,6.00,5.92,5.81,-5.88,-5.87,-2.49
51.47,-11.78,-9.27,-11.78,-9.29,6.00,5.92,5.84,-5.78,-5.78,-2.50
51.99,-11.69,-9.20,-11.69,-9.20,6.00,5.92,5.88,-5.69,-5.69,-2.49
52.51,-11.61,-9.13,-11.60,-9.12,6.00,5.92,5.92,-5.61,-5.60,-2.48
53.03,-11.53,-9.06,-11.53,-9.06,6.00,5.91,5.96,-5.53,-5.53,-2.47
53.56,-11.45,-8.98,-11.45,-8.98,6.00,5.91,6.00,-5.45,-5.45,-2.47
54.10,-11.38,-8.91,-11.37,-8.91,6.00,5.91,6.04,-5.38,-5.37,-2.47
54.64,-11.29,-8.83,-11.29,-8.83,6.00,5.90,6.08,-5.29,-5.29,-2.46
55.18,-11.22,-8.76,-11.21,-8.75,6.00,5.90,6.12,-5.22,-5.21,-2.46
55.74,-11.14,-8.68,-11.14,-8.68,6.00,5.90,6.16,-5.14,-5.14,-2.46
56.29,-11.07,-8.61,-11.07,-8.61,6.00,5.90,6.20,-5.07,-5.07,-2.46
56.86,-11.01,-8.55,-11.00,-8.54,6.00,5.89,6.24,-5.01,-5.00,-2.46
57.42,-10.94,-8.46,-10.94,-8.47,6.00,5.89,6.27,-4.94,-4.94,-2.47
58.00,-10.88,-8.40,-10.88,-8.40,6.00,5.89,6.30,-4.88,-4.88,-2.48
58.58,-10.82,-8.34,-10.82,-8.34,6.00,5.89,6.33,-4.82,-4.82,-2.48
59.16,-10.76,-8.27,-10.76,-8.28,6.00,5.89,6.36,-4.76,-4.76,-2.48
59.76,-10.70,-8.21,-10.70,-8.21,6.00,5.89,6.38,-4.70,-4.70,-2.49
60.35,-10.64,-8.14,-10.64,-8.14,6.00,5.88,6.39,-4.64,-4.64,-2.50
60.96,-10.58,-8.06,-10.58,-8.06,6.00,5.88,6.40,-4.58,-4.58,-2.51
61.57,-10.52,-7.98,-10.52,-7.98,6.00,5.88,6.41,-4.52,-4.52,-2.54
62.18,-10.47,-7.90,-10.47,-7.91,6.00,5.88,6.41,-4.47,-4.47,-2.56
62.80,-10.42,-7.85,-10.42,-7.84,6.00,5.88,6.41,-4.42,-4.42,-2.57
63.43,-10.37,-7.77,-10.37,-7.77,6.00,5.88,6.40,-4.37,-4.37,-2.60
64.07,-10.32,-7.71,-10.31,-7.71,6.00,5.88,6.38,-4.32,-4.31,-2.60
64.71,-10.27,-7.66,-10.27,-7.66,6.00,5.88,6.36,-4.27,-4.27,-2.61
65.35,-10.23,-7.61,-10.23,-7.61,6.00,5.88,6.34,-4.23,-4.23,-2.62
66.01,-10.20,-7.57,-10.19,-7.56,6.00,5.88,6.31,-4.20,-4.19,-2.63
66.67,-10.16,-7.52,-10.15,-7.52,6.00,5.88,6.28,-4.16,-4.15,-2.64
67.33,-10.12,-7.48,-10.12,-7.48,6.00,5.88,6.24,-4.12,-4.12,-2.64
68.01,-10.08,-7.44,-10.08,-7.44,6.00,5.88,6.20,-4.08,-4.08,-2.64
68.69,-10.05,-7.41,-10.04,-7.40,6.00,5.88,6.16,-4.05,-4.04,-2.64
69.37,-10.01,-7.37,-10.00,-7.37,6.00,5.88,6.11,-4.01,-4.00,-2.64
70.07,-9.97,-7.33,-9.97,-7.33,6.00,5.88,6.06,-3.97,-3.97,-2.64
70.77,-9.93,-7.29,-9.93,-7.29,6.00,5.88,6.01,-3.93,-3.93,-2.63
71.48,-9.90,-7.26,-9.89,-7.26,6.00,5.89,5.96,-3.90,-3.89,-2.64
72.19,-9.86,-7.22,-9.86,-7.22,6.00,5.89,5.91,-3.86,-3.86,-2.64
72.91,-9.83,-7.18,-9.83,-7.18,6.00,5.89,5.86,-3.83,-3.83,-2.64
73.64,-9.80,-7.14,-9.80,-7.14,6.00,5.89,5.81,-3.80,-3.80,-2.66
74.38,-9.77,-7.11,-9.77,-7.11,6.00,5.89,5.76,-3.77,-3.77,-2.65
75.12,-9.75,-7.09,-9.74,-7.08,6.00,5.90,5.71,-3.75,-3.74,-2.66
75.87,-9.72,-7.06,-9.72,-7.06,6.00,5.90,5.66,-3.72,-3.72,-2.66
76.63,-9.70,-7.03,-9.70,-7.03,6.00,5.90,5.62,-3.70,-3.70,-2.66
77.40,-9.68,-7.01,-9.67,-7.01,6.00,5.91,5.58,-3.68,-3.67,-2.66
78.17,-9.66,-6.99,-9.66,-6.99,6.00,5.91,5.53,-3.66,-3.66,-2.67
78.95,-9.64,-6.98,-9.64,-6.98,6.00,5.91,5.50,-3.64,-3.64,-2.66
79.74,-9.63,-6.98,-9.62,-6.97,6.00,5.92,5.46,-3.63,-3.62,-2.65
80.54,-9.61,-6.97,-9.61,-6.97,6.00,5.92,5.43,-3.61,-3.61,-2.64
81.35,-9.60,-6.97,-9.60,-6.97,6.00,5.93,5.40,-3.60,-3.60,-2.63
82.16,-9.59,-6.97,-9.59,-6.97,6.00,5.93,5.37,-3.59,-3.59,-2.62
82.98,-9.59,-6.99,-9.58,-6.98,6.00,5.94,5.35,-3.59,-3.58,-2.59
83.81,-9.59,-7.00,-9.59,-7.00,6.00,5.94,5.33,-3.59,-3.59,-2.58
84.65,-9.60,-7.02,-9.60,-7.03,6.00,5.94,5.32,-3.60,-3.60,-2.58
85.50,-9.62,-7.08,-9.61,-7.07,6.00,5.95,5.31,-3.62,-3.61,-2.54
86.35,-9.63,-7.10,-9.63,-7.10,6.00,5.95,5.30,-3.63,-3.63,-2.52
87.22,-9.64,-7.13,-9.63,-7.12,6.00,5.96,5.30,-3.64,-3.63,-2.51
88.09,-9.63,-7.12,-9.63,-7.13,6.00,5.96,5.30,-3.63,-3.63,-2.50
88.97,-9.62,-7.14,-9.62,-7.13,6.00,5.97,5.30,-3.62,-3.62,-2.48
89.86,-9.60,-7.12,-9.60,-7.12,6.00,5.97,5.31,-3.60,-3.60,-2.47
90.76,-9.58,-7.10,-9.58,-7.10,6.00,5.98,5.33,-3.58,-3.58,-2.48
91.66,-9.56,-7.09,-9.55,-7.08,6.00,5.98,5.34,-3.56,-3.55,-2.47
92.58,-9.53,-7.04,-9.53,-7.05,6.00,5.99,5.36,-3.53,-3.53,-2.48
93.51,-9.50,-7.01,-9.50,-7.02,6.00,5.99,5.39,-3.50,-3.50,-2.48
94.44,-9.47,-6.98,-9.46,-6.97,6.00,6.00,5.42,-3.47,-3.46,-2.49
95.39,-9.43,-6.92,-9.43,-6.92,6.00,6.00,5.45,-3.43,-3.43,-2.51
96.34,-9.40,-6.86,-9.40,-6.86,6.00,6.01,5.48,-3.40,-3.40,-2.54
97.30,-9.37,-6.80,-9.36,-6.80,6.00,6.01,5.52,-3.37,-3.36,-2.56
98.28,-9.34,-6.74,-9.33,-6.74,6.00,6.01,5.56,-3.34,-3.33,-2.59
99.26,-9.31,-6.68,-9.31,-6.68,6.00,6.02,5.61,-3.31,-3.31,-2.62
100.25,-9.29,-6.63,-9.29,-6.63,6.00,6.02,5.66,-3.29,-3.29,-2.66
101.25,-9.28,-6.58,-9.27,-6.58,6.00,6.02,5.71,-3.28,-3.27,-2.70
102.27,-9.27,-6.54,-9.27,-6.53,6.00,6.02,5.76,-3.27,-3.27,-2.73
103.29,-9.27,-6.49,-9.27,-6.49,6.00,6.02,5.81,-3.27,-3.27,-2.78
104.32,-9.27,-6.46,-9.27,-6.46,6.00,6.02,5.86,-3.27,-3.27,-2.81
105.37,-9.29,-6.44,-9.28,-6.44,6.00,6.02,5.92,-3.29,-3.28,-2.85
106.42,-9.30,-6.42,-9.29,-6.41,6.00,6.02,5.98,-3.30,-3.29,-2.88
107.48,-9.30,-6.38,-9.29,-6.38,6.00,6.02,6.03,-3.29,-3.29,-2.92
108.56,-9.28,-6.32,-9.28,-6.32,6.01,6.02,6.09,-3.27,-3.27,-2.96
109.64,-9.25,-6.25,-9.25,-6.26,6.01,6.02,6.14,-3.24,-3.24,-2.99
110.74,-9.22,-6.19,-9.21,-6.19,6.01,6.01,6.19,-3.21,-3.21,-3.02
111.85,-9.18,-6.13,-9.18,-6.13,6.00,6.01,6.24,-3.18,-3.18,-3.04
112.97,-9.15,-6.06,-9.14,-6.06,5.98,6.00,6.29,-3.16,-3.16,-3.09
114.10,-9.11,-6.00,-9.11,-6.00,5.96,5.99,6.33,-3.15,-3.15,-3.11
115.24,-9.08,-5.94,-9.08,-5.94,5.93,5.99,6.37,-3.15,-3.15,-3.14
116.39,-9.06,-5.90,-9.05,-5.89,5.89,5.98,6.40,-3.17,-3.16,-3.16
117.55,-9.03,-5.84,-9.02,-5.84,5.85,5.97,6.43,-3.17,-3.17,-3.18
118.73,-9.00,-5.80,-9.00,-5.80,5.81,5.96,6.45,-3.18,-3.18,-3.20
119.92,-8.97,-5.76,-8.97,-5.76,5.78,5.94,6.47,-3.19,-3.19,-3.21
121.12,-8.96,-5.73,-8.95,-5.73,5.75,5.93,6.48,-3.21,-3.20,-3.22
122.33,-8.95,-5.71,-8.95,-5.71,5.73,5.91,6.48,-3.22,-3.23,-3.24
123.55,-8.96,-5.71,-8.96,-5.71,5.71,5.90,6.47,-3.25,-3.25,-3.25
124.79,-8.97,-5.70,-8.96,-5.70,5.69,5.88,6.46,-3.27,-3.27,-3.26
126.03,-8.97,-5.69,-8.97,-5.69,5.67,5.86,6.44,-3.29,-3.29,-3.28
127.29,-8.96,-5.67,-8.96,-5.67,5.65,5.84,6.41,-3.30,-3.30,-3.28
128.57,-8.95,-5.64,-8.94,-5.64,5.63,5.82,6.37,-3.32,-3.31,-3.31
129.85,-8.92,-5.60,-8.92,-5.60,5.60,5.79,6.33,-3.32,-3.32,-3.32
131.15,-8.89,-5.55,-8.89,-5.56,5.56,5.77,6.28,-3.32,-3.33,-3.33
132.46,-8.87,-5.52,-8.86,-5.52,5.52,5.74,6.22,-3.35,-3.34,-3.35
133.79,-8.84,-5.49,-8.83,-5.47,5.47,5.71,6.15,-3.36,-3.36,-3.35
135.12,-8.79,-5.41,-8.80,-5.43,5.42,5.68,6.08,-3.36,-3.37,-3.38
136.48,-8.77,-5.39,-8.76,-5.38,5.37,5.65,6.01,-3.39,-3.39,-3.38
137.84,-8.73,-5.33,-8.73,-5.33,5.32,5.62,5.93,-3.40,-3.41,-3.40
139.22,-8.71,-5.28,-8.70,-5.28,5.28,5.59,5.84,-3.43,-3.43,-3.43
140.61,-8.68,-5.23,-8.67,-5.23,5.23,5.55,5.76,-3.44,-3.44,-3.45
142.02,-8.64,-5.18,-8.65,-5.19,5.19,5.51,5.67,-3.44,-3.45,-3.46
143.44,-8.63,-5.15,-8.62,-5.14,5.16,5.48,5.57,-3.47,-3.47,-3.47
144.87,-8.62,-5.11,-8.61,-5.11,5.12,5.44,5.48,-3.49,-3.49,-3.50
146.32,-8.61,-5.08,-8.61,-5.09,5.10,5.40,5.38,-3.51,-3.52,-3.53
147.78,-8.62,-5.08,-8.62,-5.07,5.07,5.36,5.28,-3.54,-3.54,-3.54
149.26,-8.63,-5.07,-8.62,-5.06,5.05,5.31,5.18,-3.58,-3.58,-3.56
150.75,-8.64,-5.03,-8.63,-5.04,5.03,5.27,5.09,-3.61,-3.61,-3.61
152.26,-8.64,-5.01,-8.64,-5.01,5.00,5.23,4.99,-3.63,-3.63,-3.63
153.78,-8.64,-4.98,-8.64,-4.98,4.98,5.18,4.89,-3.66,-3.66,-3.65
155.32,-8.64,-4.95,-8.64,-4.95,4.95,5.13,4.80,-3.69,-3.69,-3.69
156.88,-8.64,-4.93,-8.64,-4.92,4.92,5.09,4.70,-3.72,-3.72,-3.71
158.44,-8.64,-4.89,-8.64,-4.89,4.89,5.04,4.61,-3.75,-3.75,-3.74
160.03,-8.64,-4.85,-8.64,-4.86,4.86,4.99,4.52,-3.78,-3.78,-3.78
161.63,-8.64,-4.82,-8.64,-4.82,4.83,4.94,4.43,-3.81,-3.81,-3.81
163.24,-8.64,-4.79,-8.64,-4.80,4.80,4.89,4.35,-3.84,-3.84,-3.84
164.88,-8.64,-4.77,-8.64,-4.77,4.77,4.85,4.26,-3.87,-3.87,-3.86
166.53,-8.64,-4.74,-8.64,-4.74,4.74,4.80,4.18,-3.90,-3.90,-3.89
168.19,-8.64,-4.70,-8.64,-4.71,4.71,4.75,4.10,-3.93,-3.93,-3.93
169.87,-8.64,-4.69,-8.64,-4.68,4.68,4.70,4.03,-3.95,-3.95,-3.95
171.57,-8.64,-4.66,-8.63,-4.66,4.66,4.65,3.95,-3.97,-3.97,-3.98
173.29,-8.64,-4.63,-8.64,-4.64,4.64,4.61,3.88,-4.00,-4.00,-4.00
175.02,-8.64,-4.61,-8.64,-4.61,4.62,4.56,3.82,-4.02,-4.02,-4.02
176.77,-8.66,-4.60,-8.65,-4.59,4.60,4.52,3.75,-4.06,-4.05,-4.06
178.54,-8.66,-4.57,-8.66,-4.58,4.57,4.47,3.69,-4.08,-4.08,-4.08
180.32,-8.66,-4.56,-8.66,-4.56,4.55,4.43,3.63,-4.10,-4.10,-4.10
182.13,-8.65,-4.54,-8.64,-4.53,4.53,4.39,3.57,-4.12,-4.12,-4.10
183.95,-8.63,-4.50,-8.63,-4.50,4.50,4.35,3.52,-4.13,-4.13,-4.13
185.79,-8.61,-4.47,-8.61,-4.47,4.47,4.32,3.47,-4.14,-4.14,-4.14
187.65,-8.59,-4.43,-8.59,-4.43,4.44,4.28,3.42,-4.15,-4.15,-4.15
189.52,-8.57,-4.40,-8.57,-4.40,4.40,4.25,3.38,-4.16,-4.17,-4.17
191.42,-8.55,-4.37,-8.54,-4.36,4.36,4.22,3.33,-4.19,-4.18,-4.18
193.33,-8.52,-4.32,-8.51,-4.32,4.32,4.20,3.29,-4.20,-4.20,-4.19
195.27,-8.48,-4.27,-8.48,-4.28,4.27,4.17,3.26,-4.20,-4.21,-4.20
197.22,-8.45,-4.23,-8.44,-4.22,4.22,4.15,3.22,-4.22,-4.22,-4.21
199.19,-8.41,-4.16,-8.41,-4.17,4.17,4.12,3.19,-4.23,-4.23,-4.25
201.18,-8.37,-4.12,-8.36,-4.11,4.12,4.10,3.15,-4.25,-4.25,-4.25
203.19,-8.32,-4.06,-8.32,-4.06,4.06,4.06,3.12,-4.26,-4.26,-4.26
205.23,-8.27,-3.99,-8.27,-4.00,4.00,4.03,3.10,-4.27,-4.27,-4.28
207.28,-8.22,-3.94,-8.22,-3.93,3.93,3.98,3.07,-4.28,-4.28,-4.28
209.35,-8.17,-3.87,-8.16,-3.87,3.87,3.92,3.04,-4.30,-4.29,-4.30
211.44,-8.11,-3.79,-8.10,-3.80,3.80,3.85,3.02,-4.30,-4.30,-4.31
213.56,-8.04,-3.72,-8.04,-3.73,3.73,3.77,3.00,-4.30,-4.31,-4.31
215.69,-7.98,-3.67,-7.98,-3.66,3.66,3.69,2.97,-4.32,-4.32,-4.31
217.85,-7.91,-3.59,-7.91,-3.59,3.58,3.59,2.95,-4.32,-4.33,-4.32
220.03,-7.85,-3.51,-7.84,-3.51,3.50,3.49,2.93,-4.34,-4.34,-4.34
222.23,-7.77,-3.42,-7.76,-3.43,3.42,3.39,2.91,-4.35,-4.35,-4.34
224.45,-7.68,-3.34,-7.67,-3.33,3.33,3.29,2.88,-4.35,-4.34,-4.33
226.70,-7.58,-3.24,-7.58,-3.24,3.24,3.19,2.86,-4.34,-4.33,-4.34
228.96,-7.47,-3.12,-7.49,-3.15,3.15,3.09,2.84,-4.32,-4.34,-4.34
231.25,-7.41,-3.06,-7.39,-3.05,3.06,2.99,2.82,-4.35,-4.34,-4.34
233.57,-7.32,-2.97,-7.31,-2.96,2.96,2.89,2.79,-4.35,-4.34,-4.35
235.90,-7.21,-2.85,-7.22,-2.87,2.87,2.80,2.77,-4.34,-4.36,-4.35
238.26,-7.15,-2.78,-7.14,-2.78,2.78,2.71,2.74,-4.37,-4.36,-4.37
240.64,-7.06,-2.69,-7.06,-2.69,2.68,2.62,2.71,-4.37,-4.38,-4.36
243.05,-6.98,-2.61,-6.97,-2.60,2.59,2.54,2.68,-4.39,-4.38,-4.37
245.48,-6.88,-2.51,-6.87,-2.50,2.50,2.46,2.65,-4.38,-4.37,-4.37
247.93,-6.76,-2.39,-6.77,-2.40,2.41,2.38,2.62,-4.35,-4.36,-4.37
250.41,-6.69,-2.31,-6.67,-2.31,2.32,2.30,2.58,-4.36,-4.35,-4.37
252.92,-6.58,-2.22,-6.59,-2.23,2.24,2.22,2.54,-4.34,-4.35,-4.36
255.45,-6.51,-2.16,-6.50,-2.15,2.16,2.15,2.50,-4.35,-4.35,-4.34
258.00,-6.43,-2.09,-6.42,-2.08,2.08,2.07,2.46,-4.35,-4.34,-4.34
260.58,-6.33,-1.99,-6.33,-2.01,2.00,2.00,2.42,-4.33,-4.33,-4.33
263.19,-6.25,-1.94,-6.24,-1.93,1.93,1.93,2.38,-4.32,-4.31,-4.31
265.82,-6.15,-1.85,-6.15,-1.85,1.85,1.86,2.33,-4.29,-4.30,-4.30
268.48,-6.07,-1.78,-6.07,-1.79,1.78,1.79,2.28,-4.28,-4.28,-4.28
271.16,-5.99,-1.72,-5.98,-1.71,1.71,1.72,2.23,-4.27,-4.27,-4.27
273.87,-5.89,-1.64,-5.89,-1.64,1.64,1.65,2.18,-4.25,-4.25,-4.25
276.61,-5.80,-1.56,-5.80,-1.56,1.57,1.58,2.13,-4.22,-4.23,-4.23
279.38,-5.73,-1.50,-5.73,-1.50,1.50,1.51,2.08,-4.22,-4.22,-4.23
282.17,-5.66,-1.44,-5.65,-1.44,1.44,1.44,2.02,-4.22,-4.22,-4.22
284.99,-5.59,-1.39,-5.57,-1.37,1.37,1.38,1.97,-4.22,-4.20,-4.19
287.84,-5.48,-1.29,-5.49,-1.31,1.30,1.31,1.91,-4.17,-4.19,-4.19
290.72,-5.41,-1.24,-5.41,-1.24,1.23,1.25,1.85,-4.17,-4.17,-4.17
293.63,-5.33,-1.18,-5.32,-1.17,1.17,1.19,1.80,-4.16,-4.15,-4.15
296.57,-5.24,-1.11,-5.24,-1.11,1.10,1.12,1.74,-4.13,-4.13,-4.12
299.53,-5.15,-1.03,-5.15,-1.04,1.04,1.06,1.68,-4.10,-4.11,-4.12
302.53,-5.07,-0.97,-5.06,-0.97,0.98,1.00,1.62,-4.08,-4.08,-4.10
305.55,-4.99,-0.93,-4.98,-0.91,0.93,0.94,1.56,-4.06,-4.06,-4.06
308.61,-4.91,-0.86,-4.91,-0.87,0.88,0.89,1.51,-4.03,-4.03,-4.04
311.69,-4.84,-0.82,-4.84,-0.83,0.82,0.83,1.45,-4.01,-4.02,-4.01
314.81,-4.78,-0.80,-4.77,-0.79,0.78,0.78,1.39,-4.00,-3.99,-3.98
317.96,-4.71,-0.75,-4.70,-0.74,0.73,0.73,1.33,-3.97,-3.97,-3.96
321.14,-4.62,-0.69,-4.62,-0.69,0.69,0.68,1.28,-3.93,-3.93,-3.93
324.35,-4.55,-0.63,-4.55,-0.64,0.65,0.63,1.22,-3.90,-3.90,-3.91
327.59,-4.48,-0.59,-4.48,-0.60,0.60,0.59,1.17,-3.87,-3.88,-3.88
330.87,-4.43,-0.57,-4.42,-0.56,0.56,0.55,1.11,-3.86,-3.86,-3.85
334.18,-4.37,-0.53,-4.36,-0.53,0.52,0.51,1.06,-3.84,-3.84,-3.84
337.52,-4.29,-0.48,-4.30,-0.49,0.49,0.48,1.00,-3.80,-3.81,-3.81
340.90,-4.24,-0.46,-4.23,-0.45,0.45,0.44,0.95,-3.78,-3.78,-3.78
344.30,-4.17,-0.42,-4.17,-0.41,0.42,0.41,0.90,-3.74,-3.75,-3.75
347.75,-4.12,-0.38,-4.12,-0.39,0.39,0.38,0.84,-3.73,-3.72,-3.73
351.23,-4.06,-0.35,-4.06,-0.36,0.36,0.35,0.79,-3.70,-3.70,-3.70
354.74,-4.02,-0.34,-4.01,-0.33,0.33,0.32,0.74,-3.69,-3.69,-3.67
358.28,-3.96,-0.30,-3.96,-0.31,0.29,0.30,0.69,-3.66,-3.66,-3.66
361.87,-3.91,-0.28,-3.90,-0.27,0.26,0.28,0.64,-3.64,-3.64,-3.63
365.49,-3.84,-0.23,-3.84,-0.23,0.23,0.25,0.59,-3.61,-3.61,-3.61
369.14,-3.78,-0.19,-3.78,-0.19,0.20,0.23,0.54,-3.58,-3.58,-3.59
372.83,-3.73,-0.16,-3.73,-0.16,0.17,0.21,0.49,-3.56,-3.56,-3.57
376.56,-3.69,-0.14,-3.68,-0.14,0.14,0.18,0.44,-3.55,-3.55,-3.55
380.33,-3.65,-0.12,-3.64,-0.11,0.11,0.16,0.39,-3.53,-3.53,-3.52
384.13,-3.60,-0.08,-3.60,-0.09,0.09,0.14,0.35,-3.50,-3.51,-3.51
387.97,-3.57,-0.06,-3.57,-0.07,0.08,0.12,0.30,-3.49,-3.49,-3.50
391.85,-3.55,-0.05,-3.55,-0.05,0.06,0.10,0.25,-3.48,-3.48,-3.49
395.77,-3.53,-0.05,-3.53,-0.05,0.05,0.07,0.21,-3.48,-3.48,-3.48
399.73,-3.52,-0.05,-3.51,-0.04,0.03,0.05,0.16,-3.48,-3.48,-3.47
403.72,-3.49,-0.03,-3.48,-0.03,0.02,0.03,0.12,-3.47,-3.47,-3.46
407.76,-3.45,0.00,-3.45,-0.01,-0.00,0.00,0.07,-3.45,-3.45,-3.45
