frequency,raw,error,smoothed,error_smoothed,equalization,parametric_eq,fixed_band_eq,equalized_raw,equalized_smoothed,target
20.00,9.58,2.02,9.58,2.03,-2.02,-1.79,-0.99,7.56,7.57,7.56
20.20,9.52,1.97,9.52,1.98,-1.97,-1.81,-1.02,7.55,7.55,7.54
20.40,9.47,1.94,9.46,1.93,-1.93,-1.83,-1.05,7.54,7.53,7.52
20.61,9.41,1.90,9.41,1.89,-1.90,-1.85,-1.08,7.51,7.51,7.51
20.81,9.36,1.86,9.36,1.86,-1.87,-1.87,-1.11,7.48,7.48,7.49
21.02,9.31,1.83,9.32,1.84,-1.86,-1.89,-1.15,7.45,7.46,7.48
21.23,9.31,1.84,9.31,1.84,-1.85,-1.90,-1.18,7.46,7.46,7.47
21.44,9.31,1.85,9.31,1.85,-1.85,-1.92,-1.21,7.46,7.46,7.46
21.66,9.32,1.88,9.31,1.86,-1.86,-1.94,-1.25,7.46,7.46,7.44
21.87,9.32,1.88,9.32,1.88,-1.87,-1.95,-1.29,7.44,7.45,7.44
22.09,9.33,1.90,9.33,1.90,-1.90,-1.97,-1.32,7.43,7.43,7.43
22.31,9.35,1.93,9.35,1.93,-1.93,-1.98,-1.36,7.42,7.42,7.42
22.54,9.37,1.96,9.37,1.96,-1.96,-2.00,-1.40,7.40,7.40,7.41
22.76,9.40,2.00,9.40,1.99,-2.00,-2.01,-1.44,7.40,7.39,7.40
22.99,9.42,2.02,9.42,2.03,-2.04,-2.03,-1.49,7.38,7.38,7.40
23.22,9.46,2.07,9.46,2.06,-2.08,-2.04,-1.53,7.38,7.38,7.39
23.45,9.49,2.10,9.50,2.11,-2.10,-2.05,-1.57,7.39,7.39,7.39
23.69,9.53,2.14,9.53,2.15,-2.12,-2.07,-1.62,7.41,7.41,7.39
23.92,9.57,2.18,9.55,2.16,-2.13,-2.08,-1.66,7.44,7.42,7.39
24.16,9.55,2.16,9.55,2.16,-2.13,-2.09,-1.71,7.42,7.42,7.39
24.40,9.51,2.12,9.52,2.13,-2.12,-2.10,-1.76,7.39,7.40,7.39
24.65,9.48,2.09,9.47,2.09,-2.10,-2.11,-1.80,7.38,7.37,7.38
24.89,9.44,2.05,9.44,2.06,-2.09,-2.12,-1.85,7.35,7.36,7.38
25.14,9.42,2.04,9.42,2.04,-2.07,-2.13,-1.90,7.35,7.36,7.38
25.39,9.42,2.04,9.42,2.04,-2.05,-2.13,-1.95,7.37,7.36,7.38
25.65,9.42,2.05,9.42,2.04,-2.04,-2.14,-2.00,7.37,7.37,7.37
25.91,9.42,2.05,9.42,2.05,-2.04,-2.15,-2.05,7.38,7.38,7.37
26.16,9.42,2.06,9.42,2.06,-2.05,-2.15,-2.09,7.37,7.37,7.36
26.43,9.42,2.06,9.42,2.06,-2.06,-2.16,-2.14,7.36,7.36,7.36
26.69,9.42,2.07,9.42,2.07,-2.07,-2.16,-2.19,7.35,7.35,7.35
26.96,9.42,2.08,9.42,2.08,-2.08,-2.17,-2.23,7.34,7.34,7.34
27.23,9.42,2.08,9.42,2.09,-2.09,-2.17,-2.28,7.33,7.33,7.34
27.50,9.42,2.09,9.42,2.10,-2.10,-2.17,-2.32,7.32,7.32,7.32
27.77,9.42,2.10,9.42,2.10,-2.10,-2.18,-2.37,7.31,7.31,7.31
28.05,9.42,2.12,9.42,2.11,-2.11,-2.18,-2.41,7.31,7.31,7.30
28.33,9.42,2.12,9.42,2.12,-2.12,-2.18,-2.45,7.30,7.30,7.30
28.62,9.42,2.12,9.42,2.12,-2.12,-2.18,-2.48,7.30,7.30,7.30
28.90,9.42,2.13,9.42,2.12,-2.13,-2.18,-2.52,7.29,7.29,7.29
29.19,9.42,2.12,9.42,2.12,-2.13,-2.18,-2.55,7.29,7.29,7.30
29.48,9.42,2.12,9.42,2.13,-2.13,-2.18,-2.58,7.29,7.29,7.30
29.78,9.42,2.12,9.42,2.12,-2.12,-2.17,-2.60,7.30,7.30,7.29
30.08,9.42,2.13,9.41,2.12,-2.12,-2.17,-2.62,7.30,7.30,7.29
30.38,9.40,2.11,9.40,2.11,-2.11,-2.17,-2.64,7.29,7.30,7.29
30.68,9.39,2.10,9.39,2.10,-2.10,-2.17,-2.66,7.29,7.30,7.29
30.99,9.38,2.09,9.37,2.09,-2.08,-2.16,-2.67,7.29,7.29,7.29
31.30,9.36,2.07,9.36,2.07,-2.07,-2.16,-2.67,7.29,7.28,7.29
31.61,9.34,2.06,9.34,2.06,-2.06,-2.15,-2.68,7.27,7.27,7.28
31.93,9.32,2.04,9.32,2.05,-2.06,-2.15,-2.68,7.26,7.27,7.28
32.24,9.32,2.05,9.32,2.04,-2.05,-2.14,-2.67,7.27,7.27,7.27
32.57,9.32,2.05,9.32,2.05,-2.05,-2.13,-2.67,7.27,7.27,7.27
32.89,9.32,2.05,9.32,2.05,-2.05,-2.13,-2.66,7.27,7.27,7.26
33.22,9.32,2.06,9.32,2.06,-2.05,-2.12,-2.64,7.26,7.26,7.26
33.55,9.32,2.06,9.32,2.06,-2.06,-2.11,-2.63,7.26,7.26,7.26
33.89,9.32,2.07,9.32,2.07,-2.06,-2.10,-2.61,7.25,7.25,7.25
34.23,9.32,2.07,9.32,2.07,-2.07,-2.10,-2.59,7.25,7.25,7.24
34.57,9.32,2.08,9.32,2.08,-2.08,-2.09,-2.56,7.24,7.24,7.24
34.92,9.32,2.08,9.32,2.08,-2.08,-2.08,-2.54,7.23,7.23,7.24
35.27,9.32,2.08,9.32,2.08,-2.09,-2.07,-2.51,7.23,7.23,7.24
35.62,9.32,2.09,9.32,2.09,-2.10,-2.06,-2.48,7.22,7.22,7.23
35.97,9.32,2.10,9.32,2.10,-2.10,-2.05,-2.45,7.22,7.22,7.22
36.33,9.33,2.11,9.33,2.11,-2.10,-2.05,-2.42,7.23,7.23,7.22
36.70,9.33,2.12,9.33,2.12,-2.09,-2.04,-2.39,7.23,7.24,7.21
37.06,9.33,2.12,9.32,2.11,-2.09,-2.03,-2.35,7.24,7.23,7.21
37.43,9.29,2.09,9.28,2.09,-2.09,-2.02,-2.32,7.20,7.20,7.20
37.81,9.24,2.05,9.25,2.06,-2.08,-2.01,-2.29,7.16,7.17,7.19
38.19,9.22,2.04,9.22,2.05,-2.08,-2.00,-2.25,7.14,7.14,7.18
38.57,9.22,2.06,9.21,2.05,-2.08,-1.99,-2.22,7.14,7.14,7.16
38.95,9.22,2.07,9.22,2.07,-2.07,-1.98,-2.19,7.15,7.15,7.15
39.34,9.22,2.08,9.22,2.08,-2.06,-1.97,-2.16,7.16,7.16,7.14
39.74,9.22,2.09,9.21,2.09,-2.05,-1.96,-2.13,7.17,7.16,7.13
40.14,9.20,2.08,9.19,2.07,-2.04,-1.95,-2.10,7.16,7.15,7.11
40.54,9.14,2.04,9.14,2.04,-2.02,-1.94,-2.07,7.12,7.12,7.10
40.94,9.08,1.99,9.09,2.00,-2.01,-1.94,-2.04,7.07,7.08,7.09
41.35,9.05,1.96,9.05,1.96,-1.99,-1.93,-2.01,7.06,7.06,7.09
41.76,9.03,1.95,9.03,1.95,-1.98,-1.92,-1.99,7.05,7.05,7.08
42.18,9.02,1.94,9.02,1.94,-1.97,-1.91,-1.96,7.05,7.05,7.08
42.60,9.02,1.95,9.02,1.95,-1.96,-1.90,-1.94,7.06,7.06,7.07
43.03,9.02,1.96,9.03,1.96,-1.95,-1.89,-1.92,7.07,7.08,7.06
43.46,9.03,1.97,9.04,1.98,-1.94,-1.89,-1.90,7.08,7.09,7.06
43.90,9.05,1.99,9.03,1.97,-1.94,-1.88,-1.88,7.11,7.09,7.06
44.33,9.01,1.96,9.00,1.95,-1.94,-1.87,-1.86,7.07,7.06,7.05
44.78,8.95,1.91,8.96,1.92,-1.93,-1.86,-1.85,7.02,7.03,7.04
45.23,8.92,1.88,8.93,1.89,-1.92,-1.86,-1.83,7.00,7.01,7.04
45.68,8.92,1.89,8.91,1.89,-1.91,-1.85,-1.82,7.00,7.00,7.03
46.13,8.92,1.90,8.92,1.90,-1.91,-1.85,-1.81,7.01,7.01,7.02
46.60,8.92,1.91,8.92,1.91,-1.90,-1.84,-1.80,7.02,7.02,7.01
47.06,8.92,1.92,8.91,1.91,-1.90,-1.84,-1.79,7.02,7.02,7.00
47.53,8.89,1.90,8.89,1.90,-1.89,-1.83,-1.78,7.00,7.01,6.99
48.01,8.87,1.90,8.87,1.90,-1.88,-1.83,-1.77,6.99,6.99,6.97
48.49,8.84,1.88,8.84,1.88,-1.87,-1.82,-1.77,6.97,6.97,6.96
48.97,8.81,1.87,8.80,1.85,-1.85,-1.82,-1.76,6.95,6.94,6.94
49.46,8.76,1.83,8.75,1.82,-1.84,-1.81,-1.76,6.92,6.91,6.93
49.96,8.70,1.78,8.72,1.80,-1.83,-1.81,-1.76,6.87,6.89,6.92
50.46,8.71,1.80,8.71,1.80,-1.82,-1.81,-1.76,6.89,6.88,6.91
50.96,8.72,1.81,8.72,1.82,-1.81,-1.81,-1.76,6.90,6.90,6.90
51.47,8.73,1.84,8.73,1.84,-1.81,-1.80,-1.76,6.92,6.92,6.89
51.99,8.74,1.86,8.71,1.84,-1.81,-1.80,-1.76,6.93,6.90,6.88
52.51,8.68,1.82,8.68,1.82,-1.82,-1.80,-1.77,6.86,6.86,6.86
53.03,8.62,1.78,8.64,1.80,-1.82,-1.80,-1.77,6.80,6.82,6.84
53.56,8.62,1.79,8.62,1.79,-1.82,-1.80,-1.78,6.80,6.80,6.83
54.10,8.62,1.81,8.62,1.81,-1.81,-1.80,-1.78,6.81,6.81,6.81
54.64,8.62,1.82,8.62,1.82,-1.80,-1.80,-1.79,6.82,6.82,6.80
55.18,8.61,1.83,8.60,1.82,-1.78,-1.80,-1.79,6.83,6.82,6.78
55.74,8.56,1.80,8.55,1.79,-1.77,-1.80,-1.80,6.79,6.79,6.76
56.29,8.50,1.75,8.50,1.75,-1.76,-1.81,-1.81,6.74,6.74,6.75
56.86,8.44,1.71,8.45,1.72,-1.76,-1.81,-1.82,6.68,6.69,6.73
57.42,8.42,1.71,8.42,1.71,-1.75,-1.81,-1.82,6.66,6.67,6.71
58.00,8.42,1.73,8.41,1.72,-1.75,-1.82,-1.83,6.67,6.66,6.69
58.58,8.42,1.75,8.42,1.75,-1.75,-1.82,-1.84,6.67,6.67,6.67
59.16,8.42,1.77,8.42,1.77,-1.75,-1.82,-1.84,6.67,6.67,6.65
59.76,8.42,1.79,8.42,1.79,-1.74,-1.83,-1.85,6.68,6.68,6.63
60.35,8.40,1.79,8.40,1.78,-1.74,-1.83,-1.86,6.66,6.66,6.61
60.96,8.37,1.77,8.35,1.75,-1.74,-1.84,-1.86,6.63,6.61,6.60
61.57,8.28,1.71,8.29,1.72,-1.74,-1.85,-1.87,6.54,6.55,6.57
62.18,8.22,1.67,8.24,1.69,-1.74,-1.85,-1.87,6.48,6.50,6.55
62.80,8.22,1.70,8.21,1.69,-1.74,-1.86,-1.88,6.48,6.47,6.52
63.43,8.22,1.73,8.21,1.72,-1.75,-1.87,-1.89,6.47,6.46,6.49
64.07,8.22,1.76,8.22,1.76,-1.76,-1.88,-1.89,6.46,6.46,6.45
64.71,8.22,1.79,8.22,1.80,-1.77,-1.88,-1.89,6.45,6.45,6.43
65.35,8.22,1.83,8.22,1.83,-1.78,-1.89,-1.90,6.44,6.44,6.39
66.01,8.21,1.85,8.20,1.83,-1.79,-1.90,-1.90,6.42,6.40,6.36
66.67,8.15,1.82,8.14,1.82,-1.80,-1.91,-1.91,6.35,6.34,6.32
67.33,8.08,1.78,8.08,1.79,-1.81,-1.92,-1.91,6.27,6.27,6.29
68.01,8.01,1.75,8.03,1.77,-1.82,-1.93,-1.91,6.19,6.21,6.25
68.69,8.01,1.79,8.00,1.78,-1.83,-1.94,-1.92,6.18,6.17,6.22
69.37,8.01,1.83,8.00,1.82,-1.84,-1.96,-1.92,6.17,6.16,6.18
70.07,8.01,1.86,8.02,1.87,-1.85,-1.97,-1.92,6.16,6.17,6.15
70.77,8.02,1.92,8.02,1.91,-1.86,-1.98,-1.93,6.16,6.16,6.10
71.48,8.00,1.93,7.98,1.92,-1.87,-1.99,-1.93,6.13,6.11,6.07
72.19,7.95,1.93,7.92,1.90,-1.89,-2.01,-1.94,6.06,6.04,6.02
72.91,7.82,1.83,7.86,1.87,-1.90,-2.02,-1.94,5.91,5.95,5.99
73.64,7.81,1.86,7.81,1.86,-1.92,-2.04,-1.95,5.89,5.89,5.95
74.38,7.81,1.90,7.80,1.89,-1.93,-2.05,-1.96,5.88,5.87,5.91
75.12,7.81,1.94,7.81,1.94,-1.93,-2.07,-1.97,5.87,5.88,5.87
75.87,7.81,1.99,7.81,1.98,-1.94,-2.08,-1.98,5.86,5.86,5.82
76.63,7.79,2.01,7.79,2.00,-1.96,-2.10,-1.99,5.83,5.83,5.78
77.40,7.75,2.01,7.74,2.00,-1.98,-2.12,-2.00,5.77,5.76,5.74
78.17,7.69,1.99,7.68,1.98,-2.00,-2.13,-2.01,5.69,5.69,5.70
78.95,7.61,1.95,7.64,1.98,-2.01,-2.15,-2.03,5.60,5.62,5.65
79.74,7.61,2.00,7.61,2.00,-2.02,-2.17,-2.04,5.58,5.59,5.61
80.54,7.61,2.04,7.60,2.04,-2.04,-2.19,-2.06,5.57,5.56,5.57
81.35,7.60,2.08,7.58,2.06,-2.06,-2.21,-2.08,5.54,5.52,5.52
82.16,7.56,2.09,7.55,2.08,-2.08,-2.23,-2.10,5.48,5.47,5.47
82.98,7.49,2.07,7.53,2.11,-2.10,-2.25,-2.12,5.39,5.42,5.42
83.81,7.52,2.15,7.51,2.14,-2.12,-2.27,-2.14,5.40,5.39,5.37
84.65,7.51,2.19,7.49,2.17,-2.14,-2.29,-2.17,5.37,5.35,5.32
85.50,7.46,2.20,7.44,2.18,-2.16,-2.31,-2.20,5.30,5.28,5.26
86.35,7.37,2.16,7.37,2.17,-2.18,-2.33,-2.22,5.18,5.19,5.21
87.22,7.29,2.14,7.32,2.17,-2.21,-2.35,-2.25,5.07,5.10,5.15
88.09,7.30,2.20,7.29,2.20,-2.25,-2.37,-2.29,5.05,5.04,5.10
88.97,7.31,2.27,7.30,2.26,-2.28,-2.39,-2.32,5.03,5.02,5.03
89.86,7.31,2.34,7.32,2.34,-2.31,-2.42,-2.35,4.99,5.00,4.97
90.76,7.32,2.40,7.31,2.40,-2.35,-2.44,-2.39,4.97,4.96,4.92
91.66,7.30,2.44,7.29,2.43,-2.39,-2.46,-2.43,4.90,4.89,4.85
92.58,7.25,2.46,7.24,2.45,-2.44,-2.49,-2.47,4.81,4.80,4.79
93.51,7.17,2.44,7.18,2.46,-2.48,-2.51,-2.51,4.69,4.70,4.73
94.44,7.13,2.47,7.14,2.48,-2.52,-2.53,-2.56,4.61,4.62,4.66
95.39,7.12,2.52,7.12,2.52,-2.55,-2.56,-2.60,4.57,4.57,4.59
96.34,7.11,2.58,7.12,2.59,-2.58,-2.58,-2.65,4.53,4.54,4.53
97.30,7.11,2.66,7.09,2.63,-2.61,-2.61,-2.70,4.50,4.48,4.45
98.28,7.06,2.67,7.05,2.67,-2.64,-2.63,-2.75,4.42,4.41,4.38
99.26,6.96,2.65,6.99,2.68,-2.68,-2.66,-2.80,4.28,4.31,4.31
100.25,6.95,2.72,6.93,2.69,-2.71,-2.69,-2.85,4.24,4.22,4.23
101.25,6.87,2.72,6.88,2.72,-2.74,-2.71,-2.90,4.13,4.14,4.15
102.27,6.83,2.75,6.85,2.77,-2.76,-2.74,-2.95,4.06,4.08,4.08
103.29,6.81,2.81,6.79,2.79,-2.79,-2.76,-3.01,4.01,3.99,4.00
104.32,6.75,2.83,6.73,2.81,-2.83,-2.79,-3.06,3.92,3.90,3.92
105.37,6.64,2.81,6.68,2.84,-2.85,-2.82,-3.11,3.79,3.82,3.83
106.42,6.63,2.87,6.64,2.88,-2.88,-2.84,-3.17,3.75,3.76,3.75
107.48,6.63,2.95,6.61,2.93,-2.91,-2.87,-3.22,3.72,3.70,3.68
108.56,6.58,2.98,6.56,2.97,-2.94,-2.90,-3.27,3.64,3.63,3.60
109.64,6.49,2.97,6.49,2.97,-2.96,-2.93,-3.32,3.53,3.53,3.52
110.74,6.40,2.95,6.41,2.96,-2.98,-2.95,-3.37,3.41,3.43,3.45
111.85,6.35,2.97,6.36,2.98,-3.01,-2.98,-3.42,3.34,3.35,3.38
112.97,6.34,3.03,6.34,3.03,-3.03,-3.01,-3.47,3.30,3.31,3.31
114.10,6.33,3.09,6.32,3.08,-3.07,-3.03,-3.51,3.26,3.25,3.24
115.24,6.31,3.13,6.28,3.10,-3.10,-3.06,-3.55,3.20,3.17,3.18
116.39,6.22,3.11,6.23,3.11,-3.14,-3.09,-3.59,3.08,3.09,3.11
117.55,6.17,3.11,6.21,3.16,-3.18,-3.12,-3.63,2.99,3.03,3.05
118.73,6.21,3.22,6.22,3.23,-3.21,-3.14,-3.66,2.99,3.01,2.99
119.92,6.28,3.34,6.22,3.29,-3.25,-3.17,-3.69,3.03,2.97,2.94
121.12,6.21,3.34,6.19,3.31,-3.28,-3.20,-3.72,2.93,2.91,2.87
122.33,6.09,3.27,6.13,3.30,-3.31,-3.23,-3.74,2.78,2.82,2.82
123.55,6.05,3.27,6.07,3.30,-3.34,-3.25,-3.75,2.71,2.73,2.77
124.79,6.07,3.35,6.06,3.34,-3.37,-3.28,-3.77,2.70,2.70,2.72
126.03,6.08,3.42,6.08,3.41,-3.40,-3.31,-3.78,2.68,2.68,2.66
127.29,6.09,3.47,6.05,3.44,-3.43,-3.33,-3.78,2.66,2.62,2.62
128.57,6.02,3.45,6.01,3.44,-3.46,-3.36,-3.78,2.56,2.55,2.57
129.85,5.93,3.41,5.99,3.47,-3.49,-3.38,-3.78,2.44,2.50,2.52
131.15,5.99,3.52,5.99,3.52,-3.51,-3.41,-3.78,2.48,2.48,2.47
132.46,6.05,3.63,6.00,3.58,-3.53,-3.44,-3.77,2.52,2.47,2.42
133.79,5.98,3.61,5.97,3.60,-3.55,-3.46,-3.75,2.42,2.42,2.36
135.12,5.90,3.58,5.89,3.57,-3.58,-3.48,-3.74,2.32,2.31,2.32
136.48,5.78,3.51,5.81,3.54,-3.61,-3.51,-3.72,2.17,2.20,2.27
137.84,5.77,3.55,5.78,3.56,-3.63,-3.53,-3.70,2.14,2.14,2.22
139.22,5.80,3.63,5.80,3.63,-3.65,-3.56,-3.68,2.15,2.15,2.17
140.61,5.83,3.71,5.84,3.72,-3.67,-3.58,-3.65,2.16,2.17,2.12
142.02,5.88,3.81,5.82,3.75,-3.69,-3.60,-3.63,2.19,2.13,2.07
143.44,5.77,3.75,5.76,3.74,-3.70,-3.62,-3.60,2.07,2.06,2.01
144.87,5.63,3.66,5.68,3.71,-3.72,-3.65,-3.57,1.91,1.96,1.97
146.32,5.62,3.70,5.63,3.71,-3.73,-3.67,-3.54,1.88,1.89,1.92
147.78,5.62,3.75,5.60,3.73,-3.75,-3.69,-3.52,1.87,1.85,1.86
149.26,5.61,3.79,5.57,3.76,-3.77,-3.71,-3.49,1.83,1.80,1.82
150.75,5.51,3.74,5.52,3.76,-3.80,-3.73,-3.46,1.71,1.73,1.77
152.26,5.47,3.75,5.50,3.77,-3.82,-3.74,-3.43,1.65,1.68,1.72
153.78,5.51,3.82,5.53,3.85,-3.84,-3.76,-3.41,1.67,1.68,1.69
155.32,5.58,3.94,5.57,3.93,-3.86,-3.78,-3.38,1.72,1.71,1.64
156.88,5.63,4.03,5.57,3.97,-3.87,-3.80,-3.36,1.76,1.70,1.60
158.44,5.49,3.92,5.49,3.93,-3.89,-3.81,-3.34,1.60,1.60,1.56
160.03,5.37,3.85,5.38,3.86,-3.90,-3.83,-3.32,1.47,1.48,1.52
161.63,5.25,3.77,5.29,3.81,-3.91,-3.84,-3.30,1.34,1.39,1.48
163.24,5.28,3.84,5.28,3.84,-3.91,-3.85,-3.28,1.37,1.37,1.44
164.88,5.32,3.92,5.30,3.90,-3.90,-3.87,-3.27,1.42,1.40,1.40
166.53,5.31,3.95,5.32,3.96,-3.89,-3.88,-3.26,1.42,1.43,1.36
168.19,5.30,3.98,5.27,3.95,-3.89,-3.89,-3.25,1.41,1.38,1.32
169.87,5.21,3.92,5.19,3.91,-3.90,-3.90,-3.24,1.31,1.30,1.28
171.57,5.08,3.83,5.13,3.88,-3.90,-3.91,-3.24,1.18,1.22,1.25
173.29,5.08,3.87,5.09,3.88,-3.90,-3.91,-3.23,1.18,1.19,1.21
175.02,5.08,3.90,5.05,3.87,-3.89,-3.92,-3.23,1.18,1.16,1.18
176.77,5.08,3.93,5.02,3.88,-3.88,-3.93,-3.24,1.20,1.14,1.15
178.54,4.91,3.79,5.00,3.88,-3.87,-3.93,-3.24,1.04,1.13,1.12
180.32,4.98,3.88,4.97,3.87,-3.87,-3.94,-3.25,1.11,1.09,1.09
182.13,5.01,3.94,4.94,3.87,-3.87,-3.94,-3.26,1.13,1.06,1.07
183.95,4.89,3.84,4.95,3.90,-3.88,-3.94,-3.27,1.01,1.07,1.05
185.79,4.91,3.89,4.91,3.88,-3.89,-3.94,-3.29,1.02,1.02,1.02
187.65,4.92,3.91,4.86,3.85,-3.89,-3.94,-3.30,1.03,0.97,1.01
189.52,4.81,3.82,4.86,3.87,-3.88,-3.94,-3.32,0.93,0.99,0.99
191.42,4.82,3.85,4.86,3.89,-3.86,-3.94,-3.34,0.96,1.00,0.97
193.33,4.91,3.96,4.85,3.90,-3.85,-3.94,-3.37,1.06,1.00,0.95
195.27,4.84,3.90,4.83,3.89,-3.85,-3.94,-3.39,0.99,0.98,0.94
197.22,4.75,3.82,4.74,3.82,-3.85,-3.93,-3.42,0.90,0.89,0.93
199.19,4.64,3.73,4.66,3.75,-3.85,-3.93,-3.45,0.79,0.81,0.91
201.18,4.60,3.71,4.66,3.77,-3.83,-3.92,-3.48,0.77,0.83,0.89
203.19,4.72,3.84,4.71,3.83,-3.80,-3.91,-3.51,0.92,0.91,0.88
205.23,4.82,3.96,4.75,3.89,-3.78,-3.90,-3.55,1.04,0.97,0.86
207.28,4.72,3.87,4.70,3.86,-3.77,-3.89,-3.58,0.95,0.94,0.85
209.35,4.58,3.76,4.59,3.76,-3.77,-3.88,-3.62,0.81,0.82,0.82
211.44,4.43,3.62,4.48,3.67,-3.77,-3.87,-3.65,0.66,0.71,0.81
213.56,4.44,3.64,4.44,3.65,-3.76,-3.86,-3.68,0.68,0.68,0.80
215.69,4.49,3.72,4.47,3.69,-3.73,-3.84,-3.72,0.76,0.73,0.77
217.85,4.50,3.74,4.54,3.79,-3.70,-3.83,-3.75,0.80,0.85,0.76
220.03,4.58,3.84,4.54,3.80,-3.68,-3.81,-3.79,0.90,0.86,0.74
222.23,4.55,3.82,4.45,3.72,-3.67,-3.80,-3.82,0.88,0.78,0.73
224.45,4.28,3.56,4.35,3.64,-3.67,-3.78,-3.85,0.61,0.69,0.72
226.70,4.19,3.48,4.26,3.56,-3.65,-3.76,-3.87,0.54,0.61,0.71
228.96,4.30,3.60,4.24,3.55,-3.63,-3.74,-3.90,0.66,0.61,0.69
231.25,4.30,3.60,4.31,3.62,-3.61,-3.72,-3.92,0.69,0.70,0.69
233.57,4.34,3.65,4.34,3.65,-3.59,-3.70,-3.94,0.75,0.75,0.69
235.90,4.34,3.65,4.29,3.61,-3.58,-3.68,-3.95,0.76,0.71,0.69
238.26,4.23,3.55,4.24,3.56,-3.56,-3.66,-3.96,0.66,0.68,0.68
240.64,4.16,3.47,4.23,3.54,-3.54,-3.63,-3.97,0.62,0.69,0.69
243.05,4.23,3.54,4.24,3.55,-3.51,-3.61,-3.97,0.72,0.73,0.69
245.48,4.31,3.62,4.21,3.52,-3.47,-3.58,-3.97,0.83,0.73,0.69
247.93,4.16,3.46,4.14,3.45,-3.45,-3.56,-3.97,0.71,0.69,0.69
250.41,3.96,3.26,4.05,3.35,-3.43,-3.53,-3.95,0.53,0.63,0.70
252.92,4.00,3.30,3.99,3.29,-3.41,-3.50,-3.94,0.59,0.59,0.70
255.45,4.06,3.36,4.04,3.34,-3.38,-3.48,-3.92,0.67,0.66,0.70
258.00,4.10,3.40,4.12,3.42,-3.36,-3.45,-3.89,0.74,0.76,0.70
260.58,4.18,3.49,4.14,3.45,-3.33,-3.42,-3.86,0.84,0.81,0.69
263.19,4.10,3.41,4.08,3.40,-3.32,-3.39,-3.83,0.78,0.76,0.68
265.82,3.99,3.32,3.96,3.29,-3.31,-3.36,-3.79,0.67,0.64,0.67
268.48,3.80,3.14,3.87,3.21,-3.30,-3.33,-3.75,0.50,0.57,0.66
271.16,3.80,3.15,3.86,3.21,-3.28,-3.29,-3.70,0.52,0.58,0.65
273.87,3.95,3.32,3.87,3.23,-3.24,-3.26,-3.65,0.71,0.63,0.63
276.61,3.93,3.30,3.89,3.26,-3.20,-3.23,-3.60,0.73,0.69,0.63
279.38,3.80,3.18,3.85,3.23,-3.17,-3.20,-3.54,0.63,0.68,0.62
282.17,3.77,3.16,3.77,3.15,-3.16,-3.16,-3.49,0.61,0.60,0.61
284.99,3.73,3.13,3.72,3.12,-3.15,-3.13,-3.43,0.57,0.57,0.60
287.84,3.68,3.08,3.69,3.10,-3.14,-3.10,-3.37,0.54,0.55,0.60
290.72,3.69,3.10,3.65,3.07,-3.10,-3.06,-3.30,0.59,0.56,0.58
293.63,3.61,3.03,3.67,3.09,-3.06,-3.03,-3.24,0.55,0.61,0.58
296.57,3.66,3.08,3.67,3.09,-3.02,-2.99,-3.18,0.64,0.65,0.58
299.53,3.72,3.14,3.62,3.04,-3.00,-2.96,-3.11,0.72,0.62,0.58
302.53,3.54,2.96,3.54,2.97,-2.99,-2.92,-3.05,0.55,0.55,0.58
305.55,3.37,2.80,3.45,2.88,-2.97,-2.88,-2.99,0.40,0.49,0.57
308.61,3.42,2.86,3.42,2.86,-2.94,-2.85,-2.92,0.48,0.48,0.56
311.69,3.48,2.92,3.47,2.91,-2.91,-2.81,-2.86,0.56,0.55,0.56
314.81,3.55,3.00,3.50,2.95,-2.88,-2.77,-2.80,0.67,0.62,0.55
317.96,3.47,2.93,3.47,2.92,-2.85,-2.73,-2.73,0.62,0.61,0.54
321.14,3.37,2.83,3.39,2.85,-2.82,-2.70,-2.67,0.55,0.57,0.54
324.35,3.29,2.76,3.30,2.77,-2.79,-2.66,-2.61,0.50,0.51,0.53
327.59,3.24,2.72,3.24,2.72,-2.75,-2.62,-2.56,0.49,0.49,0.51
330.87,3.19,2.68,3.19,2.68,-2.70,-2.58,-2.50,0.48,0.49,0.51
334.18,3.17,2.66,3.16,2.65,-2.65,-2.55,-2.44,0.51,0.50,0.51
337.52,3.11,2.60,3.11,2.60,-2.61,-2.51,-2.39,0.50,0.50,0.51
340.90,3.07,2.57,3.06,2.56,-2.58,-2.47,-2.34,0.49,0.49,0.49
344.30,3.01,2.52,3.04,2.55,-2.54,-2.43,-2.29,0.46,0.49,0.49
347.75,3.02,2.53,3.01,2.53,-2.51,-2.39,-2.24,0.51,0.50,0.49
351.23,3.02,2.54,2.98,2.50,-2.47,-2.35,-2.19,0.55,0.50,0.48
354.74,2.91,2.43,2.93,2.46,-2.43,-2.31,-2.15,0.47,0.50,0.48
358.28,2.87,2.39,2.88,2.41,-2.40,-2.27,-2.11,0.47,0.48,0.47
361.87,2.83,2.36,2.82,2.34,-2.37,-2.24,-2.06,0.46,0.45,0.47
365.49,2.79,2.32,2.77,2.30,-2.33,-2.20,-2.02,0.45,0.44,0.47
369.14,2.71,2.24,2.75,2.28,-2.29,-2.16,-1.99,0.42,0.45,0.47
372.83,2.72,2.25,2.73,2.26,-2.25,-2.12,-1.95,0.46,0.48,0.47
376.56,2.76,2.29,2.71,2.24,-2.22,-2.08,-1.91,0.54,0.49,0.47
380.33,2.67,2.21,2.68,2.22,-2.19,-2.04,-1.88,0.48,0.49,0.46
384.13,2.60,2.14,2.61,2.16,-2.15,-2.00,-1.85,0.45,0.46,0.45
387.97,2.54,2.10,2.53,2.09,-2.11,-1.96,-1.82,0.42,0.41,0.44
391.85,2.47,2.04,2.48,2.05,-2.07,-1.92,-1.79,0.40,0.41,0.43
395.77,2.44,2.02,2.46,2.04,-2.03,-1.89,-1.76,0.41,0.43,0.42
399.73,2.45,2.04,2.42,2.01,-1.99,-1.85,-1.73,0.46,0.43,0.41
403.72,2.39,1.99,2.35,1.95,-1.95,-1.81,-1.71,0.43,0.39,0.40
407.76,2.24,1.86,2.28,1.90,-1.92,-1.77,-1.68,0.32,0.36,0.38
411.84,2.19,1.82,2.23,1.86,-1.89,-1.73,-1.66,0.30,0.34,0.37
415.96,2.23,1.87,2.20,1.85,-1.85,-1.69,-1.64,0.38,0.35,0.35
420.12,2.22,1.87,2.19,1.84,-1.81,-1.65,-1.61,0.41,0.38,0.34
424.32,2.14,1.80,2.14,1.80,-1.77,-1.61,-1.59,0.37,0.38,0.34
428.56,2.06,1.72,2.08,1.74,-1.73,-1.58,-1.57,0.33,0.35,0.34
432.85,2.03,1.68,2.03,1.68,-1.69,-1.54,-1.55,0.34,0.34,0.35
437.18,2.01,1.64,1.99,1.63,-1.65,-1.50,-1.53,0.36,0.35,0.37
441.55,1.98,1.59,1.98,1.59,-1.61,-1.46,-1.51,0.37,0.37,0.39
445.96,1.96,1.54,1.98,1.56,-1.57,-1.42,-1.49,0.39,0.41,0.42
450.42,2.00,1.54,1.99,1.54,-1.53,-1.38,-1.47,0.47,0.46,0.46
454.93,2.02,1.52,2.01,1.51,-1.50,-1.35,-1.45,0.52,0.51,0.50
459.48,2.03,1.48,2.02,1.47,-1.47,-1.31,-1.43,0.55,0.54,0.55
464.07,2.01,1.42,2.03,1.44,-1.45,-1.27,-1.40,0.56,0.58,0.59
468.71,2.04,1.40,2.05,1.41,-1.42,-1.23,-1.38,0.62,0.63,0.64
473.40,2.10,1.41,2.08,1.39,-1.38,-1.19,-1.36,0.72,0.69,0.68
478.13,2.09,1.35,2.10,1.36,-1.35,-1.16,-1.33,0.74,0.75,0.73
482.91,2.11,1.33,2.10,1.32,-1.31,-1.12,-1.31,0.80,0.79,0.77
487.74,2.07,1.26,2.08,1.27,-1.27,-1.08,-1.28,0.80,0.81,0.81
492.62,2.07,1.23,2.06,1.22,-1.23,-1.04,-1.25,0.84,0.83,0.84
497.55,2.03,1.17,2.04,1.17,-1.19,-1.00,-1.22,0.84,0.85,0.86
502.52,2.02,1.14,2.03,1.15,-1.15,-0.97,-1.19,0.87,0.88,0.88
507.55,2.01,1.12,2.00,1.11,-1.11,-0.93,-1.16,0.90,0.89,0.89
512.62,1.97,1.09,1.96,1.08,-1.07,-0.89,-1.12,0.90,0.90,0.88
517.75,1.90,1.02,1.91,1.03,-1.03,-0.85,-1.09,0.87,0.88,0.88
522.93,1.85,0.99,1.85,0.98,-0.99,-0.82,-1.05,0.86,0.86,0.86
528.16,1.77,0.93,1.79,0.95,-0.94,-0.78,-1.02,0.82,0.85,0.84
533.44,1.74,0.93,1.72,0.91,-0.90,-0.74,-0.98,0.84,0.81,0.81
538.77,1.65,0.88,1.62,0.85,-0.85,-0.70,-0.94,0.79,0.77,0.77
544.16,1.49,0.76,1.53,0.80,-0.80,-0.67,-0.90,0.68,0.73,0.73
