frequency,raw,error,smoothed,error_smoothed,equalization,parametric_eq,fixed_band_eq,equalized_raw,equalized_smoothed,target
20.00,-5.17,-9.38,-5.16,-9.38,6.00,6.52,2.53,0.83,0.84,4.21
20.20,-5.09,-9.29,-5.09,-9.30,6.00,6.50,2.61,0.91,0.91,4.20
20.40,-5.03,-9.23,-5.02,-9.23,6.00,6.48,2.68,0.97,0.98,4.20
20.61,-4.96,-9.15,-4.96,-9.15,6.00,6.46,2.76,1.04,1.04,4.19
20.81,-4.89,-9.08,-4.89,-9.09,6.00,6.43,2.84,1.11,1.11,4.19
21.02,-4.84,-9.03,-4.83,-9.02,6.00,6.41,2.92,1.16,1.17,4.19
21.23,-4.77,-8.94,-4.77,-8.94,6.00,6.39,3.00,1.23,1.23,4.17
21.44,-4.72,-8.87,-4.72,-8.87,6.00,6.36,3.09,1.28,1.28,4.15
21.66,-4.66,-8.79,-4.66,-8.79,6.00,6.34,3.18,1.34,1.34,4.13
21.87,-4.61,-8.71,-4.60,-8.71,6.00,6.31,3.28,1.39,1.40,4.10
22.09,-4.54,-8.62,-4.54,-8.62,6.00,6.29,3.37,1.46,1.46,4.08
22.31,-4.48,-8.54,-4.48,-8.53,6.00,6.26,3.47,1.52,1.52,4.06
22.54,-4.42,-8.45,-4.41,-8.44,6.00,6.23,3.57,1.58,1.59,4.03
22.76,-4.34,-8.34,-4.34,-8.34,6.00,6.20,3.67,1.66,1.66,4.00
22.99,-4.28,-8.25,-4.27,-8.24,6.00,6.18,3.77,1.72,1.73,3.97
23.22,-4.21,-8.15,-4.21,-8.15,6.00,6.15,3.88,1.79,1.79,3.94
23.45,-4.14,-8.05,-4.14,-8.05,6.00,6.12,3.99,1.86,1.86,3.92
23.69,-4.07,-7.97,-4.06,-7.96,6.00,6.09,4.10,1.93,1.94,3.90
23.92,-3.99,-7.86,-3.99,-7.87,6.00,6.06,4.22,2.01,2.01,3.88
24.16,-3.92,-7.78,-3.92,-7.78,6.00,6.03,4.34,2.08,2.08,3.87
24.40,-3.86,-7.70,-3.85,-7.70,6.00,6.00,4.45,2.14,2.15,3.85
24.65,-3.79,-7.61,-3.79,-7.61,6.00,5.97,4.57,2.21,2.21,3.83
24.89,-3.71,-7.52,-3.72,-7.52,6.00,5.94,4.69,2.29,2.28,3.81
25.14,-3.65,-7.43,-3.65,-7.43,6.00,5.91,4.82,2.35,2.35,3.78
25.39,-3.58,-7.34,-3.58,-7.34,6.00,5.87,4.94,2.42,2.42,3.76
25.65,-3.52,-7.27,-3.51,-7.26,6.00,5.84,5.07,2.48,2.49,3.75
25.91,-3.45,-7.17,-3.45,-7.18,6.00,5.81,5.19,2.55,2.55,3.72
26.16,-3.39,-7.10,-3.38,-7.10,6.00,5.77,5.31,2.61,2.62,3.71
26.43,-3.32,-7.01,-3.32,-7.01,6.00,5.74,5.44,2.68,2.68,3.69
26.69,-3.26,-6.94,-3.25,-6.93,6.00,5.70,5.56,2.74,2.75,3.68
26.96,-3.19,-6.85,-3.18,-6.85,6.00,5.67,5.68,2.81,2.82,3.66
27.23,-3.11,-6.76,-3.11,-6.76,6.00,5.63,5.80,2.89,2.89,3.65
27.50,-3.05,-6.67,-3.04,-6.67,6.00,5.59,5.91,2.95,2.96,3.63
27.77,-2.97,-6.57,-2.97,-6.58,6.00,5.55,6.02,3.03,3.03,3.61
28.05,-2.90,-6.49,-2.90,-6.49,6.01,5.52,6.12,3.11,3.11,3.60
28.33,-2.83,-6.39,-2.82,-6.40,6.01,5.48,6.22,3.19,3.19,3.57
28.62,-2.76,-6.31,-2.76,-6.31,6.02,5.44,6.31,3.26,3.26,3.55
28.90,-2.69,-6.24,-2.69,-6.24,6.01,5.40,6.39,3.33,3.33,3.55
29.19,-2.63,-6.16,-2.62,-6.16,6.00,5.36,6.47,3.38,3.38,3.53
29.48,-2.56,-6.09,-2.55,-6.08,5.98,5.31,6.54,3.42,3.42,3.53
29.78,-2.49,-6.00,-2.49,-6.00,5.94,5.27,6.60,3.46,3.45,3.51
30.08,-2.42,-5.92,-2.42,-5.92,5.89,5.23,6.64,3.47,3.47,3.50
30.38,-2.36,-5.83,-2.35,-5.83,5.83,5.19,6.68,3.47,3.48,3.48
30.68,-2.28,-5.73,-2.28,-5.74,5.75,5.14,6.69,3.47,3.47,3.46
30.99,-2.21,-5.64,-2.21,-5.65,5.66,5.10,6.71,3.46,3.46,3.44
31.30,-2.14,-5.56,-2.13,-5.56,5.57,5.05,6.70,3.43,3.44,3.42
31.61,-2.06,-5.47,-2.06,-5.47,5.47,5.01,6.69,3.41,3.41,3.41
31.93,-1.99,-5.37,-1.99,-5.37,5.37,4.96,6.66,3.38,3.38,3.38
32.24,-1.92,-5.27,-1.92,-5.28,5.28,4.91,6.63,3.36,3.36,3.36
32.57,-1.85,-5.18,-1.85,-5.18,5.19,4.86,6.57,3.34,3.34,3.34
32.89,-1.78,-5.10,-1.77,-5.10,5.10,4.82,6.51,3.32,3.32,3.33
33.22,-1.71,-5.00,-1.71,-5.01,5.01,4.77,6.44,3.30,3.30,3.29
33.55,-1.64,-4.92,-1.64,-4.92,4.91,4.72,6.36,3.28,3.28,3.28
33.89,-1.58,-4.83,-1.57,-4.83,4.83,4.67,6.27,3.25,3.25,3.25
34.23,-1.51,-4.75,-1.50,-4.74,4.74,4.61,6.17,3.23,3.23,3.24
34.57,-1.44,-4.64,-1.44,-4.65,4.65,4.56,6.06,3.21,3.21,3.21
34.92,-1.37,-4.55,-1.37,-4.56,4.56,4.51,5.95,3.19,3.19,3.18
35.27,-1.31,-4.48,-1.30,-4.47,4.47,4.45,5.83,3.17,3.17,3.17
35.62,-1.24,-4.39,-1.24,-4.39,4.39,4.40,5.70,3.15,3.15,3.15
35.97,-1.18,-4.29,-1.18,-4.30,4.30,4.35,5.57,3.12,3.12,3.12
36.33,-1.12,-4.22,-1.11,-4.22,4.22,4.29,5.44,3.10,3.10,3.10
36.70,-1.06,-4.14,-1.05,-4.13,4.13,4.23,5.31,3.08,3.08,3.08
37.06,-1.00,-4.05,-1.00,-4.05,4.05,4.18,5.17,3.06,3.06,3.05
37.43,-0.94,-3.97,-0.94,-3.97,3.97,4.12,5.03,3.04,3.04,3.04
37.81,-0.89,-3.90,-0.88,-3.89,3.90,4.06,4.90,3.01,3.02,3.01
38.19,-0.82,-3.81,-0.82,-3.82,3.82,4.00,4.76,3.00,2.99,2.99
38.57,-0.78,-3.75,-0.77,-3.75,3.74,3.94,4.62,2.97,2.97,2.98
38.95,-0.72,-3.67,-0.72,-3.67,3.67,3.88,4.48,2.95,2.95,2.96
39.34,-0.67,-3.60,-0.67,-3.60,3.60,3.82,4.34,2.93,2.93,2.93
39.74,-0.62,-3.52,-0.62,-3.52,3.52,3.75,4.20,2.90,2.91,2.90
40.14,-0.57,-3.45,-0.57,-3.45,3.45,3.69,4.06,2.88,2.88,2.89
40.54,-0.52,-3.38,-0.51,-3.38,3.38,3.63,3.93,2.86,2.86,2.86
40.94,-0.46,-3.30,-0.46,-3.31,3.31,3.56,3.80,2.85,2.85,2.85
41.35,-0.42,-3.24,-0.41,-3.24,3.24,3.50,3.67,2.82,2.83,2.82
41.76,-0.36,-3.17,-0.36,-3.17,3.17,3.43,3.54,2.82,2.81,2.81
42.18,-0.31,-3.10,-0.31,-3.10,3.10,3.37,3.41,2.80,2.79,2.80
42.60,-0.27,-3.04,-0.26,-3.04,3.04,3.30,3.28,2.77,2.77,2.77
43.03,-0.22,-2.98,-0.21,-2.98,2.97,3.23,3.16,2.75,2.75,2.77
43.46,-0.17,-2.91,-0.16,-2.90,2.90,3.16,3.04,2.73,2.73,2.74
43.90,-0.11,-2.81,-0.11,-2.83,2.83,3.09,2.92,2.72,2.71,2.71
44.33,-0.07,-2.75,-0.07,-2.75,2.76,3.02,2.80,2.69,2.69,2.68
44.78,-0.03,-2.69,-0.02,-2.68,2.69,2.95,2.69,2.66,2.67,2.67
45.23,0.03,-2.61,0.03,-2.62,2.62,2.88,2.57,2.65,2.64,2.64
45.68,0.07,-2.55,0.08,-2.55,2.55,2.81,2.46,2.62,2.63,2.63
46.13,0.13,-2.47,0.13,-2.47,2.48,2.74,2.35,2.61,2.61,2.60
46.60,0.18,-2.41,0.18,-2.41,2.41,2.67,2.25,2.59,2.59,2.59
47.06,0.23,-2.34,0.23,-2.34,2.34,2.60,2.14,2.58,2.58,2.58
47.53,0.28,-2.28,0.28,-2.28,2.27,2.52,2.04,2.56,2.56,2.56
48.01,0.33,-2.21,0.33,-2.21,2.20,2.45,1.94,2.54,2.54,2.55
48.49,0.38,-2.14,0.38,-2.14,2.13,2.37,1.84,2.52,2.51,2.52
48.97,0.42,-2.07,0.43,-2.06,2.06,2.30,1.75,2.49,2.49,2.49
49.46,0.47,-1.99,0.47,-1.99,1.99,2.23,1.65,2.46,2.46,2.46
49.96,0.52,-1.91,0.52,-1.92,1.92,2.15,1.56,2.44,2.44,2.44
50.46,0.57,-1.85,0.57,-1.84,1.85,2.07,1.47,2.42,2.42,2.42
50.96,0.62,-1.78,0.62,-1.77,1.78,2.00,1.38,2.40,2.40,2.40
51.47,0.67,-1.70,0.67,-1.70,1.71,1.92,1.29,2.38,2.38,2.37
51.99,0.71,-1.64,0.72,-1.64,1.64,1.85,1.21,2.35,2.36,2.35
52.51,0.76,-1.58,0.76,-1.58,1.57,1.77,1.12,2.34,2.34,2.34
53.03,0.80,-1.52,0.81,-1.51,1.51,1.69,1.04,2.31,2.32,2.32
53.56,0.85,-1.44,0.85,-1.44,1.44,1.62,0.96,2.30,2.30,2.29
54.10,0.90,-1.37,0.90,-1.38,1.38,1.54,0.88,2.28,2.28,2.27
54.64,0.94,-1.31,0.94,-1.31,1.31,1.46,0.81,2.25,2.26,2.25
55.18,0.98,-1.25,0.99,-1.25,1.24,1.39,0.73,2.23,2.23,2.23
55.74,1.03,-1.18,1.03,-1.18,1.18,1.31,0.66,2.21,2.21,2.21
56.29,1.07,-1.12,1.08,-1.11,1.11,1.24,0.59,2.19,2.19,2.19
56.86,1.12,-1.05,1.12,-1.05,1.05,1.16,0.53,2.18,2.17,2.17
57.42,1.16,-0.98,1.16,-0.99,0.99,1.08,0.46,2.16,2.15,2.15
58.00,1.20,-0.93,1.21,-0.93,0.93,1.01,0.40,2.14,2.14,2.13
58.58,1.24,-0.88,1.25,-0.87,0.87,0.93,0.34,2.12,2.12,2.12
59.16,1.29,-0.81,1.29,-0.82,0.81,0.86,0.28,2.11,2.10,2.11
59.76,1.32,-0.76,1.33,-0.76,0.75,0.79,0.22,2.08,2.08,2.08
60.35,1.36,-0.70,1.36,-0.70,0.70,0.71,0.17,2.06,2.06,2.06
60.96,1.39,-0.65,1.40,-0.64,0.64,0.64,0.12,2.03,2.03,2.05
61.57,1.43,-0.58,1.43,-0.58,0.58,0.57,0.07,2.01,2.02,2.01
62.18,1.47,-0.51,1.47,-0.52,0.52,0.50,0.02,2.00,1.99,1.98
62.80,1.50,-0.46,1.50,-0.46,0.47,0.43,-0.02,1.97,1.97,1.97
63.43,1.53,-0.41,1.53,-0.41,0.41,0.36,-0.06,1.95,1.95,1.94
64.07,1.56,-0.36,1.56,-0.36,0.36,0.29,-0.10,1.92,1.93,1.93
64.71,1.59,-0.31,1.59,-0.31,0.31,0.22,-0.14,1.90,1.90,1.91
65.35,1.62,-0.27,1.62,-0.27,0.26,0.15,-0.17,1.88,1.88,1.89
66.01,1.65,-0.22,1.66,-0.21,0.21,0.09,-0.21,1.86,1.87,1.87
66.67,1.69,-0.16,1.69,-0.16,0.16,0.02,-0.24,1.86,1.85,1.85
67.33,1.72,-0.11,1.72,-0.11,0.11,-0.04,-0.27,1.84,1.83,1.83
68.01,1.74,-0.07,1.75,-0.06,0.06,-0.10,-0.30,1.81,1.81,1.81
68.69,1.78,-0.01,1.78,-0.01,0.01,-0.16,-0.33,1.80,1.79,1.79
69.37,1.80,0.03,1.81,0.03,-0.03,-0.22,-0.35,1.77,1.77,1.77
70.07,1.83,0.09,1.84,0.08,-0.08,-0.28,-0.38,1.75,1.75,1.75
70.77,1.86,0.13,1.86,0.13,-0.13,-0.34,-0.40,1.73,1.73,1.74
71.48,1.89,0.18,1.89,0.18,-0.18,-0.39,-0.42,1.71,1.71,1.71
72.19,1.91,0.22,1.92,0.23,-0.23,-0.45,-0.44,1.68,1.69,1.69
72.91,1.94,0.29,1.94,0.28,-0.28,-0.50,-0.46,1.67,1.66,1.66
73.64,1.96,0.33,1.96,0.33,-0.33,-0.55,-0.48,1.64,1.64,1.63
74.38,1.98,0.37,1.99,0.38,-0.37,-0.60,-0.50,1.61,1.61,1.62
75.12,2.01,0.42,2.01,0.42,-0.42,-0.65,-0.52,1.59,1.59,1.59
75.87,2.03,0.47,2.03,0.46,-0.47,-0.70,-0.54,1.57,1.57,1.56
76.63,2.05,0.51,2.05,0.51,-0.51,-0.75,-0.56,1.54,1.54,1.55
77.40,2.07,0.55,2.07,0.56,-0.56,-0.79,-0.58,1.52,1.52,1.52
78.17,2.09,0.61,2.09,0.60,-0.60,-0.84,-0.60,1.49,1.49,1.48
78.95,2.11,0.65,2.11,0.65,-0.65,-0.88,-0.62,1.47,1.46,1.46
79.74,2.13,0.69,2.13,0.69,-0.69,-0.92,-0.64,1.44,1.44,1.44
80.54,2.14,0.73,2.15,0.74,-0.74,-0.96,-0.66,1.40,1.41,1.41
81.35,2.17,0.79,2.17,0.78,-0.79,-1.00,-0.68,1.39,1.38,1.38
82.16,2.19,0.84,2.19,0.83,-0.83,-1.04,-0.70,1.36,1.36,1.35
82.98,2.20,0.87,2.21,0.88,-0.88,-1.07,-0.72,1.32,1.33,1.33
83.81,2.22,0.93,2.22,0.93,-0.93,-1.11,-0.75,1.30,1.30,1.29
84.65,2.23,0.97,2.24,0.97,-0.97,-1.14,-0.77,1.26,1.26,1.26
85.50,2.25,1.02,2.25,1.02,-1.02,-1.17,-0.79,1.24,1.23,1.24
86.35,2.26,1.06,2.26,1.06,-1.06,-1.20,-0.82,1.20,1.20,1.20
87.22,2.27,1.10,2.28,1.11,-1.11,-1.23,-0.84,1.17,1.17,1.17
88.09,2.29,1.16,2.29,1.15,-1.15,-1.26,-0.87,1.14,1.14,1.14
88.97,2.30,1.19,2.30,1.19,-1.19,-1.29,-0.89,1.11,1.11,1.11
89.86,2.31,1.23,2.31,1.23,-1.24,-1.32,-0.92,1.08,1.08,1.09
90.76,2.32,1.28,2.32,1.28,-1.28,-1.35,-0.95,1.05,1.05,1.04
91.66,2.33,1.32,2.33,1.32,-1.32,-1.37,-0.97,1.01,1.01,1.01
92.58,2.34,1.37,2.34,1.36,-1.36,-1.40,-1.00,0.98,0.98,0.97
93.51,2.34,1.39,2.35,1.40,-1.40,-1.42,-1.03,0.94,0.95,0.95
94.44,2.36,1.45,2.36,1.44,-1.45,-1.44,-1.06,0.92,0.91,0.92
95.39,2.36,1.48,2.36,1.48,-1.49,-1.47,-1.10,0.88,0.87,0.88
96.34,2.36,1.53,2.37,1.53,-1.53,-1.49,-1.13,0.83,0.84,0.83
97.30,2.36,1.57,2.37,1.57,-1.57,-1.51,-1.16,0.79,0.80,0.79
98.28,2.37,1.62,2.37,1.61,-1.61,-1.53,-1.19,0.76,0.76,0.76
99.26,2.37,1.65,2.37,1.65,-1.65,-1.55,-1.23,0.72,0.72,0.72
100.25,2.37,1.69,2.38,1.69,-1.69,-1.57,-1.26,0.68,0.68,0.68
101.25,2.37,1.73,2.37,1.73,-1.73,-1.59,-1.30,0.64,0.64,0.64
102.27,2.37,1.77,2.37,1.77,-1.77,-1.60,-1.33,0.60,0.60,0.60
103.29,2.36,1.82,2.37,1.81,-1.81,-1.62,-1.37,0.55,0.56,0.55
104.32,2.36,1.85,2.36,1.85,-1.85,-1.64,-1.40,0.52,0.52,0.52
105.37,2.35,1.88,2.35,1.88,-1.88,-1.66,-1.44,0.47,0.47,0.47
106.42,2.34,1.91,2.34,1.91,-1.92,-1.67,-1.47,0.43,0.43,0.43
107.48,2.33,1.94,2.33,1.95,-1.95,-1.69,-1.51,0.38,0.39,0.39
108.56,2.32,1.99,2.32,1.98,-1.98,-1.70,-1.54,0.34,0.34,0.33
109.64,2.31,2.02,2.31,2.01,-2.01,-1.72,-1.58,0.30,0.30,0.30
110.74,2.29,2.05,2.29,2.05,-2.05,-1.73,-1.61,0.25,0.25,0.25
111.85,2.27,2.06,2.27,2.07,-2.08,-1.75,-1.65,0.20,0.20,0.21
112.97,2.25,2.11,2.25,2.10,-2.11,-1.76,-1.68,0.15,0.15,0.14
114.10,2.23,2.13,2.24,2.13,-2.13,-1.77,-1.71,0.10,0.10,0.11
115.24,2.22,2.17,2.22,2.17,-2.16,-1.79,-1.74,0.06,0.06,0.06
116.39,2.20,2.19,2.20,2.19,-2.19,-1.80,-1.77,0.02,0.01,0.01
117.55,2.17,2.21,2.18,2.21,-2.21,-1.81,-1.80,-0.03,-0.03,-0.04
118.73,2.14,2.23,2.15,2.23,-2.23,-1.82,-1.82,-0.08,-0.08,-0.08
119.92,2.12,2.24,2.12,2.24,-2.24,-1.83,-1.85,-0.12,-0.12,-0.12
121.12,2.09,2.26,2.09,2.26,-2.25,-1.84,-1.87,-0.16,-0.16,-0.16
122.33,2.06,2.27,2.06,2.27,-2.27,-1.86,-1.89,-0.20,-0.20,-0.21
123.55,2.02,2.27,2.03,2.27,-2.27,-1.87,-1.91,-0.25,-0.25,-0.24
124.79,1.99,2.27,1.99,2.27,-2.28,-1.88,-1.93,-0.29,-0.29,-0.28
126.03,1.95,2.28,1.96,2.28,-2.29,-1.89,-1.94,-0.33,-0.33,-0.32
127.29,1.92,2.29,1.92,2.29,-2.29,-1.89,-1.96,-0.37,-0.37,-0.37
128.57,1.88,2.29,1.89,2.30,-2.29,-1.90,-1.97,-0.41,-0.41,-0.41
129.85,1.85,2.31,1.85,2.30,-2.29,-1.91,-1.98,-0.44,-0.44,-0.45
131.15,1.80,2.29,1.81,2.29,-2.29,-1.92,-1.99,-0.48,-0.48,-0.49
132.46,1.76,2.28,1.76,2.28,-2.28,-1.93,-2.00,-0.52,-0.52,-0.52
133.79,1.71,2.26,1.72,2.27,-2.27,-1.94,-2.00,-0.56,-0.55,-0.55
135.12,1.67,2.26,1.67,2.25,-2.26,-1.94,-2.01,-0.58,-0.59,-0.59
136.48,1.62,2.23,1.62,2.24,-2.24,-1.95,-2.01,-0.62,-0.62,-0.61
137.84,1.57,2.21,1.58,2.22,-2.22,-1.96,-2.01,-0.65,-0.64,-0.64
139.22,1.53,2.20,1.53,2.20,-2.20,-1.96,-2.02,-0.66,-0.67,-0.67
140.61,1.48,2.18,1.49,2.18,-2.18,-1.97,-2.02,-0.69,-0.69,-0.70
142.02,1.44,2.15,1.44,2.15,-2.15,-1.97,-2.02,-0.71,-0.71,-0.71
143.44,1.39,2.13,1.39,2.12,-2.12,-1.98,-2.02,-0.73,-0.73,-0.73
144.87,1.34,2.09,1.34,2.09,-2.09,-1.98,-2.02,-0.75,-0.75,-0.75
146.32,1.29,2.06,1.30,2.06,-2.06,-1.99,-2.02,-0.77,-0.77,-0.77
147.78,1.24,2.03,1.25,2.03,-2.03,-1.99,-2.02,-0.79,-0.79,-0.78
149.26,1.20,2.00,1.20,2.00,-2.00,-2.00,-2.02,-0.80,-0.80,-0.80
150.75,1.14,1.98,1.15,1.97,-1.97,-2.00,-2.02,-0.83,-0.82,-0.83
152.26,1.09,1.94,1.10,1.94,-1.94,-2.01,-2.03,-0.84,-0.84,-0.85
153.78,1.04,1.90,1.04,1.91,-1.91,-2.01,-2.03,-0.86,-0.86,-0.86
155.32,0.99,1.88,0.99,1.87,-1.88,-2.01,-2.04,-0.88,-0.88,-0.88
156.88,0.94,1.84,0.94,1.84,-1.85,-2.02,-2.04,-0.90,-0.90,-0.90
158.44,0.89,1.81,0.89,1.81,-1.82,-2.02,-2.05,-0.92,-0.92,-0.92
160.03,0.84,1.78,0.84,1.79,-1.79,-2.02,-2.05,-0.94,-0.94,-0.94
161.63,0.79,1.76,0.79,1.76,-1.76,-2.03,-2.06,-0.96,-0.96,-0.97
163.24,0.74,1.73,0.75,1.73,-1.73,-2.03,-2.07,-0.98,-0.98,-0.99
164.88,0.70,1.70,0.70,1.71,-1.70,-2.03,-2.09,-1.00,-1.00,-1.00
166.53,0.65,1.67,0.65,1.67,-1.67,-2.03,-2.10,-1.02,-1.02,-1.02
168.19,0.60,1.65,0.60,1.65,-1.65,-2.04,-2.12,-1.05,-1.05,-1.05
169.87,0.55,1.62,0.56,1.62,-1.63,-2.04,-2.13,-1.07,-1.07,-1.07
171.57,0.51,1.61,0.51,1.60,-1.61,-2.04,-2.15,-1.10,-1.10,-1.09
173.29,0.47,1.58,0.48,1.59,-1.59,-2.04,-2.17,-1.12,-1.12,-1.11
175.02,0.44,1.58,0.44,1.58,-1.58,-2.05,-2.19,-1.14,-1.14,-1.14
176.77,0.40,1.58,0.40,1.58,-1.57,-2.05,-2.22,-1.17,-1.17,-1.17
178.54,0.36,1.57,0.37,1.57,-1.57,-2.05,-2.24,-1.21,-1.20,-1.21
180.32,0.33,1.57,0.33,1.57,-1.57,-2.06,-2.27,-1.23,-1.24,-1.24
182.13,0.30,1.56,0.30,1.57,-1.57,-2.06,-2.30,-1.27,-1.27,-1.26
183.95,0.27,1.58,0.28,1.57,-1.58,-2.06,-2.33,-1.30,-1.30,-1.30
185.79,0.25,1.58,0.25,1.58,-1.58,-2.07,-2.36,-1.33,-1.33,-1.33
187.65,0.23,1.60,0.23,1.59,-1.59,-2.07,-2.40,-1.36,-1.36,-1.36
189.52,0.21,1.60,0.22,1.61,-1.61,-2.08,-2.43,-1.39,-1.39,-1.38
191.42,0.21,1.63,0.21,1.62,-1.62,-2.08,-2.47,-1.41,-1.42,-1.42
193.33,0.19,1.63,0.20,1.64,-1.64,-2.09,-2.51,-1.45,-1.44,-1.44
195.27,0.19,1.67,0.19,1.66,-1.66,-2.09,-2.55,-1.47,-1.47,-1.47
197.22,0.18,1.68,0.19,1.69,-1.69,-2.10,-2.59,-1.50,-1.50,-1.49
199.19,0.19,1.73,0.19,1.71,-1.71,-2.11,-2.63,-1.52,-1.52,-1.53
201.18,0.19,1.74,0.19,1.74,-1.74,-2.12,-2.68,-1.55,-1.55,-1.55
203.19,0.20,1.77,0.20,1.77,-1.77,-2.13,-2.72,-1.57,-1.57,-1.57
205.23,0.21,1.81,0.21,1.80,-1.81,-2.14,-2.76,-1.59,-1.59,-1.60
207.28,0.23,1.83,0.23,1.84,-1.84,-2.15,-2.81,-1.61,-1.61,-1.60
209.35,0.25,1.88,0.26,1.88,-1.88,-2.16,-2.85,-1.63,-1.63,-1.63
211.44,0.28,1.94,0.28,1.93,-1.93,-2.17,-2.90,-1.64,-1.64,-1.65
213.56,0.31,1.98,0.31,1.97,-1.97,-2.18,-2.94,-1.66,-1.66,-1.66
215.69,0.34,2.01,0.34,2.02,-2.02,-2.20,-2.99,-1.67,-1.67,-1.66
217.85,0.38,2.06,0.38,2.06,-2.07,-2.21,-3.03,-1.68,-1.68,-1.68
220.03,0.42,2.11,0.43,2.12,-2.12,-2.23,-3.07,-1.69,-1.69,-1.69
222.23,0.48,2.18,0.48,2.17,-2.16,-2.25,-3.12,-1.68,-1.69,-1.70
224.45,0.53,2.22,0.53,2.22,-2.21,-2.26,-3.16,-1.68,-1.68,-1.68
226.70,0.58,2.26,0.59,2.27,-2.27,-2.28,-3.19,-1.68,-1.68,-1.68
228.96,0.64,2.32,0.64,2.31,-2.32,-2.31,-3.23,-1.67,-1.68,-1.68
231.25,0.69,2.36,0.70,2.36,-2.37,-2.33,-3.26,-1.68,-1.67,-1.66
233.57,0.76,2.42,0.76,2.42,-2.42,-2.35,-3.29,-1.66,-1.66,-1.66
235.90,0.82,2.47,0.83,2.48,-2.48,-2.38,-3.32,-1.66,-1.65,-1.65
238.26,0.90,2.55,0.90,2.54,-2.54,-2.41,-3.34,-1.63,-1.63,-1.64
240.64,0.97,2.59,0.97,2.60,-2.59,-2.44,-3.36,-1.62,-1.62,-1.62
243.05,1.05,2.66,1.05,2.65,-2.65,-2.47,-3.37,-1.60,-1.60,-1.60
245.48,1.12,2.70,1.13,2.71,-2.71,-2.50,-3.39,-1.59,-1.58,-1.58
247.93,1.21,2.77,1.22,2.78,-2.78,-2.54,-3.39,-1.56,-1.56,-1.56
250.41,1.30,2.85,1.30,2.84,-2.84,-2.57,-3.40,-1.53,-1.54,-1.55
252.92,1.38,2.90,1.38,2.90,-2.90,-2.61,-3.40,-1.51,-1.52,-1.52
255.45,1.45,2.94,1.46,2.96,-2.96,-2.65,-3.39,-1.50,-1.50,-1.49
258.00,1.54,3.02,1.54,3.01,-3.02,-2.70,-3.39,-1.47,-1.47,-1.47
260.58,1.63,3.08,1.63,3.08,-3.08,-2.74,-3.37,-1.44,-1.45,-1.45
263.19,1.71,3.14,1.71,3.14,-3.14,-2.79,-3.36,-1.42,-1.42,-1.42
265.82,1.79,3.20,1.80,3.20,-3.19,-2.84,-3.34,-1.40,-1.40,-1.41
268.48,1.87,3.24,1.88,3.25,-3.25,-2.89,-3.32,-1.38,-1.38,-1.37
271.16,1.96,3.31,1.96,3.31,-3.31,-2.95,-3.29,-1.35,-1.35,-1.34
273.87,2.03,3.36,2.04,3.37,-3.37,-3.00,-3.26,-1.34,-1.33,-1.33
276.61,2.12,3.43,2.12,3.43,-3.43,-3.06,-3.23,-1.30,-1.30,-1.30
279.38,2.20,3.49,2.20,3.48,-3.48,-3.12,-3.20,-1.28,-1.28,-1.29
282.17,2.27,3.53,2.28,3.54,-3.53,-3.18,-3.16,-1.26,-1.25,-1.26
284.99,2.35,3.59,2.35,3.58,-3.58,-3.24,-3.13,-1.23,-1.23,-1.23
287.84,2.42,3.63,2.42,3.63,-3.63,-3.30,-3.09,-1.21,-1.21,-1.20
290.72,2.49,3.67,2.50,3.67,-3.67,-3.37,-3.05,-1.18,-1.18,-1.18
293.63,2.56,3.71,2.56,3.71,-3.71,-3.43,-3.01,-1.15,-1.15,-1.15
296.57,2.62,3.75,2.63,3.75,-3.75,-3.50,-2.97,-1.13,-1.12,-1.12
299.53,2.68,3.78,2.68,3.78,-3.78,-3.56,-2.93,-1.10,-1.10,-1.10
302.53,2.74,3.82,2.74,3.81,-3.81,-3.62,-2.90,-1.06,-1.07,-1.08
305.55,2.79,3.82,2.80,3.84,-3.83,-3.69,-2.86,-1.04,-1.03,-1.03
308.61,2.85,3.86,2.85,3.85,-3.85,-3.75,-2.82,-1.00,-1.00,-1.00
311.69,2.90,3.87,2.90,3.86,-3.87,-3.81,-2.78,-0.96,-0.96,-0.97
314.81,2.95,3.87,2.95,3.88,-3.88,-3.86,-2.74,-0.93,-0.93,-0.92
317.96,2.99,3.89,3.00,3.89,-3.89,-3.91,-2.71,-0.90,-0.90,-0.90
321.14,3.03,3.91,3.04,3.90,-3.90,-3.96,-2.68,-0.87,-0.87,-0.87
324.35,3.07,3.92,3.07,3.91,-3.91,-4.00,-2.64,-0.84,-0.84,-0.84
327.59,3.10,3.92,3.10,3.92,-3.92,-4.03,-2.61,-0.82,-0.82,-0.82
330.87,3.13,3.92,3.14,3.93,-3.93,-4.06,-2.58,-0.79,-0.79,-0.79
334.18,3.16,3.93,3.16,3.93,-3.94,-4.08,-2.55,-0.77,-0.77,-0.77
337.52,3.19,3.94,3.19,3.94,-3.94,-4.10,-2.53,-0.75,-0.75,-0.75
340.90,3.21,3.94,3.21,3.94,-3.95,-4.10,-2.50,-0.73,-0.73,-0.72
344.30,3.23,3.94,3.24,3.94,-3.95,-4.10,-2.48,-0.71,-0.71,-0.70
347.75,3.25,3.94,3.26,3.94,-3.94,-4.09,-2.46,-0.68,-0.68,-0.69
351.23,3.27,3.94,3.27,3.94,-3.93,-4.07,-2.44,-0.65,-0.65,-0.67
354.74,3.28,3.93,3.27,3.92,-3.91,-4.05,-2.43,-0.62,-0.63,-0.65
358.28,3.25,3.88,3.26,3.89,-3.88,-4.01,-2.41,-0.63,-0.62,-0.63
361.87,3.23,3.84,3.23,3.85,-3.85,-3.97,-2.40,-0.61,-0.61,-0.61
365.49,3.20,3.80,3.20,3.80,-3.81,-3.91,-2.39,-0.60,-0.61,-0.59
369.14,3.17,3.76,3.18,3.76,-3.76,-3.86,-2.38,-0.59,-0.59,-0.58
372.83,3.14,3.71,3.15,3.71,-3.72,-3.79,-2.37,-0.57,-0.57,-0.56
376.56,3.12,3.68,3.12,3.67,-3.67,-3.72,-2.37,-0.54,-0.55,-0.56
380.33,3.08,3.61,3.09,3.62,-3.62,-3.65,-2.36,-0.53,-0.53,-0.53
384.13,3.06,3.57,3.06,3.57,-3.57,-3.57,-2.36,-0.51,-0.51,-0.51
387.97,3.02,3.51,3.03,3.52,-3.52,-3.48,-2.36,-0.50,-0.49,-0.49
391.85,2.99,3.47,3.00,3.47,-3.47,-3.40,-2.36,-0.48,-0.47,-0.48
395.77,2.96,3.41,2.96,3.42,-3.42,-3.31,-2.37,-0.45,-0.46,-0.45
399.73,2.93,3.37,2.93,3.37,-3.37,-3.22,-2.37,-0.43,-0.43,-0.43
403.72,2.90,3.32,2.90,3.31,-3.32,-3.13,-2.37,-0.41,-0.41,-0.41
407.76,2.87,3.27,2.87,3.26,-3.26,-3.04,-2.38,-0.39,-0.39,-0.39
411.84,2.83,3.20,2.84,3.21,-3.21,-2.94,-2.39,-0.38,-0.37,-0.36
415.96,2.81,3.16,2.81,3.15,-3.16,-2.85,-2.39,-0.34,-0.35,-0.35
420.12,2.77,3.10,2.77,3.10,-3.10,-2.76,-2.40,-0.32,-0.32,-0.33
424.32,2.73,3.04,2.74,3.04,-3.04,-2.67,-2.41,-0.30,-0.30,-0.31
428.56,2.69,2.98,2.69,2.98,-2.97,-2.58,-2.41,-0.28,-0.28,-0.29
432.85,2.64,2.91,2.65,2.91,-2.91,-2.49,-2.42,-0.26,-0.26,-0.27
437.18,2.60,2.84,2.60,2.84,-2.84,-2.40,-2.43,-0.23,-0.24,-0.24
441.55,2.55,2.76,2.55,2.76,-2.77,-2.32,-2.43,-0.22,-0.22,-0.21
445.96,2.49,2.68,2.50,2.69,-2.70,-2.23,-2.44,-0.21,-0.20,-0.19
450.42,2.46,2.63,2.46,2.62,-2.63,-2.15,-2.44,-0.17,-0.17,-0.17
454.93,2.42,2.55,2.42,2.56,-2.56,-2.07,-2.44,-0.14,-0.14,-0.13
459.48,2.38,2.50,2.38,2.49,-2.49,-1.99,-2.44,-0.11,-0.11,-0.11
464.07,2.34,2.43,2.34,2.42,-2.42,-1.91,-2.44,-0.08,-0.08,-0.08
468.71,2.30,2.36,2.30,2.36,-2.36,-1.84,-2.43,-0.05,-0.05,-0.05
473.40,2.26,2.29,2.26,2.29,-2.29,-1.77,-2.43,-0.02,-0.02,-0.02
478.13,2.22,2.22,2.22,2.22,-2.22,-1.70,-2.42,0.01,0.00,0.01
482.91,2.17,2.15,2.18,2.15,-2.15,-1.63,-2.40,0.03,0.03,0.03
487.74,2.13,2.08,2.13,2.08,-2.08,-1.56,-2.39,0.06,0.06,0.06
492.62,2.09,2.01,2.09,2.00,-2.00,-1.50,-2.37,0.09,0.09,0.09
497.55,2.04,1.93,2.04,1.93,-1.93,-1.43,-2.35,0.11,0.11,0.11
502.52,1.99,1.85,1.99,1.85,-1.86,-1.37,-2.32,0.14,0.14,0.14
507.55,1.94,1.78,1.95,1.78,-1.78,-1.31,-2.29,0.16,0.16,0.16
