frequency,raw,error,smoothed,error_smoothed,equalization,parametric_eq,fixed_band_eq,equalized_raw,equalized_smoothed,target
20.00,-14.78,-14.51,-14.79,-14.52,6.00,6.23,2.68,-8.78,-8.79,-0.27
20.20,-14.65,-14.42,-14.65,-14.41,6.00,6.23,2.75,-8.65,-8.65,-0.23
20.40,-14.52,-14.33,-14.51,-14.31,6.00,6.23,2.83,-8.52,-8.51,-0.19
20.61,-14.39,-14.22,-14.38,-14.22,6.00,6.23,2.91,-8.39,-8.38,-0.17
20.81,-14.26,-14.13,-14.26,-14.13,6.00,6.22,2.99,-8.26,-8.26,-0.13
21.02,-14.13,-14.04,-14.15,-14.05,6.00,6.22,3.08,-8.13,-8.15,-0.09
21.23,-14.07,-13.99,-14.07,-13.99,6.00,6.22,3.17,-8.07,-8.07,-0.08
21.44,-14.01,-13.95,-14.01,-13.94,6.00,6.22,3.26,-8.01,-8.01,-0.06
21.66,-13.95,-13.90,-13.96,-13.90,6.00,6.21,3.35,-7.95,-7.96,-0.05
21.87,-13.89,-13.83,-13.89,-13.84,6.00,6.21,3.45,-7.89,-7.89,-0.05
22.09,-13.81,-13.76,-13.80,-13.75,6.00,6.21,3.54,-7.81,-7.80,-0.05
22.31,-13.69,-13.64,-13.69,-13.64,6.00,6.21,3.65,-7.69,-7.69,-0.05
22.54,-13.56,-13.52,-13.57,-13.52,6.00,6.20,3.75,-7.56,-7.57,-0.05
22.76,-13.44,-13.38,-13.44,-13.38,6.00,6.20,3.85,-7.44,-7.44,-0.06
22.99,-13.32,-13.25,-13.32,-13.26,6.00,6.20,3.96,-7.32,-7.32,-0.07
23.22,-13.21,-13.14,-13.21,-13.14,6.00,6.20,4.07,-7.21,-7.21,-0.07
23.45,-13.11,-13.03,-13.11,-13.03,6.00,6.19,4.19,-7.11,-7.11,-0.08
23.69,-13.01,-12.93,-13.01,-12.93,6.00,6.19,4.30,-7.01,-7.01,-0.08
23.92,-12.91,-12.83,-12.91,-12.83,6.00,6.19,4.42,-6.91,-6.91,-0.08
24.16,-12.80,-12.73,-12.80,-12.72,6.00,6.18,4.54,-6.80,-6.80,-0.07
24.40,-12.68,-12.61,-12.68,-12.61,6.00,6.18,4.67,-6.68,-6.68,-0.07
24.65,-12.57,-12.49,-12.57,-12.49,6.00,6.18,4.79,-6.57,-6.57,-0.08
24.89,-12.45,-12.37,-12.45,-12.37,6.00,6.17,4.92,-6.45,-6.45,-0.08
25.14,-12.34,-12.26,-12.34,-12.26,6.00,6.17,5.05,-6.34,-6.34,-0.08
25.39,-12.24,-12.16,-12.23,-12.15,6.00,6.17,5.17,-6.24,-6.23,-0.08
25.65,-12.13,-12.04,-12.13,-12.04,6.00,6.16,5.31,-6.13,-6.13,-0.09
25.91,-12.03,-11.93,-12.04,-11.94,6.00,6.16,5.44,-6.03,-6.04,-0.10
26.16,-11.95,-11.85,-11.96,-11.85,6.00,6.15,5.57,-5.95,-5.96,-0.10
26.43,-11.90,-11.80,-11.90,-11.80,6.00,6.15,5.70,-5.90,-5.90,-0.11
26.69,-11.84,-11.73,-11.85,-11.74,6.00,6.15,5.82,-5.84,-5.85,-0.11
26.96,-11.79,-11.67,-11.77,-11.66,6.00,6.14,5.95,-5.79,-5.77,-0.12
27.23,-11.66,-11.54,-11.66,-11.54,6.00,6.14,6.08,-5.66,-5.66,-0.12
27.50,-11.51,-11.39,-11.51,-11.39,6.00,6.13,6.20,-5.51,-5.51,-0.12
27.77,-11.36,-11.23,-11.36,-11.24,6.00,6.13,6.32,-5.36,-5.36,-0.13
28.05,-11.23,-11.10,-11.25,-11.12,6.00,6.12,6.43,-5.23,-5.25,-0.13
28.33,-11.18,-11.04,-11.18,-11.04,6.00,6.12,6.54,-5.18,-5.18,-0.14
28.62,-11.13,-10.99,-11.13,-10.99,6.00,6.11,6.65,-5.13,-5.13,-0.14
28.90,-11.09,-10.95,-11.07,-10.93,6.00,6.11,6.75,-5.09,-5.07,-0.14
29.19,-10.98,-10.84,-10.98,-10.83,6.00,6.10,6.84,-4.98,-4.98,-0.14
29.48,-10.85,-10.71,-10.85,-10.71,6.00,6.10,6.92,-4.85,-4.85,-0.14
29.78,-10.71,-10.57,-10.72,-10.58,6.00,6.09,7.00,-4.71,-4.72,-0.15
30.08,-10.59,-10.45,-10.60,-10.46,6.00,6.09,7.06,-4.59,-4.60,-0.14
30.38,-10.51,-10.35,-10.51,-10.35,6.00,6.08,7.12,-4.51,-4.51,-0.16
30.68,-10.43,-10.27,-10.43,-10.27,6.00,6.08,7.16,-4.43,-4.43,-0.16
30.99,-10.35,-10.18,-10.35,-10.18,6.00,6.07,7.20,-4.35,-4.35,-0.17
31.30,-10.26,-10.09,-10.26,-10.09,6.00,6.07,7.22,-4.26,-4.26,-0.17
31.61,-10.17,-10.00,-10.17,-9.99,6.00,6.06,7.24,-4.17,-4.17,-0.17
31.93,-10.08,-9.89,-10.09,-9.90,6.00,6.05,7.24,-4.08,-4.09,-0.20
32.24,-10.02,-9.81,-10.02,-9.82,6.00,6.05,7.24,-4.02,-4.02,-0.21
32.57,-9.97,-9.76,-9.97,-9.76,6.00,6.04,7.22,-3.97,-3.97,-0.21
32.89,-9.93,-9.71,-9.92,-9.70,6.00,6.03,7.20,-3.93,-3.92,-0.22
33.22,-9.86,-9.62,-9.86,-9.63,6.00,6.02,7.16,-3.86,-3.86,-0.24
33.55,-9.79,-9.55,-9.79,-9.54,6.00,6.02,7.13,-3.79,-3.79,-0.24
33.89,-9.71,-9.44,-9.71,-9.44,6.00,6.01,7.08,-3.71,-3.71,-0.27
34.23,-9.61,-9.34,-9.61,-9.34,6.00,6.00,7.02,-3.61,-3.61,-0.27
34.57,-9.50,-9.21,-9.50,-9.22,6.00,5.99,6.96,-3.50,-3.50,-0.29
34.92,-9.39,-9.09,-9.39,-9.09,6.00,5.99,6.90,-3.39,-3.39,-0.30
35.27,-9.28,-8.98,-9.28,-8.97,6.00,5.98,6.83,-3.28,-3.28,-0.30
35.62,-9.17,-8.84,-9.17,-8.85,6.00,5.97,6.76,-3.17,-3.17,-0.33
35.97,-9.07,-8.73,-9.08,-8.74,6.00,5.96,6.68,-3.07,-3.08,-0.34
36.33,-8.99,-8.65,-8.99,-8.64,6.00,5.95,6.60,-2.99,-2.99,-0.34
36.70,-8.91,-8.56,-8.91,-8.56,6.00,5.94,6.52,-2.91,-2.91,-0.35
37.06,-8.84,-8.47,-8.84,-8.48,6.00,5.93,6.44,-2.84,-2.84,-0.37
37.43,-8.77,-8.41,-8.77,-8.40,6.00,5.92,6.37,-2.77,-2.77,-0.36
37.81,-8.70,-8.33,-8.71,-8.33,6.00,5.91,6.29,-2.70,-2.71,-0.37
38.19,-8.65,-8.27,-8.66,-8.28,6.00,5.90,6.21,-2.65,-2.66,-0.38
38.57,-8.60,-8.22,-8.60,-8.22,6.00,5.89,6.13,-2.60,-2.60,-0.38
38.95,-8.56,-8.17,-8.54,-8.15,6.00,5.88,6.06,-2.56,-2.54,-0.39
39.34,-8.46,-8.07,-8.46,-8.06,6.00,5.87,5.99,-2.46,-2.46,-0.39
39.74,-8.36,-7.95,-8.37,-7.96,6.00,5.86,5.92,-2.36,-2.37,-0.41
40.14,-8.26,-7.85,-8.26,-7.85,6.00,5.85,5.85,-2.26,-2.26,-0.41
40.54,-8.17,-7.76,-8.16,-7.75,6.00,5.83,5.79,-2.17,-2.16,-0.41
40.94,-8.07,-7.65,-8.09,-7.66,6.00,5.82,5.73,-2.07,-2.09,-0.42
41.35,-8.02,-7.59,-8.02,-7.59,6.00,5.81,5.68,-2.02,-2.02,-0.43
41.76,-7.98,-7.53,-7.97,-7.52,6.00,5.80,5.62,-1.98,-1.97,-0.45
42.18,-7.91,-7.46,-7.91,-7.46,6.00,5.78,5.58,-1.91,-1.91,-0.45
42.60,-7.83,-7.36,-7.83,-7.37,6.00,5.77,5.53,-1.83,-1.83,-0.47
43.03,-7.75,-7.28,-7.74,-7.27,6.00,5.75,5.49,-1.75,-1.74,-0.47
43.46,-7.66,-7.17,-7.66,-7.16,6.00,5.74,5.46,-1.66,-1.66,-0.49
43.90,-7.57,-7.05,-7.59,-7.08,6.00,5.72,5.42,-1.57,-1.59,-0.52
44.33,-7.54,-7.01,-7.55,-7.01,6.00,5.71,5.40,-1.54,-1.55,-0.53
44.78,-7.52,-6.96,-7.50,-6.95,6.00,5.69,5.37,-1.52,-1.50,-0.56
45.23,-7.46,-6.89,-7.45,-6.87,6.00,5.68,5.35,-1.46,-1.45,-0.57
45.68,-7.37,-6.78,-7.38,-6.79,6.00,5.66,5.34,-1.37,-1.38,-0.59
46.13,-7.29,-6.68,-7.30,-6.70,6.00,5.64,5.33,-1.29,-1.30,-0.61
46.60,-7.24,-6.63,-7.24,-6.63,6.00,5.62,5.32,-1.24,-1.24,-0.61
47.06,-7.19,-6.57,-7.18,-6.57,6.00,5.61,5.31,-1.19,-1.18,-0.62
47.53,-7.12,-6.50,-7.12,-6.50,6.00,5.59,5.31,-1.12,-1.12,-0.62
48.01,-7.05,-6.42,-7.04,-6.40,6.00,5.57,5.32,-1.05,-1.03,-0.63
48.49,-6.95,-6.30,-6.95,-6.30,6.01,5.55,5.32,-0.94,-0.94,-0.65
48.97,-6.86,-6.20,-6.89,-6.23,6.01,5.53,5.33,-0.85,-0.88,-0.67
49.46,-6.85,-6.18,-6.85,-6.18,6.01,5.51,5.35,-0.84,-0.84,-0.67
49.96,-6.85,-6.16,-6.81,-6.13,6.01,5.48,5.36,-0.84,-0.80,-0.69
50.46,-6.76,-6.08,-6.76,-6.07,5.99,5.46,5.38,-0.77,-0.77,-0.68
50.96,-6.66,-5.97,-6.70,-6.01,5.96,5.44,5.40,-0.70,-0.74,-0.69
51.47,-6.64,-5.95,-6.65,-5.95,5.92,5.42,5.42,-0.72,-0.72,-0.69
51.99,-6.63,-5.93,-6.58,-5.88,5.87,5.39,5.45,-0.76,-0.71,-0.70
52.51,-6.51,-5.81,-6.52,-5.81,5.81,5.37,5.47,-0.71,-0.71,-0.70
53.03,-6.40,-5.70,-6.44,-5.73,5.73,5.34,5.50,-0.67,-0.71,-0.70
53.56,-6.37,-5.66,-6.36,-5.65,5.66,5.32,5.53,-0.71,-0.70,-0.71
54.10,-6.33,-5.61,-6.30,-5.58,5.60,5.29,5.55,-0.73,-0.70,-0.72
54.64,-6.22,-5.50,-6.23,-5.51,5.54,5.26,5.58,-0.68,-0.70,-0.72
55.18,-6.15,-5.42,-6.18,-5.44,5.48,5.23,5.60,-0.67,-0.69,-0.73
55.74,-6.15,-5.41,-6.15,-5.41,5.43,5.20,5.62,-0.72,-0.71,-0.74
56.29,-6.15,-5.41,-6.15,-5.40,5.38,5.17,5.65,-0.77,-0.77,-0.75
56.86,-6.15,-5.38,-6.14,-5.38,5.33,5.14,5.66,-0.82,-0.82,-0.77
57.42,-6.11,-5.33,-6.11,-5.33,5.27,5.11,5.68,-0.84,-0.83,-0.78
58.00,-6.05,-5.26,-6.03,-5.24,5.22,5.08,5.69,-0.83,-0.82,-0.79
58.58,-5.94,-5.14,-5.95,-5.14,5.16,5.05,5.70,-0.78,-0.79,-0.81
59.16,-5.86,-5.04,-5.88,-5.06,5.10,5.01,5.70,-0.76,-0.78,-0.82
59.76,-5.84,-5.00,-5.84,-5.00,5.04,4.98,5.69,-0.80,-0.80,-0.84
60.35,-5.84,-4.97,-5.83,-4.97,4.98,4.94,5.69,-0.86,-0.85,-0.87
60.96,-5.84,-4.95,-5.84,-4.94,4.93,4.91,5.67,-0.91,-0.91,-0.89
61.57,-5.84,-4.90,-5.84,-4.91,4.89,4.87,5.65,-0.95,-0.95,-0.94
62.18,-5.84,-4.87,-5.84,-4.87,4.85,4.83,5.62,-0.99,-0.99,-0.97
62.80,-5.84,-4.83,-5.84,-4.83,4.82,4.79,5.59,-1.02,-1.02,-1.01
63.43,-5.84,-4.80,-5.84,-4.79,4.80,4.75,5.55,-1.04,-1.03,-1.04
64.07,-5.84,-4.76,-5.84,-4.76,4.79,4.71,5.50,-1.05,-1.05,-1.08
64.71,-5.85,-4.73,-5.87,-4.75,4.77,4.66,5.45,-1.08,-1.09,-1.12
65.35,-5.89,-4.74,-5.90,-4.74,4.76,4.62,5.39,-1.13,-1.13,-1.15
66.01,-5.96,-4.77,-5.93,-4.74,4.75,4.57,5.33,-1.21,-1.17,-1.19
66.67,-5.95,-4.73,-5.99,-4.77,4.74,4.53,5.26,-1.21,-1.25,-1.22
67.33,-5.99,-4.74,-6.01,-4.76,4.72,4.48,5.18,-1.27,-1.30,-1.25
68.01,-6.09,-4.80,-6.00,-4.71,4.69,4.43,5.10,-1.40,-1.31,-1.29
68.69,-5.95,-4.62,-6.00,-4.67,4.65,4.38,5.02,-1.30,-1.36,-1.34
69.37,-5.93,-4.55,-5.98,-4.60,4.59,4.33,4.93,-1.34,-1.38,-1.38
70.07,-6.00,-4.58,-5.92,-4.51,4.53,4.28,4.84,-1.47,-1.40,-1.42
70.77,-5.88,-4.43,-5.90,-4.45,4.46,4.22,4.74,-1.42,-1.44,-1.45
71.48,-5.84,-4.35,-5.87,-4.38,4.39,4.17,4.64,-1.45,-1.49,-1.49
72.19,-5.84,-4.30,-5.83,-4.29,4.32,4.11,4.55,-1.52,-1.52,-1.54
72.91,-5.84,-4.25,-5.82,-4.23,4.24,4.05,4.44,-1.60,-1.57,-1.59
73.64,-5.79,-4.16,-5.79,-4.15,4.17,3.99,4.34,-1.63,-1.62,-1.64
74.38,-5.75,-4.07,-5.78,-4.10,4.09,3.93,4.24,-1.66,-1.70,-1.68
75.12,-5.74,-4.01,-5.76,-4.04,4.01,3.87,4.14,-1.73,-1.76,-1.73
75.87,-5.79,-4.03,-5.71,-3.95,3.92,3.80,4.03,-1.87,-1.79,-1.76
76.63,-5.62,-3.82,-5.63,-3.83,3.83,3.73,3.93,-1.79,-1.80,-1.80
77.40,-5.49,-3.65,-5.54,-3.70,3.73,3.66,3.83,-1.76,-1.81,-1.84
78.17,-5.46,-3.59,-5.47,-3.60,3.62,3.59,3.72,-1.84,-1.85,-1.87
78.95,-5.44,-3.54,-5.43,-3.53,3.51,3.52,3.62,-1.93,-1.93,-1.90
79.74,-5.41,-3.48,-5.36,-3.43,3.39,3.45,3.52,-2.02,-1.97,-1.93
80.54,-5.25,-3.29,-5.25,-3.29,3.28,3.37,3.42,-1.97,-1.97,-1.96
81.35,-5.10,-3.11,-5.14,-3.15,3.18,3.29,3.32,-1.93,-1.96,-1.99
82.16,-5.05,-3.03,-5.06,-3.04,3.07,3.21,3.23,-1.98,-1.98,-2.02
82.98,-5.02,-2.98,-5.01,-2.96,2.97,3.13,3.13,-2.05,-2.04,-2.04
83.81,-4.99,-2.91,-4.97,-2.89,2.87,3.04,3.04,-2.12,-2.10,-2.09
84.65,-4.91,-2.79,-4.92,-2.81,2.78,2.96,2.95,-2.13,-2.14,-2.12
85.50,-4.85,-2.71,-4.85,-2.71,2.70,2.87,2.86,-2.15,-2.15,-2.14
86.35,-4.80,-2.63,-4.79,-2.61,2.64,2.79,2.77,-2.16,-2.15,-2.17
87.22,-4.74,-2.53,-4.76,-2.55,2.58,2.71,2.69,-2.16,-2.17,-2.21
88.09,-4.72,-2.48,-4.74,-2.50,2.53,2.63,2.61,-2.19,-2.21,-2.24
88.97,-4.77,-2.50,-4.74,-2.47,2.47,2.55,2.53,-2.30,-2.27,-2.27
89.86,-4.72,-2.42,-4.73,-2.43,2.41,2.48,2.45,-2.32,-2.33,-2.30
90.76,-4.72,-2.38,-4.71,-2.38,2.34,2.41,2.37,-2.38,-2.37,-2.34
91.66,-4.66,-2.30,-4.67,-2.31,2.28,2.35,2.29,-2.38,-2.40,-2.36
92.58,-4.63,-2.23,-4.63,-2.23,2.21,2.29,2.22,-2.42,-2.42,-2.40
93.51,-4.58,-2.16,-4.55,-2.13,2.13,2.23,2.15,-2.45,-2.42,-2.42
94.44,-4.47,-2.02,-4.48,-2.03,2.06,2.18,2.08,-2.41,-2.42,-2.45
95.39,-4.39,-1.91,-4.43,-1.95,1.98,2.12,2.01,-2.41,-2.44,-2.48
96.34,-4.41,-1.90,-4.42,-1.90,1.92,2.07,1.94,-2.49,-2.49,-2.51
97.30,-4.44,-1.90,-4.40,-1.86,1.87,2.02,1.88,-2.57,-2.54,-2.54
98.28,-4.41,-1.84,-4.38,-1.82,1.82,1.98,1.81,-2.59,-2.57,-2.57
99.26,-4.31,-1.72,-4.38,-1.78,1.78,1.93,1.75,-2.54,-2.60,-2.59
100.25,-4.36,-1.75,-4.37,-1.75,1.74,1.88,1.69,-2.62,-2.63,-2.62
101.25,-4.43,-1.79,-4.37,-1.73,1.71,1.83,1.63,-2.72,-2.66,-2.64
102.27,-4.36,-1.69,-4.38,-1.70,1.68,1.77,1.58,-2.68,-2.70,-2.67
103.29,-4.34,-1.62,-4.36,-1.65,1.65,1.72,1.52,-2.69,-2.71,-2.72
104.32,-4.34,-1.60,-4.34,-1.60,1.63,1.67,1.47,-2.72,-2.72,-2.74
105.37,-4.37,-1.59,-4.36,-1.59,1.61,1.61,1.41,-2.76,-2.76,-2.78
106.42,-4.39,-1.59,-4.39,-1.58,1.59,1.56,1.36,-2.80,-2.80,-2.81
107.48,-4.41,-1.57,-4.42,-1.57,1.58,1.50,1.31,-2.83,-2.84,-2.84
108.56,-4.44,-1.56,-4.44,-1.56,1.56,1.45,1.26,-2.88,-2.87,-2.88
109.64,-4.46,-1.54,-4.46,-1.55,1.55,1.39,1.21,-2.91,-2.91,-2.92
110.74,-4.48,-1.53,-4.49,-1.54,1.53,1.33,1.17,-2.96,-2.97,-2.95
111.85,-4.50,-1.52,-4.50,-1.52,1.49,1.28,1.12,-3.01,-3.01,-2.98
112.97,-4.51,-1.49,-4.48,-1.47,1.44,1.22,1.08,-3.08,-3.05,-3.02
114.10,-4.43,-1.39,-4.45,-1.40,1.37,1.16,1.04,-3.06,-3.08,-3.04
115.24,-4.39,-1.31,-4.40,-1.32,1.30,1.10,0.99,-3.09,-3.10,-3.08
116.39,-4.34,-1.24,-4.34,-1.23,1.24,1.05,0.95,-3.10,-3.10,-3.11
117.55,-4.29,-1.16,-4.27,-1.13,1.17,0.99,0.91,-3.12,-3.09,-3.13
118.73,-4.19,-1.03,-4.20,-1.05,1.11,0.94,0.87,-3.08,-3.10,-3.16
119.92,-4.14,-0.98,-4.18,-1.00,1.05,0.88,0.84,-3.09,-3.13,-3.16
121.12,-4.19,-1.00,-4.19,-1.00,0.99,0.83,0.80,-3.20,-3.19,-3.19
122.33,-4.22,-1.01,-4.19,-0.99,0.94,0.77,0.77,-3.28,-3.25,-3.21
123.55,-4.20,-0.99,-4.17,-0.95,0.91,0.72,0.73,-3.29,-3.26,-3.21
124.79,-4.08,-0.85,-4.12,-0.89,0.88,0.67,0.70,-3.21,-3.24,-3.24
126.03,-4.06,-0.81,-4.07,-0.82,0.85,0.61,0.66,-3.21,-3.22,-3.25
127.29,-4.05,-0.79,-4.04,-0.77,0.81,0.56,0.63,-3.24,-3.23,-3.26
128.57,-4.04,-0.75,-4.04,-0.76,0.77,0.51,0.60,-3.27,-3.27,-3.29
129.85,-4.04,-0.74,-4.04,-0.74,0.73,0.47,0.57,-3.31,-3.31,-3.30
131.15,-4.03,-0.72,-4.04,-0.73,0.69,0.42,0.54,-3.34,-3.36,-3.31
132.46,-4.03,-0.71,-4.01,-0.68,0.65,0.37,0.51,-3.38,-3.35,-3.32
133.79,-3.98,-0.66,-3.96,-0.62,0.62,0.33,0.48,-3.36,-3.33,-3.33
135.12,-3.86,-0.50,-3.92,-0.57,0.60,0.28,0.46,-3.26,-3.32,-3.36
136.48,-3.90,-0.54,-3.89,-0.53,0.57,0.24,0.43,-3.33,-3.32,-3.36
137.84,-3.91,-0.53,-3.89,-0.51,0.54,0.20,0.40,-3.37,-3.35,-3.38
139.22,-3.91,-0.51,-3.93,-0.53,0.51,0.15,0.38,-3.40,-3.41,-3.41
140.61,-3.92,-0.50,-3.94,-0.52,0.48,0.12,0.35,-3.44,-3.45,-3.42
142.02,-3.96,-0.54,-3.92,-0.49,0.46,0.08,0.32,-3.51,-3.47,-3.42
143.44,-3.89,-0.45,-3.89,-0.45,0.43,0.04,0.30,-3.47,-3.46,-3.44
144.87,-3.82,-0.35,-3.85,-0.38,0.39,0.00,0.27,-3.43,-3.46,-3.47
146.32,-3.81,-0.32,-3.81,-0.32,0.35,-0.03,0.25,-3.47,-3.47,-3.49
147.78,-3.81,-0.29,-3.80,-0.28,0.30,-0.07,0.23,-3.51,-3.51,-3.52
149.26,-3.81,-0.26,-3.81,-0.25,0.24,-0.10,0.20,-3.57,-3.57,-3.55
150.75,-3.81,-0.20,-3.81,-0.21,0.20,-0.13,0.18,-3.61,-3.61,-3.61
152.26,-3.81,-0.16,-3.81,-0.15,0.16,-0.16,0.15,-3.65,-3.65,-3.65
153.78,-3.81,-0.10,-3.81,-0.10,0.12,-0.19,0.13,-3.69,-3.69,-3.71
155.32,-3.81,-0.04,-3.84,-0.07,0.08,-0.22,0.11,-3.73,-3.76,-3.77
156.88,-3.87,-0.05,-3.88,-0.05,0.04,-0.24,0.08,-3.84,-3.84,-3.82
158.44,-3.94,-0.05,-3.91,-0.02,-0.00,-0.27,0.06,-3.95,-3.91,-3.89
160.03,-3.93,0.02,-3.93,0.02,-0.04,-0.30,0.03,-3.97,-3.97,-3.96
161.63,-3.91,0.10,-3.92,0.09,-0.07,-0.32,0.01,-3.98,-4.00,-4.01
163.24,-3.91,0.16,-3.91,0.15,-0.11,-0.34,-0.01,-4.02,-4.02,-4.07
164.88,-3.91,0.19,-3.93,0.17,-0.16,-0.36,-0.04,-4.07,-4.09,-4.10
166.53,-3.94,0.20,-3.94,0.19,-0.22,-0.38,-0.06,-4.16,-4.16,-4.14
168.19,-3.97,0.19,-3.95,0.22,-0.28,-0.40,-0.09,-4.25,-4.22,-4.16
169.87,-3.91,0.28,-3.91,0.28,-0.33,-0.42,-0.11,-4.24,-4.24,-4.19
171.57,-3.85,0.36,-3.83,0.37,-0.37,-0.44,-0.14,-4.22,-4.21,-4.21
173.29,-3.74,0.48,-3.76,0.46,-0.40,-0.45,-0.16,-4.15,-4.16,-4.22
175.02,-3.69,0.53,-3.72,0.51,-0.43,-0.47,-0.19,-4.12,-4.15,-4.22
176.77,-3.73,0.50,-3.71,0.52,-0.46,-0.48,-0.21,-4.19,-4.17,-4.23
178.54,-3.75,0.49,-3.74,0.49,-0.48,-0.50,-0.24,-4.23,-4.22,-4.24
180.32,-3.75,0.47,-3.78,0.45,-0.50,-0.51,-0.26,-4.26,-4.28,-4.22
182.13,-3.78,0.44,-3.77,0.45,-0.52,-0.52,-0.29,-4.30,-4.29,-4.22
183.95,-3.77,0.45,-3.73,0.49,-0.54,-0.54,-0.32,-4.31,-4.27,-4.22
185.79,-3.64,0.58,-3.68,0.55,-0.56,-0.55,-0.34,-4.20,-4.23,-4.22
187.65,-3.61,0.63,-3.62,0.61,-0.58,-0.56,-0.37,-4.20,-4.21,-4.24
189.52,-3.59,0.65,-3.58,0.66,-0.62,-0.56,-0.40,-4.21,-4.21,-4.24
191.42,-3.58,0.67,-3.58,0.68,-0.67,-0.57,-0.42,-4.25,-4.24,-4.25
193.33,-3.56,0.71,-3.56,0.70,-0.71,-0.58,-0.45,-4.27,-4.27,-4.27
195.27,-3.55,0.73,-3.55,0.73,-0.74,-0.59,-0.48,-4.29,-4.29,-4.28
197.22,-3.54,0.76,-3.54,0.76,-0.76,-0.59,-0.51,-4.30,-4.30,-4.30
199.19,-3.52,0.80,-3.52,0.79,-0.78,-0.60,-0.54,-4.30,-4.30,-4.32
201.18,-3.52,0.81,-3.52,0.82,-0.80,-0.61,-0.56,-4.33,-4.32,-4.33
203.19,-3.51,0.83,-3.53,0.82,-0.83,-0.61,-0.59,-4.35,-4.36,-4.34
205.23,-3.53,0.84,-3.53,0.83,-0.87,-0.62,-0.62,-4.40,-4.40,-4.37
207.28,-3.55,0.82,-3.51,0.87,-0.90,-0.62,-0.65,-4.45,-4.41,-4.37
209.35,-3.46,0.94,-3.48,0.93,-0.93,-0.62,-0.67,-4.39,-4.41,-4.40
211.44,-3.41,1.01,-3.44,0.98,-0.96,-0.63,-0.70,-4.37,-4.40,-4.42
213.56,-3.42,1.01,-3.41,1.02,-0.99,-0.63,-0.73,-4.41,-4.40,-4.43
215.69,-3.42,1.02,-3.42,1.02,-1.01,-0.63,-0.75,-4.43,-4.42,-4.44
217.85,-3.42,1.03,-3.43,1.03,-1.03,-0.63,-0.78,-4.45,-4.45,-4.45
220.03,-3.43,1.03,-3.43,1.03,-1.04,-0.63,-0.80,-4.47,-4.47,-4.46
222.23,-3.43,1.04,-3.43,1.04,-1.04,-0.63,-0.83,-4.47,-4.47,-4.47
224.45,-3.43,1.03,-3.43,1.03,-1.04,-0.64,-0.85,-4.47,-4.47,-4.46
226.70,-3.43,1.03,-3.43,1.03,-1.03,-0.64,-0.87,-4.46,-4.46,-4.46
228.96,-3.43,1.02,-3.43,1.02,-1.02,-0.64,-0.89,-4.45,-4.45,-4.45
231.25,-3.42,1.02,-3.42,1.02,-1.01,-0.64,-0.91,-4.43,-4.43,-4.44
233.57,-3.41,1.02,-3.41,1.02,-1.01,-0.64,-0.93,-4.42,-4.43,-4.43
235.90,-3.40,1.01,-3.41,1.00,-1.02,-0.64,-0.94,-4.42,-4.43,-4.41
238.26,-3.40,0.99,-3.39,1.00,-1.02,-0.63,-0.96,-4.42,-4.42,-4.39
240.64,-3.38,0.98,-3.35,1.01,-1.03,-0.63,-0.97,-4.41,-4.38,-4.37
243.05,-3.28,1.05,-3.30,1.03,-1.04,-0.63,-0.98,-4.32,-4.34,-4.33
245.48,-3.23,1.08,-3.24,1.07,-1.05,-0.63,-0.99,-4.29,-4.30,-4.31
247.93,-3.20,1.08,-3.20,1.09,-1.07,-0.63,-0.99,-4.27,-4.26,-4.28
250.41,-3.18,1.09,-3.18,1.08,-1.07,-0.63,-1.00,-4.25,-4.25,-4.27
252.92,-3.17,1.06,-3.17,1.07,-1.07,-0.63,-1.00,-4.24,-4.23,-4.23
255.45,-3.15,1.06,-3.15,1.06,-1.05,-0.63,-1.00,-4.20,-4.20,-4.21
258.00,-3.14,1.05,-3.14,1.05,-1.03,-0.62,-1.00,-4.17,-4.17,-4.19
260.58,-3.14,1.03,-3.16,1.01,-1.00,-0.62,-1.00,-4.14,-4.15,-4.18
263.19,-3.19,0.96,-3.19,0.96,-0.96,-0.62,-1.00,-4.15,-4.15,-4.15
265.82,-3.24,0.89,-3.23,0.91,-0.92,-0.62,-0.99,-4.16,-4.15,-4.13
268.48,-3.25,0.86,-3.25,0.86,-0.88,-0.62,-0.98,-4.14,-4.13,-4.11
271.16,-3.25,0.83,-3.26,0.83,-0.85,-0.61,-0.97,-4.10,-4.10,-4.08
273.87,-3.25,0.81,-3.25,0.81,-0.81,-0.61,-0.96,-4.06,-4.06,-4.07
276.61,-3.25,0.79,-3.25,0.79,-0.78,-0.61,-0.95,-4.03,-4.03,-4.04
279.38,-3.25,0.76,-3.25,0.76,-0.76,-0.61,-0.94,-4.01,-4.01,-4.01
282.17,-3.25,0.74,-3.25,0.74,-0.74,-0.61,-0.93,-3.99,-3.99,-4.00
284.99,-3.25,0.71,-3.25,0.71,-0.72,-0.60,-0.91,-3.97,-3.97,-3.96
287.84,-3.24,0.69,-3.24,0.69,-0.69,-0.60,-0.90,-3.93,-3.93,-3.93
290.72,-3.23,0.66,-3.22,0.67,-0.66,-0.60,-0.88,-3.89,-3.88,-3.89
293.63,-3.21,0.66,-3.22,0.65,-0.63,-0.60,-0.86,-3.84,-3.84,-3.87
296.57,-3.20,0.63,-3.23,0.61,-0.59,-0.60,-0.85,-3.79,-3.82,-3.83
299.53,-3.27,0.54,-3.25,0.56,-0.56,-0.59,-0.83,-3.83,-3.81,-3.81
302.53,-3.28,0.50,-3.27,0.51,-0.53,-0.59,-0.81,-3.81,-3.80,-3.79
305.55,-3.27,0.48,-3.28,0.48,-0.50,-0.59,-0.79,-3.77,-3.78,-3.75
308.61,-3.26,0.47,-3.26,0.47,-0.47,-0.59,-0.77,-3.73,-3.73,-3.73
311.69,-3.25,0.46,-3.25,0.45,-0.45,-0.59,-0.75,-3.70,-3.70,-3.71
314.81,-3.25,0.42,-3.25,0.43,-0.43,-0.58,-0.74,-3.68,-3.68,-3.67
317.96,-3.25,0.42,-3.25,0.42,-0.41,-0.58,-0.72,-3.66,-3.66,-3.67
321.14,-3.24,0.41,-3.25,0.40,-0.39,-0.58,-0.70,-3.64,-3.64,-3.65
324.35,-3.25,0.39,-3.25,0.39,-0.38,-0.58,-0.68,-3.63,-3.63,-3.64
327.59,-3.25,0.37,-3.25,0.38,-0.37,-0.58,-0.66,-3.63,-3.62,-3.62
330.87,-3.25,0.36,-3.25,0.36,-0.37,-0.58,-0.65,-3.62,-3.62,-3.61
334.18,-3.25,0.36,-3.26,0.35,-0.37,-0.58,-0.63,-3.62,-3.62,-3.61
337.52,-3.25,0.35,-3.24,0.36,-0.37,-0.58,-0.61,-3.62,-3.61,-3.60
340.90,-3.22,0.36,-3.21,0.37,-0.38,-0.58,-0.60,-3.60,-3.59,-3.58
344.30,-3.16,0.41,-3.18,0.39,-0.38,-0.58,-0.58,-3.54,-3.56,-3.57
347.75,-3.15,0.41,-3.15,0.41,-0.39,-0.58,-0.56,-3.54,-3.54,-3.56
351.23,-3.15,0.40,-3.15,0.41,-0.40,-0.58,-0.55,-3.55,-3.54,-3.55
354.74,-3.15,0.40,-3.15,0.40,-0.41,-0.58,-0.53,-3.56,-3.56,-3.56
358.28,-3.15,0.40,-3.15,0.40,-0.41,-0.58,-0.52,-3.56,-3.56,-3.55
361.87,-3.14,0.41,-3.14,0.40,-0.42,-0.58,-0.50,-3.56,-3.56,-3.55
365.49,-3.13,0.41,-3.14,0.41,-0.42,-0.58,-0.49,-3.55,-3.55,-3.54
369.14,-3.13,0.41,-3.12,0.42,-0.41,-0.58,-0.48,-3.54,-3.53,-3.54
372.83,-3.12,0.42,-3.12,0.42,-0.40,-0.58,-0.46,-3.52,-3.52,-3.54
376.56,-3.11,0.43,-3.12,0.41,-0.39,-0.58,-0.45,-3.51,-3.52,-3.54
380.33,-3.13,0.39,-3.14,0.39,-0.39,-0.58,-0.44,-3.52,-3.53,-3.52
384.13,-3.18,0.35,-3.17,0.37,-0.38,-0.58,-0.43,-3.56,-3.54,-3.53
387.97,-3.19,0.34,-3.19,0.35,-0.36,-0.58,-0.42,-3.56,-3.55,-3.54
391.85,-3.19,0.35,-3.20,0.34,-0.35,-0.58,-0.41,-3.55,-3.55,-3.54
395.77,-3.19,0.34,-3.19,0.34,-0.34,-0.59,-0.40,-3.54,-3.54,-3.53
399.73,-3.19,0.34,-3.19,0.34,-0.34,-0.59,-0.39,-3.53,-3.53,-3.53
403.72,-3.19,0.35,-3.19,0.34,-0.34,-0.59,-0.38,-3.53,-3.53,-3.54
407.76,-3.19,0.35,-3.19,0.34,-0.33,-0.59,-0.37,-3.53,-3.53,-3.54
411.84,-3.20,0.33,-3.20,0.34,-0.33,-0.60,-0.36,-3.53,-3.53,-3.53
415.96,-3.20,0.34,-3.20,0.34,-0.33,-0.60,-0.36,-3.54,-3.54,-3.54
420.12,-3.20,0.34,-3.20,0.34,-0.34,-0.60,-0.35,-3.54,-3.54,-3.54
424.32,-3.19,0.34,-3.20,0.34,-0.35,-0.61,-0.34,-3.54,-3.54,-3.53
