frequency,raw,error,smoothed,error_smoothed,equalization,parametric_eq,fixed_band_eq,equalized_raw,equalized_smoothed,target
20.00,16.93,14.88,16.93,14.88,-14.88,-14.82,-7.91,2.04,2.04,2.04
20.20,16.97,14.92,16.96,14.92,-14.92,-14.87,-8.08,2.04,2.04,2.04
20.40,17.00,14.96,17.00,14.97,-14.97,-14.91,-8.26,2.03,2.04,2.03
20.61,17.04,15.00,17.04,15.01,-15.01,-14.96,-8.44,2.03,2.03,2.03
20.81,17.08,15.05,17.07,15.05,-15.05,-15.01,-8.63,2.03,2.03,2.02
21.02,17.12,15.09,17.11,15.09,-15.09,-15.05,-8.82,2.03,2.02,2.02
21.23,17.14,15.12,17.14,15.13,-15.13,-15.10,-9.02,2.01,2.02,2.01
21.44,17.18,15.16,17.18,15.16,-15.17,-15.14,-9.22,2.01,2.01,2.01
21.66,17.21,15.20,17.21,15.20,-15.21,-15.18,-9.43,2.00,2.00,2.00
21.87,17.25,15.24,17.25,15.24,-15.24,-15.22,-9.64,2.00,2.00,2.00
22.09,17.28,15.28,17.28,15.28,-15.28,-15.27,-9.86,2.00,2.00,1.99
22.31,17.32,15.32,17.31,15.32,-15.32,-15.31,-10.09,2.00,2.00,1.99
22.54,17.35,15.35,17.35,15.36,-15.36,-15.35,-10.32,1.99,1.99,1.99
22.76,17.38,15.39,17.38,15.39,-15.39,-15.38,-10.56,1.99,1.99,1.98
22.99,17.41,15.42,17.41,15.43,-15.43,-15.42,-10.80,1.98,1.98,1.98
23.22,17.44,15.46,17.44,15.46,-15.46,-15.46,-11.05,1.98,1.98,1.97
23.45,17.47,15.49,17.47,15.49,-15.49,-15.50,-11.31,1.97,1.97,1.97
23.69,17.50,15.52,17.50,15.53,-15.53,-15.53,-11.57,1.97,1.97,1.97
23.92,17.53,15.56,17.53,15.56,-15.56,-15.57,-11.84,1.97,1.97,1.96
24.16,17.56,15.59,17.55,15.59,-15.59,-15.60,-12.12,1.97,1.97,1.96
24.40,17.58,15.61,17.58,15.62,-15.62,-15.64,-12.41,1.96,1.96,1.96
24.65,17.61,15.64,17.61,15.65,-15.65,-15.67,-12.70,1.96,1.96,1.96
24.89,17.63,15.67,17.63,15.67,-15.67,-15.70,-13.01,1.95,1.96,1.95
25.14,17.66,15.70,17.65,15.70,-15.70,-15.73,-13.32,1.96,1.96,1.95
25.39,17.68,15.72,17.68,15.72,-15.72,-15.76,-13.64,1.95,1.95,1.95
25.65,17.70,15.74,17.70,15.75,-15.75,-15.79,-13.96,1.95,1.95,1.95
25.91,17.73,15.77,17.72,15.77,-15.77,-15.82,-14.30,1.95,1.95,1.95
26.16,17.75,15.79,17.75,15.79,-15.80,-15.84,-14.64,1.95,1.95,1.95
26.43,17.77,15.81,17.77,15.82,-15.82,-15.87,-14.99,1.95,1.95,1.95
26.69,17.79,15.84,17.79,15.84,-15.84,-15.89,-15.34,1.95,1.95,1.94
26.96,17.81,15.86,17.81,15.86,-15.86,-15.92,-15.71,1.95,1.95,1.94
27.23,17.83,15.88,17.82,15.88,-15.88,-15.94,-16.07,1.95,1.94,1.94
27.50,17.84,15.89,17.84,15.90,-15.90,-15.96,-16.45,1.94,1.94,1.94
27.77,17.86,15.91,17.86,15.92,-15.92,-15.98,-16.82,1.94,1.94,1.94
28.05,17.88,15.94,17.87,15.94,-15.94,-16.00,-17.19,1.94,1.93,1.93
28.33,17.89,15.95,17.89,15.96,-15.96,-16.02,-17.56,1.93,1.93,1.93
28.62,17.91,15.97,17.91,15.98,-15.97,-16.04,-17.93,1.93,1.93,1.93
28.90,17.92,15.99,17.92,15.99,-15.99,-16.06,-18.28,1.93,1.93,1.92
29.19,17.94,16.01,17.93,16.01,-16.01,-16.07,-18.62,1.93,1.92,1.92
29.48,17.94,16.01,17.94,16.02,-16.02,-16.09,-18.94,1.91,1.92,1.92
29.78,17.96,16.04,17.95,16.03,-16.03,-16.10,-19.23,1.92,1.92,1.91
30.08,17.96,16.04,17.96,16.05,-16.04,-16.11,-19.49,1.91,1.91,1.91
30.38,17.97,16.05,17.97,16.06,-16.05,-16.12,-19.71,1.91,1.91,1.91
30.68,17.98,16.06,17.97,16.06,-16.06,-16.14,-19.89,1.92,1.91,1.91
30.99,17.98,16.06,17.98,16.07,-16.06,-16.14,-20.02,1.91,1.91,1.91
31.30,17.99,16.07,17.98,16.07,-16.07,-16.15,-20.10,1.92,1.92,1.91
31.61,17.99,16.06,17.99,16.07,-16.07,-16.16,-20.13,1.91,1.92,1.92
31.93,18.00,16.07,17.99,16.07,-16.07,-16.17,-20.11,1.92,1.92,1.92
32.24,18.00,16.07,18.00,16.08,-16.08,-16.17,-20.05,1.92,1.92,1.92
32.57,18.01,16.08,18.00,16.08,-16.08,-16.17,-19.93,1.93,1.93,1.92
32.89,18.01,16.08,18.01,16.08,-16.08,-16.18,-19.79,1.93,1.93,1.92
33.22,18.01,16.08,18.01,16.08,-16.08,-16.18,-19.61,1.92,1.92,1.92
33.55,18.01,16.08,18.01,16.08,-16.09,-16.18,-19.40,1.92,1.92,1.92
33.89,18.01,16.08,18.01,16.09,-16.09,-16.18,-19.18,1.92,1.92,1.92
34.23,18.01,16.09,18.01,16.09,-16.09,-16.18,-18.94,1.92,1.92,1.91
34.57,18.01,16.09,18.00,16.09,-16.09,-16.17,-18.69,1.92,1.91,1.91
34.92,18.00,16.09,18.00,16.10,-16.09,-16.17,-18.44,1.90,1.91,1.90
35.27,17.99,16.09,17.99,16.09,-16.09,-16.16,-18.18,1.89,1.90,1.89
35.62,17.99,16.10,17.98,16.09,-16.10,-16.16,-17.93,1.89,1.88,1.88
35.97,17.97,16.08,17.97,16.09,-16.10,-16.15,-17.68,1.87,1.88,1.88
36.33,17.97,16.09,17.97,16.10,-16.10,-16.14,-17.43,1.87,1.87,1.87
36.70,17.96,16.10,17.95,16.10,-16.10,-16.13,-17.19,1.86,1.85,1.85
37.06,17.95,16.10,17.95,16.10,-16.10,-16.12,-16.96,1.85,1.85,1.84
37.43,17.93,16.09,17.93,16.10,-16.10,-16.11,-16.74,1.83,1.84,1.83
37.81,17.93,16.10,17.92,16.10,-16.10,-16.09,-16.53,1.83,1.83,1.82
38.19,17.91,16.09,17.91,16.09,-16.09,-16.08,-16.32,1.81,1.82,1.81
38.57,17.90,16.08,17.90,16.09,-16.09,-16.06,-16.13,1.81,1.81,1.81
38.95,17.88,16.07,17.88,16.08,-16.08,-16.05,-15.94,1.80,1.80,1.80
39.34,17.87,16.07,17.87,16.07,-16.07,-16.03,-15.77,1.80,1.80,1.79
39.74,17.85,16.05,17.85,16.06,-16.05,-16.01,-15.61,1.79,1.79,1.79
40.14,17.83,16.04,17.83,16.04,-16.04,-15.99,-15.45,1.79,1.79,1.78
40.54,17.80,16.01,17.80,16.02,-16.02,-15.97,-15.31,1.78,1.78,1.78
40.94,17.79,16.00,17.78,16.00,-16.00,-15.94,-15.18,1.79,1.78,1.78
41.35,17.77,15.98,17.76,15.98,-15.98,-15.92,-15.06,1.79,1.78,1.78
41.76,17.74,15.95,17.74,15.96,-15.96,-15.90,-14.95,1.78,1.78,1.78
42.18,17.72,15.93,17.71,15.93,-15.93,-15.87,-14.84,1.78,1.78,1.78
42.60,17.69,15.90,17.69,15.91,-15.91,-15.84,-14.75,1.78,1.78,1.78
43.03,17.67,15.88,17.66,15.88,-15.88,-15.81,-14.67,1.79,1.78,1.78
43.46,17.64,15.85,17.64,15.85,-15.85,-15.78,-14.59,1.79,1.79,1.78
43.90,17.61,15.82,17.61,15.82,-15.82,-15.75,-14.53,1.79,1.79,1.78
44.33,17.58,15.78,17.58,15.79,-15.79,-15.72,-14.48,1.79,1.79,1.79
44.78,17.55,15.75,17.54,15.75,-15.75,-15.69,-14.43,1.80,1.79,1.79
45.23,17.51,15.71,17.51,15.71,-15.72,-15.66,-14.39,1.79,1.80,1.79
45.68,17.48,15.67,17.48,15.68,-15.68,-15.62,-14.37,1.80,1.80,1.80
46.13,17.45,15.64,17.44,15.64,-15.64,-15.59,-14.35,1.80,1.80,1.80
46.60,17.41,15.60,17.41,15.61,-15.61,-15.55,-14.34,1.80,1.80,1.80
47.06,17.38,15.57,17.37,15.57,-15.57,-15.51,-14.34,1.80,1.80,1.80
47.53,17.34,15.53,17.34,15.54,-15.54,-15.47,-14.35,1.80,1.80,1.80
48.01,17.31,15.50,17.30,15.50,-15.50,-15.43,-14.36,1.80,1.80,1.80
48.49,17.27,15.47,17.27,15.47,-15.47,-15.39,-14.38,1.80,1.80,1.79
48.97,17.23,15.43,17.23,15.44,-15.43,-15.35,-14.42,1.79,1.80,1.79
49.46,17.19,15.39,17.19,15.40,-15.40,-15.31,-14.45,1.79,1.79,1.79
49.96,17.15,15.36,17.14,15.36,-15.36,-15.27,-14.50,1.79,1.78,1.78
50.46,17.10,15.31,17.10,15.32,-15.32,-15.22,-14.55,1.78,1.78,1.78
50.96,17.06,15.28,17.06,15.28,-15.28,-15.18,-14.61,1.77,1.77,1.77
51.47,17.02,15.24,17.01,15.24,-15.24,-15.13,-14.67,1.77,1.77,1.77
51.99,16.97,15.20,16.97,15.21,-15.20,-15.08,-14.74,1.77,1.77,1.76
52.51,16.93,15.16,16.92,15.16,-15.16,-15.03,-14.81,1.77,1.76,1.76
53.03,16.88,15.11,16.87,15.12,-15.12,-14.99,-14.89,1.76,1.76,1.76
53.56,16.82,15.06,16.82,15.07,-15.07,-14.94,-14.97,1.75,1.76,1.75
54.10,16.78,15.02,16.77,15.02,-15.02,-14.89,-15.05,1.76,1.75,1.75
54.64,16.72,14.96,16.72,14.97,-14.97,-14.83,-15.13,1.75,1.76,1.75
55.18,16.68,14.92,16.67,14.92,-14.91,-14.78,-15.21,1.77,1.76,1.75
55.74,16.62,14.85,16.62,14.86,-14.86,-14.73,-15.29,1.76,1.76,1.76
56.29,16.56,14.79,16.56,14.80,-14.80,-14.67,-15.36,1.76,1.76,1.76
56.86,16.50,14.73,16.50,14.74,-14.74,-14.62,-15.43,1.76,1.76,1.76
57.42,16.45,14.68,16.44,14.68,-14.68,-14.56,-15.50,1.76,1.76,1.76
58.00,16.39,14.62,16.39,14.62,-14.62,-14.51,-15.56,1.76,1.76,1.76
58.58,16.34,14.57,16.33,14.57,-14.57,-14.45,-15.60,1.77,1.77,1.76
59.16,16.27,14.50,16.27,14.51,-14.51,-14.39,-15.64,1.76,1.76,1.76
59.76,16.22,14.45,16.21,14.45,-14.45,-14.33,-15.66,1.76,1.76,1.76
60.35,16.16,14.39,16.16,14.40,-14.40,-14.28,-15.67,1.76,1.76,1.76
60.96,16.10,14.34,16.10,14.34,-14.34,-14.22,-15.67,1.76,1.76,1.75
61.57,16.04,14.28,16.04,14.28,-14.29,-14.16,-15.65,1.75,1.75,1.75
62.18,15.98,14.22,15.98,14.23,-14.23,-14.09,-15.61,1.75,1.75,1.75
62.80,15.93,14.18,15.92,14.17,-14.17,-14.03,-15.56,1.75,1.75,1.74
63.43,15.86,14.11,15.86,14.12,-14.12,-13.97,-15.49,1.74,1.74,1.74
64.07,15.80,14.06,15.80,14.06,-14.06,-13.91,-15.40,1.74,1.74,1.73
64.71,15.74,14.00,15.73,14.00,-14.00,-13.84,-15.29,1.74,1.73,1.73
65.35,15.67,13.93,15.67,13.94,-13.94,-13.78,-15.17,1.73,1.74,1.73
66.01,15.61,13.87,15.61,13.87,-13.87,-13.71,-15.04,1.74,1.74,1.73
66.67,15.55,13.81,15.54,13.81,-13.81,-13.65,-14.89,1.74,1.73,1.73
67.33,15.47,13.73,15.47,13.74,-13.74,-13.58,-14.73,1.73,1.73,1.73
68.01,15.40,13.66,15.40,13.67,-13.67,-13.52,-14.57,1.73,1.73,1.73
68.69,15.34,13.60,15.33,13.60,-13.60,-13.45,-14.39,1.73,1.73,1.73
69.37,15.27,13.53,15.27,13.53,-13.53,-13.38,-14.21,1.73,1.73,1.73
70.07,15.20,13.46,15.20,13.47,-13.47,-13.31,-14.02,1.73,1.73,1.73
70.77,15.13,13.39,15.13,13.40,-13.40,-13.25,-13.83,1.73,1.73,1.73
71.48,15.06,13.33,15.05,13.33,-13.32,-13.18,-13.63,1.73,1.73,1.72
72.19,14.98,13.25,14.98,13.26,-13.25,-13.11,-13.44,1.72,1.73,1.72
72.91,14.91,13.18,14.90,13.18,-13.18,-13.04,-13.24,1.73,1.72,1.72
73.64,14.83,13.10,14.83,13.10,-13.11,-12.97,-13.05,1.72,1.72,1.72
74.38,14.76,13.02,14.76,13.03,-13.03,-12.90,-12.86,1.73,1.73,1.73
75.12,14.69,12.95,14.68,12.95,-12.95,-12.83,-12.67,1.73,1.73,1.73
75.87,14.61,12.87,14.61,12.88,-12.88,-12.75,-12.48,1.73,1.73,1.73
76.63,14.54,12.80,14.53,12.80,-12.80,-12.68,-12.30,1.74,1.73,1.73
77.40,14.46,12.72,14.46,12.72,-12.72,-12.61,-12.12,1.74,1.73,1.73
78.17,14.38,12.64,14.38,12.64,-12.64,-12.54,-11.95,1.73,1.73,1.73
78.95,14.30,12.56,14.30,12.56,-12.56,-12.47,-11.78,1.73,1.73,1.73
79.74,14.22,12.48,14.22,12.48,-12.48,-12.39,-11.62,1.73,1.73,1.73
80.54,14.14,12.40,14.14,12.40,-12.40,-12.32,-11.47,1.73,1.74,1.73
81.35,14.07,12.32,14.06,12.32,-12.32,-12.24,-11.32,1.75,1.74,1.74
82.16,13.98,12.23,13.98,12.24,-12.24,-12.17,-11.18,1.74,1.74,1.74
82.98,13.90,12.15,13.90,12.15,-12.16,-12.10,-11.04,1.74,1.75,1.74
83.81,13.83,12.07,13.82,12.07,-12.07,-12.02,-10.91,1.76,1.75,1.75
84.65,13.75,11.99,13.74,11.99,-11.99,-11.95,-10.79,1.76,1.76,1.75
85.50,13.66,11.90,13.66,11.90,-11.90,-11.87,-10.68,1.76,1.76,1.75
86.35,13.58,11.81,13.57,11.82,-11.82,-11.79,-10.57,1.76,1.76,1.76
87.22,13.49,11.72,13.49,11.73,-11.73,-11.72,-10.47,1.76,1.76,1.76
88.09,13.41,11.64,13.41,11.64,-11.64,-11.64,-10.38,1.76,1.77,1.76
88.97,13.33,11.55,13.33,11.56,-11.55,-11.57,-10.29,1.77,1.77,1.77
89.86,13.25,11.47,13.24,11.47,-11.47,-11.49,-10.21,1.78,1.78,1.77
90.76,13.16,11.37,13.16,11.38,-11.38,-11.41,-10.14,1.78,1.78,1.78
91.66,13.08,11.29,13.07,11.29,-11.29,-11.34,-10.07,1.79,1.78,1.78
92.58,12.99,11.20,12.99,11.20,-11.20,-11.26,-10.01,1.78,1.79,1.78
93.51,12.91,11.11,12.90,11.11,-11.11,-11.18,-9.96,1.79,1.79,1.79
94.44,12.82,11.02,12.82,11.03,-11.03,-11.10,-9.91,1.79,1.79,1.79
95.39,12.74,10.94,12.73,10.94,-10.94,-11.03,-9.87,1.80,1.79,1.79
96.34,12.65,10.85,12.65,10.85,-10.85,-10.95,-9.84,1.79,1.79,1.79
97.30,12.56,10.76,12.56,10.77,-10.77,-10.87,-9.81,1.79,1.79,1.79
98.28,12.48,10.68,12.47,10.68,-10.69,-10.79,-9.78,1.79,1.79,1.79
99.26,12.39,10.60,12.39,10.60,-10.60,-10.71,-9.76,1.79,1.79,1.78
100.25,12.31,10.52,12.30,10.52,-10.52,-10.64,-9.75,1.79,1.79,1.78
101.25,12.22,10.43,12.22,10.44,-10.44,-10.56,-9.74,1.78,1.78,1.78
102.27,12.13,10.35,12.13,10.35,-10.35,-10.48,-9.73,1.77,1.78,1.77
103.29,12.04,10.26,12.04,10.27,-10.27,-10.40,-9.73,1.77,1.77,1.77
104.32,11.96,10.19,11.95,10.19,-10.18,-10.32,-9.73,1.77,1.77,1.76
105.37,11.87,10.10,11.87,10.10,-10.10,-10.24,-9.74,1.77,1.77,1.76
106.42,11.78,10.01,11.78,10.02,-10.01,-10.16,-9.74,1.76,1.76,1.76
107.48,11.69,9.92,11.69,9.93,-9.93,-10.09,-9.75,1.76,1.76,1.76
108.56,11.60,9.84,11.60,9.84,-9.84,-10.01,-9.76,1.75,1.75,1.75
109.64,11.51,9.75,11.51,9.75,-9.76,-9.93,-9.76,1.75,1.75,1.75
110.74,11.42,9.66,11.42,9.67,-9.67,-9.85,-9.77,1.75,1.75,1.75
111.85,11.34,9.59,11.33,9.59,-9.58,-9.77,-9.78,1.75,1.75,1.74
112.97,11.25,9.50,11.25,9.50,-9.50,-9.69,-9.78,1.75,1.75,1.74
114.10,11.16,9.42,11.15,9.42,-9.42,-9.61,-9.78,1.74,1.74,1.73
115.24,11.06,9.32,11.06,9.33,-9.33,-9.53,-9.78,1.72,1.73,1.73
116.39,10.97,9.25,10.97,9.25,-9.25,-9.45,-9.77,1.71,1.71,1.71
117.55,10.88,9.17,10.88,9.17,-9.18,-9.37,-9.75,1.70,1.70,1.70
118.73,10.79,9.09,10.79,9.10,-9.10,-9.29,-9.73,1.69,1.69,1.69
119.92,10.70,9.02,10.70,9.02,-9.02,-9.21,-9.71,1.67,1.67,1.67
121.12,10.61,8.95,10.61,8.95,-8.95,-9.13,-9.68,1.65,1.65,1.65
122.33,10.52,8.88,10.52,8.88,-8.88,-9.06,-9.63,1.63,1.64,1.63
123.55,10.43,8.81,10.43,8.81,-8.81,-8.98,-9.59,1.61,1.61,1.61
124.79,10.34,8.74,10.33,8.74,-8.74,-8.90,-9.53,1.59,1.59,1.59
126.03,10.24,8.67,10.24,8.67,-8.68,-8.82,-9.46,1.56,1.57,1.56
127.29,10.15,8.60,10.15,8.60,-8.60,-8.74,-9.39,1.54,1.54,1.54
128.57,10.06,8.53,10.06,8.53,-8.53,-8.66,-9.31,1.53,1.53,1.52
129.85,9.97,8.46,9.97,8.46,-8.46,-8.58,-9.22,1.51,1.51,1.50
131.15,9.88,8.38,9.87,8.38,-8.38,-8.50,-9.12,1.50,1.50,1.49
132.46,9.78,8.29,9.78,8.30,-8.30,-8.42,-9.02,1.48,1.48,1.48
133.79,9.69,8.21,9.69,8.21,-8.22,-8.34,-8.91,1.47,1.47,1.47
135.12,9.60,8.13,9.60,8.13,-8.13,-8.26,-8.79,1.46,1.46,1.46
136.48,9.51,8.04,9.51,8.05,-8.05,-8.18,-8.67,1.46,1.46,1.46
137.84,9.42,7.96,9.42,7.96,-7.96,-8.11,-8.54,1.46,1.46,1.45
139.22,9.33,7.87,9.32,7.87,-7.87,-8.03,-8.41,1.46,1.45,1.45
140.61,9.23,7.77,9.23,7.78,-7.78,-7.95,-8.27,1.44,1.45,1.45
142.02,9.15,7.69,9.14,7.69,-7.69,-7.87,-8.14,1.46,1.45,1.45
143.44,9.06,7.60,9.06,7.60,-7.60,-7.79,-8.00,1.46,1.45,1.45
144.87,8.97,7.51,8.97,7.51,-7.51,-7.71,-7.86,1.46,1.46,1.45
146.32,8.88,7.42,8.88,7.42,-7.42,-7.63,-7.72,1.46,1.46,1.45
147.78,8.79,7.32,8.79,7.33,-7.33,-7.56,-7.57,1.46,1.46,1.46
149.26,8.70,7.23,8.70,7.23,-7.24,-7.48,-7.43,1.46,1.46,1.46
150.75,8.61,7.14,8.61,7.14,-7.15,-7.40,-7.29,1.46,1.46,1.46
152.26,8.53,7.06,8.52,7.06,-7.06,-7.32,-7.15,1.47,1.47,1.46
153.78,8.44,6.97,8.44,6.97,-6.97,-7.25,-7.02,1.46,1.47,1.46
155.32,8.36,6.89,8.35,6.89,-6.89,-7.17,-6.88,1.47,1.47,1.46
156.88,8.26,6.79,8.26,6.80,-6.80,-7.09,-6.75,1.46,1.46,1.46
158.44,8.18,6.71,8.18,6.71,-6.72,-7.01,-6.62,1.46,1.46,1.46
160.03,8.10,6.63,8.09,6.63,-6.63,-6.94,-6.49,1.46,1.46,1.46
161.63,8.01,6.54,8.01,6.55,-6.55,-6.86,-6.37,1.46,1.46,1.46
163.24,7.94,6.47,7.93,6.47,-6.47,-6.78,-6.24,1.47,1.47,1.46
164.88,7.86,6.39,7.85,6.39,-6.39,-6.70,-6.13,1.47,1.47,1.46
166.53,7.78,6.30,7.78,6.31,-6.31,-6.63,-6.01,1.47,1.47,1.47
168.19,7.70,6.22,7.70,6.23,-6.23,-6.55,-5.90,1.47,1.47,1.47
169.87,7.63,6.15,7.63,6.15,-6.15,-6.48,-5.80,1.47,1.47,1.47
171.57,7.56,6.07,7.56,6.08,-6.08,-6.40,-5.69,1.48,1.48,1.48
173.29,7.50,6.01,7.49,6.01,-6.01,-6.32,-5.59,1.49,1.49,1.48
175.02,7.42,5.93,7.42,5.94,-5.93,-6.25,-5.50,1.48,1.49,1.48
176.77,7.36,5.86,7.36,5.86,-5.86,-6.17,-5.41,1.49,1.49,1.49
178.54,7.29,5.79,7.29,5.79,-5.79,-6.10,-5.32,1.49,1.50,1.49
180.32,7.23,5.72,7.22,5.72,-5.72,-6.02,-5.23,1.50,1.50,1.50
182.13,7.16,5.65,7.16,5.65,-5.65,-5.95,-5.15,1.50,1.50,1.50
183.95,7.09,5.58,7.09,5.59,-5.59,-5.87,-5.08,1.50,1.51,1.50
185.79,7.04,5.52,7.03,5.52,-5.52,-5.80,-5.00,1.52,1.51,1.51
187.65,6.97,5.45,6.97,5.45,-5.45,-5.72,-4.93,1.51,1.51,1.51
189.52,6.90,5.38,6.91,5.39,-5.39,-5.65,-4.87,1.51,1.52,1.51
191.42,6.85,5.32,6.84,5.32,-5.32,-5.57,-4.81,1.52,1.52,1.52
193.33,6.79,5.26,6.78,5.26,-5.26,-5.50,-4.75,1.53,1.53,1.52
195.27,6.72,5.19,6.72,5.20,-5.19,-5.43,-4.69,1.53,1.53,1.52
197.22,6.66,5.13,6.65,5.13,-5.12,-5.35,-4.64,1.53,1.53,1.52
199.19,6.59,5.05,6.59,5.06,-5.06,-5.28,-4.58,1.53,1.53,1.53
201.18,6.52,4.98,6.52,4.99,-4.99,-5.21,-4.54,1.53,1.53,1.53
203.19,6.46,4.92,6.45,4.92,-4.92,-5.13,-4.49,1.53,1.53,1.53
205.23,6.39,4.85,6.39,4.86,-4.86,-5.06,-4.45,1.53,1.53,1.53
207.28,6.33,4.79,6.33,4.79,-4.79,-4.99,-4.41,1.54,1.53,1.53
209.35,6.26,4.72,6.26,4.73,-4.72,-4.92,-4.37,1.53,1.53,1.53
211.44,6.20,4.66,6.19,4.66,-4.66,-4.85,-4.33,1.54,1.53,1.53
213.56,6.13,4.59,6.13,4.59,-4.59,-4.77,-4.29,1.53,1.53,1.53
215.69,6.06,4.52,6.06,4.53,-4.53,-4.70,-4.26,1.53,1.54,1.53
217.85,6.00,4.46,5.99,4.46,-4.46,-4.63,-4.22,1.54,1.53,1.53
220.03,5.93,4.39,5.93,4.39,-4.39,-4.56,-4.19,1.54,1.53,1.53
222.23,5.86,4.32,5.86,4.32,-4.32,-4.49,-4.16,1.53,1.53,1.53
224.45,5.79,4.25,5.79,4.25,-4.26,-4.42,-4.12,1.53,1.53,1.53
226.70,5.72,4.18,5.72,4.19,-4.19,-4.35,-4.09,1.53,1.53,1.53
228.96,5.66,4.12,5.66,4.12,-4.12,-4.28,-4.06,1.53,1.53,1.53
231.25,5.60,4.06,5.59,4.06,-4.06,-4.21,-4.02,1.54,1.53,1.53
233.57,5.52,3.99,5.52,3.99,-3.99,-4.14,-3.99,1.53,1.53,1.52
235.90,5.45,3.92,5.45,3.92,-3.93,-4.07,-3.95,1.52,1.52,1.52
238.26,5.38,3.85,5.38,3.86,-3.86,-4.01,-3.92,1.52,1.52,1.52
240.64,5.31,3.79,5.31,3.79,-3.79,-3.94,-3.88,1.51,1.52,1.51
243.05,5.25,3.73,5.24,3.73,-3.73,-3.87,-3.84,1.52,1.52,1.51
245.48,5.18,3.66,5.17,3.66,-3.66,-3.80,-3.80,1.52,1.51,1.51
247.93,5.10,3.58,5.10,3.59,-3.59,-3.74,-3.75,1.51,1.51,1.51
250.41,5.04,3.52,5.03,3.52,-3.53,-3.67,-3.71,1.51,1.51,1.51
252.92,4.97,3.46,4.97,3.46,-3.46,-3.60,-3.66,1.51,1.51,1.50
255.45,4.90,3.39,4.90,3.39,-3.39,-3.54,-3.61,1.50,1.50,1.50
258.00,4.83,3.32,4.83,3.33,-3.33,-3.47,-3.56,1.50,1.50,1.50
260.58,4.76,3.26,4.76,3.26,-3.27,-3.40,-3.51,1.49,1.49,1.49
263.19,4.70,3.20,4.69,3.20,-3.20,-3.34,-3.45,1.49,1.49,1.49
265.82,4.63,3.14,4.63,3.14,-3.14,-3.27,-3.40,1.49,1.49,1.48
268.48,4.56,3.07,4.56,3.08,-3.08,-3.21,-3.34,1.48,1.48,1.48
271.16,4.50,3.02,4.49,3.02,-3.01,-3.15,-3.28,1.48,1.48,1.47
273.87,4.43,2.95,4.43,2.95,-2.95,-3.08,-3.22,1.47,1.47,1.47
276.61,4.36,2.89,4.36,2.89,-2.89,-3.02,-3.16,1.46,1.46,1.46
279.38,4.29,2.82,4.29,2.83,-2.83,-2.96,-3.09,1.45,1.46,1.46
282.17,4.23,2.77,4.23,2.77,-2.78,-2.89,-3.03,1.45,1.45,1.45
284.99,4.17,2.72,4.16,2.72,-2.72,-2.83,-2.97,1.45,1.44,1.44
287.84,4.10,2.66,4.10,2.67,-2.66,-2.77,-2.90,1.43,1.44,1.43
290.72,4.04,2.61,4.04,2.61,-2.61,-2.71,-2.84,1.43,1.43,1.42
293.63,3.98,2.55,3.98,2.56,-2.55,-2.65,-2.77,1.42,1.42,1.42
296.57,3.92,2.50,3.91,2.50,-2.50,-2.59,-2.71,1.42,1.42,1.41
299.53,3.85,2.44,3.85,2.44,-2.44,-2.53,-2.64,1.40,1.41,1.40
302.53,3.79,2.38,3.79,2.39,-2.39,-2.47,-2.57,1.40,1.40,1.40
305.55,3.73,2.33,3.72,2.33,-2.33,-2.41,-2.51,1.40,1.39,1.39
308.61,3.66,2.26,3.66,2.27,-2.27,-2.35,-2.45,1.39,1.39,1.39
311.69,3.61,2.21,3.60,2.21,-2.21,-2.29,-2.38,1.39,1.39,1.39
314.81,3.55,2.16,3.55,2.16,-2.16,-2.23,-2.32,1.39,1.39,1.38
317.96,3.49,2.10,3.49,2.10,-2.10,-2.18,-2.26,1.38,1.39,1.38
321.14,3.43,2.04,3.43,2.05,-2.05,-2.12,-2.20,1.38,1.38,1.38
324.35,3.37,1.99,3.37,1.99,-1.99,-2.06,-2.14,1.38,1.37,1.37
327.59,3.31,1.93,3.31,1.94,-1.94,-2.01,-2.08,1.37,1.37,1.37
330.87,3.25,1.88,3.25,1.88,-1.88,-1.95,-2.02,1.36,1.37,1.36
334.18,3.20,1.83,3.19,1.83,-1.83,-1.90,-1.97,1.37,1.36,1.36
337.52,3.14,1.77,3.14,1.78,-1.78,-1.84,-1.91,1.36,1.36,1.36
340.90,3.09,1.73,3.08,1.73,-1.73,-1.79,-1.86,1.36,1.35,1.35
344.30,3.03,1.67,3.03,1.68,-1.68,-1.73,-1.80,1.35,1.35,1.35
347.75,2.97,1.62,2.97,1.63,-1.63,-1.68,-1.75,1.34,1.34,1.34
351.23,2.93,1.59,2.92,1.58,-1.58,-1.63,-1.70,1.34,1.33,1.33
354.74,2.87,1.54,2.87,1.54,-1.54,-1.58,-1.65,1.33,1.33,1.32
358.28,2.81,1.48,2.81,1.49,-1.49,-1.53,-1.60,1.31,1.32,1.32
361.87,2.77,1.45,2.76,1.45,-1.45,-1.48,-1.55,1.32,1.31,1.31
365.49,2.71,1.40,2.71,1.41,-1.41,-1.43,-1.51,1.30,1.30,1.30
369.14,2.66,1.36,2.66,1.36,-1.36,-1.38,-1.46,1.29,1.29,1.29
372.83,2.61,1.32,2.60,1.32,-1.32,-1.33,-1.42,1.29,1.28,1.28
376.56,2.55,1.27,2.55,1.28,-1.28,-1.28,-1.38,1.27,1.27,1.27
380.33,2.51,1.24,2.51,1.24,-1.24,-1.23,-1.33,1.27,1.27,1.26
384.13,2.46,1.20,2.45,1.20,-1.20,-1.18,-1.29,1.26,1.25,1.25
387.97,2.41,1.16,2.40,1.16,-1.16,-1.14,-1.25,1.25,1.25,1.24
391.85,2.35,1.11,2.35,1.12,-1.12,-1.09,-1.21,1.23,1.23,1.23
395.77,2.31,1.08,2.30,1.08,-1.08,-1.05,-1.17,1.23,1.22,1.22
399.73,2.26,1.04,2.26,1.04,-1.04,-1.00,-1.14,1.22,1.22,1.21
403.72,2.21,0.99,2.21,1.00,-1.00,-0.96,-1.10,1.21,1.21,1.21
407.76,2.17,0.96,2.16,0.96,-0.96,-0.91,-1.06,1.20,1.20,1.20
411.84,2.12,0.92,2.12,0.93,-0.93,-0.87,-1.03,1.19,1.19,1.19
415.96,2.08,0.89,2.07,0.89,-0.89,-0.83,-0.99,1.19,1.18,1.18
420.12,2.03,0.85,2.03,0.85,-0.85,-0.79,-0.96,1.17,1.17,1.17
424.32,1.98,0.81,1.98,0.82,-0.82,-0.75,-0.93,1.16,1.16,1.16
428.56,1.94,0.78,1.94,0.78,-0.78,-0.71,-0.89,1.15,1.15,1.15
432.85,1.90,0.75,1.89,0.75,-0.75,-0.67,-0.86,1.15,1.14,1.14
437.18,1.85,0.71,1.85,0.72,-0.72,-0.63,-0.83,1.13,1.13,1.13
441.55,1.81,0.68,1.81,0.68,-0.68,-0.60,-0.80,1.12,1.12,1.12
445.96,1.76,0.65,1.76,0.65,-0.65,-0.56,-0.76,1.11,1.11,1.10
