frequency,raw,error,smoothed,error_smoothed,equalization,parametric_eq,fixed_band_eq,equalized_raw,equalized_smoothed,target
20.00,-7.28,-6.81,-7.28,-6.81,5.96,5.89,1.71,-1.33,-1.33,-0.47
20.20,-7.20,-6.70,-7.20,-6.71,5.99,5.88,1.76,-1.21,-1.21,-0.50
20.40,-7.12,-6.60,-7.12,-6.60,6.02,5.87,1.81,-1.10,-1.10,-0.52
20.61,-7.04,-6.51,-7.04,-6.50,6.03,5.85,1.86,-1.01,-1.01,-0.54
20.81,-6.96,-6.40,-6.96,-6.40,6.04,5.83,1.92,-0.92,-0.93,-0.56
21.02,-6.88,-6.30,-6.88,-6.30,6.03,5.80,1.98,-0.85,-0.85,-0.58
21.23,-6.80,-6.20,-6.80,-6.20,6.01,5.77,2.03,-0.79,-0.79,-0.60
21.44,-6.72,-6.10,-6.72,-6.10,5.98,5.73,2.09,-0.74,-0.74,-0.62
21.66,-6.64,-6.01,-6.65,-6.01,5.94,5.69,2.15,-0.70,-0.71,-0.64
21.87,-6.57,-5.92,-6.57,-5.92,5.89,5.65,2.22,-0.68,-0.68,-0.65
22.09,-6.49,-5.82,-6.49,-5.82,5.82,5.60,2.28,-0.67,-0.67,-0.67
22.31,-6.41,-5.73,-6.41,-5.73,5.74,5.55,2.35,-0.67,-0.67,-0.68
22.54,-6.32,-5.64,-6.33,-5.64,5.65,5.49,2.42,-0.67,-0.67,-0.69
22.76,-6.24,-5.54,-6.24,-5.54,5.56,5.43,2.49,-0.68,-0.68,-0.70
22.99,-6.16,-5.45,-6.16,-5.45,5.46,5.37,2.56,-0.70,-0.70,-0.71
23.22,-6.08,-5.36,-6.08,-5.36,5.37,5.30,2.63,-0.71,-0.72,-0.72
23.45,-6.00,-5.27,-6.01,-5.28,5.28,5.24,2.71,-0.72,-0.73,-0.73
23.69,-5.93,-5.20,-5.93,-5.19,5.19,5.17,2.78,-0.74,-0.74,-0.74
23.92,-5.85,-5.11,-5.85,-5.11,5.11,5.09,2.86,-0.74,-0.74,-0.74
24.16,-5.77,-5.02,-5.77,-5.03,5.02,5.02,2.94,-0.75,-0.75,-0.75
24.40,-5.69,-4.94,-5.69,-4.94,4.94,4.94,3.02,-0.75,-0.75,-0.75
24.65,-5.61,-4.85,-5.61,-4.85,4.86,4.86,3.10,-0.76,-0.75,-0.76
24.89,-5.53,-4.77,-5.53,-4.77,4.77,4.78,3.18,-0.76,-0.76,-0.76
25.14,-5.45,-4.68,-5.45,-4.69,4.69,4.70,3.26,-0.76,-0.76,-0.77
25.39,-5.38,-4.61,-5.38,-4.61,4.61,4.62,3.34,-0.77,-0.77,-0.77
25.65,-5.30,-4.52,-5.30,-4.53,4.52,4.54,3.42,-0.78,-0.78,-0.78
25.91,-5.22,-4.45,-5.22,-4.44,4.44,4.45,3.50,-0.78,-0.78,-0.78
26.16,-5.14,-4.35,-5.14,-4.36,4.36,4.37,3.58,-0.78,-0.79,-0.79
26.43,-5.06,-4.28,-5.06,-4.27,4.27,4.28,3.66,-0.79,-0.79,-0.79
26.69,-4.98,-4.18,-4.98,-4.19,4.19,4.20,3.74,-0.79,-0.79,-0.80
26.96,-4.90,-4.10,-4.91,-4.11,4.11,4.11,3.82,-0.80,-0.80,-0.80
27.23,-4.83,-4.03,-4.83,-4.03,4.03,4.03,3.89,-0.81,-0.80,-0.80
27.50,-4.75,-3.94,-4.75,-3.95,3.94,3.95,3.96,-0.81,-0.81,-0.81
27.77,-4.67,-3.86,-4.68,-3.86,3.86,3.86,4.03,-0.81,-0.81,-0.81
28.05,-4.60,-3.78,-4.60,-3.78,3.79,3.78,4.09,-0.82,-0.81,-0.82
28.33,-4.52,-3.70,-4.53,-3.71,3.71,3.69,4.15,-0.82,-0.82,-0.82
28.62,-4.45,-3.63,-4.45,-3.63,3.63,3.61,4.21,-0.83,-0.82,-0.82
28.90,-4.38,-3.55,-4.38,-3.55,3.55,3.53,4.26,-0.83,-0.83,-0.83
29.19,-4.30,-3.47,-4.30,-3.48,3.48,3.45,4.30,-0.83,-0.83,-0.83
29.48,-4.23,-3.40,-4.23,-3.40,3.40,3.37,4.33,-0.83,-0.83,-0.83
29.78,-4.15,-3.32,-4.15,-3.33,3.33,3.29,4.36,-0.82,-0.82,-0.83
30.08,-4.08,-3.26,-4.09,-3.26,3.26,3.21,4.39,-0.82,-0.83,-0.83
30.38,-4.02,-3.19,-4.02,-3.19,3.19,3.13,4.40,-0.83,-0.83,-0.83
30.68,-3.96,-3.12,-3.96,-3.12,3.12,3.05,4.41,-0.84,-0.84,-0.84
30.99,-3.89,-3.05,-3.90,-3.06,3.05,2.97,4.41,-0.84,-0.84,-0.84
31.30,-3.83,-2.99,-3.83,-2.99,2.99,2.90,4.40,-0.85,-0.84,-0.84
31.61,-3.76,-2.92,-3.76,-2.92,2.92,2.82,4.38,-0.84,-0.84,-0.84
31.93,-3.70,-2.85,-3.70,-2.85,2.85,2.75,4.36,-0.85,-0.85,-0.85
32.24,-3.63,-2.78,-3.63,-2.78,2.79,2.68,4.32,-0.84,-0.85,-0.85
32.57,-3.57,-2.71,-3.57,-2.72,2.72,2.60,4.28,-0.85,-0.85,-0.86
32.89,-3.51,-2.65,-3.51,-2.65,2.65,2.53,4.24,-0.86,-0.86,-0.86
33.22,-3.45,-2.59,-3.45,-2.59,2.59,2.46,4.18,-0.87,-0.86,-0.86
33.55,-3.38,-2.52,-3.38,-2.52,2.52,2.39,4.12,-0.86,-0.86,-0.86
33.89,-3.32,-2.45,-3.32,-2.46,2.46,2.33,4.05,-0.86,-0.86,-0.87
34.23,-3.26,-2.39,-3.26,-2.39,2.40,2.26,3.98,-0.86,-0.87,-0.87
34.57,-3.21,-2.33,-3.21,-2.33,2.34,2.19,3.90,-0.88,-0.87,-0.88
34.92,-3.15,-2.27,-3.16,-2.28,2.28,2.13,3.82,-0.88,-0.88,-0.88
35.27,-3.10,-2.22,-3.10,-2.22,2.22,2.06,3.73,-0.89,-0.88,-0.88
35.62,-3.04,-2.16,-3.04,-2.16,2.16,2.00,3.64,-0.88,-0.88,-0.88
35.97,-2.98,-2.09,-2.99,-2.10,2.10,1.94,3.54,-0.88,-0.89,-0.89
36.33,-2.93,-2.04,-2.93,-2.04,2.04,1.88,3.45,-0.89,-0.88,-0.89
36.70,-2.87,-1.98,-2.87,-1.98,1.99,1.81,3.35,-0.89,-0.88,-0.89
37.06,-2.81,-1.92,-2.82,-1.93,1.93,1.75,3.24,-0.88,-0.89,-0.89
37.43,-2.76,-1.87,-2.76,-1.87,1.87,1.70,3.14,-0.89,-0.89,-0.89
37.81,-2.71,-1.81,-2.71,-1.81,1.81,1.64,3.04,-0.90,-0.90,-0.90
38.19,-2.65,-1.75,-2.65,-1.75,1.75,1.58,2.93,-0.90,-0.90,-0.90
38.57,-2.59,-1.68,-2.60,-1.69,1.69,1.52,2.82,-0.90,-0.91,-0.91
38.95,-2.54,-1.63,-2.54,-1.63,1.63,1.47,2.72,-0.91,-0.91,-0.91
39.34,-2.48,-1.56,-2.48,-1.57,1.57,1.41,2.61,-0.91,-0.91,-0.92
39.74,-2.42,-1.50,-2.42,-1.50,1.51,1.36,2.51,-0.92,-0.92,-0.92
40.14,-2.36,-1.44,-2.37,-1.44,1.45,1.31,2.40,-0.92,-0.92,-0.92
40.54,-2.31,-1.38,-2.31,-1.39,1.39,1.26,2.29,-0.93,-0.93,-0.93
40.94,-2.26,-1.33,-2.26,-1.33,1.33,1.20,2.19,-0.93,-0.93,-0.93
41.35,-2.20,-1.27,-2.20,-1.27,1.27,1.15,2.09,-0.93,-0.93,-0.93
41.76,-2.14,-1.21,-2.14,-1.22,1.22,1.10,1.98,-0.93,-0.93,-0.93
42.18,-2.08,-1.16,-2.08,-1.16,1.16,1.05,1.88,-0.92,-0.92,-0.92
42.60,-2.02,-1.10,-2.02,-1.11,1.11,1.00,1.78,-0.91,-0.92,-0.92
43.03,-1.97,-1.05,-1.97,-1.05,1.05,0.96,1.68,-0.92,-0.91,-0.92
43.46,-1.91,-0.99,-1.92,-1.00,1.00,0.91,1.58,-0.91,-0.91,-0.92
43.90,-1.86,-0.94,-1.86,-0.95,0.95,0.86,1.48,-0.91,-0.92,-0.92
44.33,-1.81,-0.90,-1.81,-0.90,0.89,0.82,1.38,-0.92,-0.91,-0.91
44.78,-1.75,-0.84,-1.75,-0.84,0.84,0.77,1.29,-0.91,-0.91,-0.91
45.23,-1.69,-0.78,-1.70,-0.79,0.78,0.72,1.19,-0.91,-0.91,-0.91
45.68,-1.64,-0.73,-1.64,-0.73,0.73,0.68,1.10,-0.92,-0.91,-0.91
46.13,-1.58,-0.67,-1.58,-0.67,0.67,0.64,1.01,-0.91,-0.91,-0.91
46.60,-1.52,-0.60,-1.52,-0.61,0.61,0.59,0.91,-0.91,-0.91,-0.92
47.06,-1.46,-0.54,-1.47,-0.55,0.55,0.55,0.82,-0.91,-0.91,-0.92
47.53,-1.41,-0.49,-1.41,-0.49,0.50,0.51,0.73,-0.92,-0.92,-0.92
48.01,-1.36,-0.44,-1.36,-0.44,0.44,0.46,0.65,-0.92,-0.92,-0.92
48.49,-1.31,-0.38,-1.31,-0.39,0.39,0.42,0.56,-0.93,-0.93,-0.93
48.97,-1.26,-0.33,-1.26,-0.33,0.33,0.38,0.47,-0.93,-0.93,-0.93
49.46,-1.21,-0.28,-1.21,-0.28,0.28,0.34,0.39,-0.93,-0.93,-0.93
49.96,-1.15,-0.22,-1.16,-0.23,0.23,0.30,0.30,-0.92,-0.93,-0.93
50.46,-1.10,-0.18,-1.10,-0.18,0.18,0.26,0.22,-0.92,-0.92,-0.92
50.96,-1.05,-0.13,-1.05,-0.13,0.13,0.22,0.14,-0.92,-0.92,-0.92
51.47,-1.00,-0.08,-1.00,-0.08,0.08,0.18,0.06,-0.92,-0.92,-0.92
51.99,-0.95,-0.03,-0.95,-0.04,0.04,0.14,-0.02,-0.91,-0.91,-0.92
52.51,-0.90,0.01,-0.90,0.01,-0.01,0.11,-0.10,-0.91,-0.91,-0.91
53.03,-0.86,0.05,-0.86,0.05,-0.05,0.07,-0.18,-0.91,-0.91,-0.91
53.56,-0.81,0.10,-0.82,0.09,-0.09,0.03,-0.25,-0.90,-0.91,-0.91
54.10,-0.77,0.14,-0.78,0.13,-0.13,-0.01,-0.32,-0.90,-0.91,-0.91
54.64,-0.74,0.17,-0.73,0.17,-0.17,-0.04,-0.39,-0.92,-0.91,-0.91
55.18,-0.69,0.21,-0.69,0.21,-0.21,-0.08,-0.46,-0.91,-0.91,-0.90
55.74,-0.64,0.26,-0.65,0.25,-0.26,-0.12,-0.53,-0.90,-0.90,-0.90
56.29,-0.60,0.30,-0.60,0.30,-0.30,-0.15,-0.60,-0.90,-0.89,-0.90
56.86,-0.55,0.34,-0.55,0.34,-0.34,-0.19,-0.66,-0.89,-0.89,-0.89
57.42,-0.51,0.38,-0.51,0.38,-0.37,-0.22,-0.72,-0.89,-0.89,-0.89
58.00,-0.47,0.42,-0.47,0.42,-0.41,-0.26,-0.78,-0.88,-0.88,-0.89
58.58,-0.43,0.46,-0.43,0.45,-0.45,-0.29,-0.83,-0.88,-0.88,-0.89
59.16,-0.39,0.49,-0.40,0.49,-0.48,-0.33,-0.89,-0.88,-0.88,-0.88
59.76,-0.36,0.52,-0.36,0.52,-0.52,-0.36,-0.94,-0.88,-0.88,-0.88
60.35,-0.33,0.55,-0.33,0.55,-0.56,-0.40,-0.98,-0.89,-0.88,-0.88
60.96,-0.28,0.59,-0.29,0.58,-0.59,-0.43,-1.03,-0.88,-0.88,-0.87
61.57,-0.24,0.63,-0.24,0.63,-0.63,-0.47,-1.07,-0.87,-0.87,-0.87
62.18,-0.20,0.67,-0.20,0.67,-0.67,-0.50,-1.11,-0.87,-0.87,-0.87
62.80,-0.15,0.72,-0.16,0.71,-0.71,-0.53,-1.14,-0.86,-0.87,-0.87
63.43,-0.11,0.76,-0.12,0.75,-0.75,-0.57,-1.18,-0.86,-0.87,-0.87
64.07,-0.08,0.79,-0.08,0.79,-0.79,-0.60,-1.21,-0.87,-0.86,-0.87
64.71,-0.04,0.83,-0.04,0.83,-0.82,-0.63,-1.23,-0.87,-0.87,-0.87
65.35,-0.00,0.87,-0.01,0.86,-0.86,-0.66,-1.26,-0.86,-0.87,-0.87
66.01,0.03,0.90,0.03,0.90,-0.89,-0.70,-1.28,-0.86,-0.86,-0.87
66.67,0.06,0.93,0.06,0.93,-0.93,-0.73,-1.30,-0.87,-0.87,-0.87
67.33,0.09,0.96,0.09,0.96,-0.96,-0.76,-1.31,-0.87,-0.87,-0.87
68.01,0.12,0.99,0.12,0.99,-0.99,-0.79,-1.33,-0.87,-0.87,-0.87
68.69,0.15,1.02,0.15,1.02,-1.03,-0.82,-1.34,-0.88,-0.88,-0.87
69.37,0.19,1.06,0.19,1.06,-1.06,-0.85,-1.35,-0.87,-0.87,-0.87
70.07,0.23,1.10,0.23,1.10,-1.10,-0.89,-1.36,-0.87,-0.87,-0.87
70.77,0.27,1.14,0.27,1.14,-1.13,-0.92,-1.37,-0.87,-0.86,-0.87
71.48,0.31,1.18,0.31,1.17,-1.17,-0.95,-1.38,-0.86,-0.86,-0.87
72.19,0.35,1.21,0.34,1.21,-1.20,-0.98,-1.39,-0.85,-0.86,-0.86
72.91,0.38,1.24,0.38,1.24,-1.23,-1.01,-1.39,-0.85,-0.85,-0.86
73.64,0.41,1.27,0.41,1.26,-1.26,-1.04,-1.40,-0.85,-0.85,-0.86
74.38,0.44,1.29,0.43,1.29,-1.29,-1.07,-1.40,-0.85,-0.85,-0.85
75.12,0.46,1.31,0.46,1.31,-1.31,-1.10,-1.40,-0.85,-0.85,-0.85
75.87,0.49,1.34,0.49,1.33,-1.33,-1.13,-1.41,-0.85,-0.85,-0.85
76.63,0.52,1.36,0.52,1.36,-1.36,-1.16,-1.41,-0.84,-0.84,-0.84
77.40,0.55,1.39,0.55,1.38,-1.38,-1.19,-1.42,-0.83,-0.83,-0.84
78.17,0.58,1.41,0.57,1.41,-1.41,-1.22,-1.42,-0.83,-0.83,-0.83
78.95,0.60,1.43,0.60,1.43,-1.43,-1.25,-1.43,-0.84,-0.83,-0.83
79.74,0.63,1.46,0.63,1.46,-1.46,-1.28,-1.43,-0.84,-0.83,-0.83
80.54,0.67,1.49,0.67,1.49,-1.50,-1.31,-1.44,-0.83,-0.83,-0.82
81.35,0.71,1.53,0.71,1.53,-1.53,-1.34,-1.45,-0.82,-0.82,-0.82
82.16,0.75,1.57,0.74,1.56,-1.56,-1.37,-1.46,-0.81,-0.81,-0.82
82.98,0.78,1.60,0.78,1.60,-1.59,-1.40,-1.47,-0.81,-0.81,-0.82
83.81,0.81,1.63,0.81,1.63,-1.62,-1.43,-1.48,-0.81,-0.81,-0.82
84.65,0.84,1.66,0.84,1.65,-1.64,-1.45,-1.49,-0.80,-0.81,-0.82
85.50,0.86,1.67,0.86,1.67,-1.67,-1.48,-1.50,-0.81,-0.81,-0.81
86.35,0.88,1.69,0.88,1.68,-1.69,-1.51,-1.52,-0.81,-0.81,-0.81
87.22,0.89,1.70,0.89,1.70,-1.70,-1.54,-1.53,-0.82,-0.81,-0.81
88.09,0.91,1.72,0.91,1.72,-1.72,-1.57,-1.55,-0.82,-0.81,-0.81
88.97,0.93,1.74,0.93,1.74,-1.74,-1.60,-1.56,-0.81,-0.81,-0.81
89.86,0.96,1.77,0.95,1.76,-1.76,-1.62,-1.58,-0.81,-0.81,-0.81
90.76,0.98,1.79,0.98,1.79,-1.78,-1.65,-1.60,-0.81,-0.81,-0.81
91.66,1.00,1.81,1.00,1.81,-1.81,-1.68,-1.62,-0.81,-0.80,-0.81
92.58,1.03,1.84,1.02,1.83,-1.83,-1.71,-1.64,-0.80,-0.81,-0.81
93.51,1.05,1.86,1.05,1.86,-1.85,-1.73,-1.67,-0.81,-0.81,-0.81
94.44,1.07,1.88,1.07,1.88,-1.88,-1.76,-1.69,-0.81,-0.81,-0.81
95.39,1.10,1.91,1.09,1.90,-1.90,-1.79,-1.72,-0.81,-0.81,-0.81
96.34,1.12,1.93,1.12,1.93,-1.93,-1.82,-1.75,-0.81,-0.81,-0.81
97.30,1.15,1.95,1.15,1.95,-1.96,-1.84,-1.77,-0.81,-0.81,-0.80
98.28,1.19,1.99,1.18,1.98,-1.99,-1.87,-1.80,-0.80,-0.81,-0.80
99.26,1.22,2.02,1.22,2.02,-2.02,-1.90,-1.83,-0.80,-0.80,-0.80
100.25,1.25,2.05,1.25,2.05,-2.04,-1.92,-1.86,-0.80,-0.79,-0.80
101.25,1.28,2.08,1.28,2.07,-2.07,-1.95,-1.89,-0.79,-0.79,-0.80
102.27,1.30,2.10,1.30,2.09,-2.09,-1.97,-1.93,-0.79,-0.79,-0.80
103.29,1.31,2.11,1.31,2.11,-2.10,-2.00,-1.96,-0.79,-0.79,-0.80
104.32,1.32,2.11,1.32,2.11,-2.11,-2.03,-1.99,-0.79,-0.79,-0.79
105.37,1.33,2.12,1.33,2.11,-2.10,-2.05,-2.03,-0.78,-0.78,-0.79
106.42,1.33,2.12,1.32,2.11,-2.10,-2.08,-2.06,-0.77,-0.77,-0.79
107.48,1.32,2.10,1.31,2.10,-2.09,-2.10,-2.09,-0.77,-0.78,-0.78
108.56,1.30,2.08,1.30,2.08,-2.09,-2.13,-2.12,-0.79,-0.79,-0.78
109.64,1.29,2.07,1.29,2.07,-2.08,-2.15,-2.16,-0.79,-0.79,-0.78
110.74,1.29,2.07,1.29,2.07,-2.08,-2.18,-2.19,-0.79,-0.79,-0.78
111.85,1.31,2.08,1.30,2.08,-2.09,-2.20,-2.22,-0.78,-0.78,-0.77
112.97,1.33,2.10,1.33,2.10,-2.10,-2.23,-2.25,-0.77,-0.77,-0.77
114.10,1.35,2.12,1.35,2.12,-2.12,-2.25,-2.28,-0.77,-0.76,-0.77
115.24,1.38,2.15,1.37,2.14,-2.14,-2.27,-2.31,-0.76,-0.77,-0.77
116.39,1.40,2.17,1.40,2.16,-2.17,-2.30,-2.34,-0.77,-0.77,-0.77
117.55,1.43,2.19,1.43,2.19,-2.20,-2.32,-2.36,-0.77,-0.77,-0.76
118.73,1.47,2.23,1.47,2.23,-2.23,-2.34,-2.39,-0.76,-0.76,-0.76
119.92,1.51,2.27,1.51,2.26,-2.26,-2.37,-2.41,-0.75,-0.75,-0.76
121.12,1.55,2.30,1.54,2.29,-2.29,-2.39,-2.43,-0.74,-0.75,-0.75
122.33,1.57,2.32,1.57,2.31,-2.31,-2.41,-2.45,-0.75,-0.74,-0.75
123.55,1.59,2.33,1.59,2.34,-2.34,-2.43,-2.46,-0.75,-0.74,-0.74
124.79,1.62,2.36,1.61,2.35,-2.35,-2.46,-2.48,-0.74,-0.74,-0.74
126.03,1.64,2.38,1.64,2.37,-2.37,-2.48,-2.49,-0.73,-0.73,-0.74
127.29,1.65,2.38,1.65,2.38,-2.37,-2.50,-2.50,-0.72,-0.72,-0.73
128.57,1.66,2.39,1.65,2.38,-2.37,-2.52,-2.51,-0.71,-0.72,-0.73
129.85,1.65,2.37,1.65,2.37,-2.36,-2.54,-2.51,-0.72,-0.72,-0.72
131.15,1.64,2.36,1.64,2.36,-2.36,-2.57,-2.52,-0.72,-0.72,-0.72
132.46,1.63,2.35,1.63,2.34,-2.35,-2.59,-2.52,-0.72,-0.72,-0.72
133.79,1.62,2.34,1.62,2.34,-2.34,-2.61,-2.52,-0.72,-0.72,-0.72
135.12,1.61,2.33,1.61,2.33,-2.33,-2.63,-2.52,-0.73,-0.72,-0.72
136.48,1.61,2.33,1.61,2.32,-2.33,-2.65,-2.52,-0.72,-0.72,-0.72
137.84,1.62,2.33,1.61,2.33,-2.34,-2.67,-2.51,-0.72,-0.72,-0.71
139.22,1.63,2.34,1.63,2.34,-2.35,-2.69,-2.51,-0.72,-0.72,-0.71
140.61,1.65,2.36,1.65,2.36,-2.36,-2.71,-2.51,-0.71,-0.71,-0.71
142.02,1.69,2.40,1.68,2.39,-2.38,-2.73,-2.50,-0.69,-0.70,-0.71
143.44,1.70,2.41,1.71,2.41,-2.40,-2.74,-2.50,-0.70,-0.69,-0.71
144.87,1.74,2.44,1.73,2.43,-2.42,-2.76,-2.49,-0.69,-0.70,-0.70
146.32,1.75,2.45,1.75,2.45,-2.45,-2.78,-2.49,-0.71,-0.70,-0.70
147.78,1.78,2.48,1.78,2.48,-2.48,-2.80,-2.48,-0.71,-0.70,-0.70
149.26,1.82,2.51,1.82,2.51,-2.52,-2.82,-2.48,-0.70,-0.70,-0.69
150.75,1.87,2.56,1.86,2.55,-2.56,-2.84,-2.47,-0.69,-0.69,-0.69
152.26,1.91,2.60,1.91,2.59,-2.60,-2.85,-2.47,-0.69,-0.69,-0.69
153.78,1.96,2.64,1.96,2.64,-2.64,-2.87,-2.47,-0.68,-0.68,-0.68
155.32,2.00,2.68,2.00,2.68,-2.68,-2.89,-2.47,-0.68,-0.68,-0.68
156.88,2.06,2.74,2.05,2.73,-2.72,-2.90,-2.47,-0.67,-0.67,-0.68
158.44,2.10,2.77,2.10,2.77,-2.76,-2.92,-2.47,-0.66,-0.66,-0.67
160.03,2.14,2.81,2.13,2.80,-2.80,-2.94,-2.47,-0.66,-0.66,-0.67
161.63,2.16,2.83,2.16,2.83,-2.83,-2.95,-2.48,-0.67,-0.67,-0.67
163.24,2.18,2.85,2.18,2.85,-2.85,-2.97,-2.48,-0.67,-0.67,-0.67
164.88,2.21,2.88,2.21,2.87,-2.87,-2.98,-2.49,-0.66,-0.67,-0.67
166.53,2.23,2.89,2.23,2.89,-2.89,-3.00,-2.50,-0.66,-0.66,-0.66
168.19,2.25,2.91,2.25,2.90,-2.90,-3.01,-2.51,-0.66,-0.66,-0.66
169.87,2.26,2.92,2.26,2.92,-2.91,-3.03,-2.52,-0.66,-0.65,-0.66
171.57,2.28,2.93,2.27,2.93,-2.92,-3.04,-2.54,-0.65,-0.65,-0.65
173.29,2.29,2.94,2.29,2.94,-2.93,-3.05,-2.56,-0.65,-0.65,-0.65
175.02,2.30,2.95,2.30,2.95,-2.95,-3.07,-2.58,-0.65,-0.65,-0.65
176.77,2.32,2.97,2.31,2.96,-2.96,-3.08,-2.60,-0.64,-0.65,-0.65
178.54,2.33,2.97,2.33,2.97,-2.98,-3.09,-2.62,-0.65,-0.65,-0.64
180.32,2.35,2.99,2.35,2.99,-3.00,-3.10,-2.65,-0.66,-0.65,-0.64
182.13,2.38,3.02,2.38,3.02,-3.03,-3.12,-2.68,-0.65,-0.65,-0.64
183.95,2.43,3.07,2.42,3.06,-3.06,-3.13,-2.70,-0.63,-0.64,-0.64
185.79,2.46,3.11,2.45,3.10,-3.09,-3.14,-2.74,-0.64,-0.64,-0.65
187.65,2.48,3.13,2.49,3.14,-3.13,-3.15,-2.77,-0.65,-0.64,-0.65
189.52,2.52,3.17,2.52,3.16,-3.16,-3.16,-2.80,-0.64,-0.64,-0.65
191.42,2.55,3.20,2.54,3.19,-3.19,-3.17,-2.84,-0.64,-0.65,-0.65
193.33,2.57,3.21,2.57,3.21,-3.21,-3.18,-2.88,-0.64,-0.64,-0.64
195.27,2.59,3.23,2.59,3.23,-3.23,-3.19,-2.92,-0.64,-0.64,-0.64
197.22,2.61,3.25,2.61,3.25,-3.24,-3.20,-2.96,-0.63,-0.63,-0.64
199.19,2.63,3.27,2.62,3.26,-3.25,-3.21,-3.01,-0.62,-0.63,-0.64
201.18,2.63,3.26,2.62,3.26,-3.25,-3.22,-3.05,-0.62,-0.62,-0.63
203.19,2.62,3.25,2.62,3.25,-3.25,-3.23,-3.09,-0.63,-0.63,-0.63
205.23,2.61,3.24,2.61,3.24,-3.24,-3.24,-3.14,-0.63,-0.63,-0.63
207.28,2.61,3.23,2.61,3.23,-3.23,-3.25,-3.19,-0.63,-0.63,-0.62
209.35,2.61,3.23,2.60,3.22,-3.22,-3.25,-3.23,-0.61,-0.62,-0.62
211.44,2.60,3.22,2.60,3.22,-3.21,-3.26,-3.28,-0.61,-0.61,-0.62
213.56,2.60,3.21,2.59,3.21,-3.20,-3.27,-3.33,-0.60,-0.61,-0.61
215.69,2.59,3.20,2.59,3.20,-3.20,-3.27,-3.37,-0.61,-0.61,-0.61
217.85,2.58,3.19,2.58,3.19,-3.20,-3.28,-3.42,-0.62,-0.61,-0.61
220.03,2.59,3.20,2.58,3.19,-3.20,-3.29,-3.46,-0.61,-0.61,-0.61
222.23,2.60,3.20,2.59,3.20,-3.21,-3.29,-3.51,-0.61,-0.61,-0.60
224.45,2.61,3.21,2.61,3.21,-3.22,-3.30,-3.55,-0.61,-0.60,-0.60
226.70,2.64,3.24,2.64,3.23,-3.24,-3.30,-3.59,-0.60,-0.60,-0.60
228.96,2.67,3.27,2.66,3.26,-3.26,-3.31,-3.62,-0.59,-0.60,-0.60
231.25,2.69,3.28,2.69,3.28,-3.28,-3.31,-3.66,-0.59,-0.59,-0.59
233.57,2.72,3.31,2.72,3.31,-3.31,-3.32,-3.69,-0.59,-0.58,-0.59
235.90,2.77,3.35,2.76,3.34,-3.34,-3.32,-3.72,-0.57,-0.58,-0.58
238.26,2.79,3.37,2.79,3.37,-3.37,-3.32,-3.74,-0.58,-0.57,-0.58
240.64,2.82,3.39,2.82,3.39,-3.39,-3.33,-3.76,-0.58,-0.57,-0.57
243.05,2.86,3.42,2.85,3.41,-3.42,-3.33,-3.78,-0.56,-0.57,-0.56
245.48,2.88,3.44,2.89,3.44,-3.44,-3.33,-3.79,-0.56,-0.55,-0.56
247.93,2.92,3.47,2.91,3.46,-3.45,-3.33,-3.80,-0.54,-0.54,-0.55
250.41,2.94,3.48,2.93,3.47,-3.46,-3.33,-3.81,-0.53,-0.53,-0.54
252.92,2.95,3.48,2.95,3.48,-3.47,-3.34,-3.81,-0.52,-0.52,-0.53
255.45,2.95,3.48,2.95,3.48,-3.47,-3.34,-3.80,-0.52,-0.52,-0.53
258.00,2.95,3.47,2.94,3.47,-3.47,-3.34,-3.79,-0.52,-0.52,-0.52
260.58,2.94,3.46,2.94,3.45,-3.46,-3.34,-3.78,-0.52,-0.52,-0.52
263.19,2.93,3.44,2.93,3.44,-3.45,-3.34,-3.77,-0.52,-0.52,-0.51
265.82,2.93,3.44,2.93,3.43,-3.44,-3.34,-3.75,-0.51,-0.51,-0.51
268.48,2.93,3.43,2.93,3.43,-3.43,-3.34,-3.72,-0.50,-0.51,-0.50
271.16,2.93,3.43,2.93,3.43,-3.43,-3.34,-3.70,-0.50,-0.50,-0.50
273.87,2.93,3.43,2.93,3.42,-3.42,-3.33,-3.67,-0.49,-0.49,-0.50
276.61,2.93,3.42,2.93,3.42,-3.42,-3.33,-3.64,-0.49,-0.49,-0.49
279.38,2.93,3.42,2.93,3.42,-3.41,-3.33,-3.60,-0.49,-0.49,-0.49
282.17,2.93,3.42,2.93,3.41,-3.41,-3.33,-3.57,-0.48,-0.48,-0.49
284.99,2.93,3.41,2.93,3.41,-3.41,-3.32,-3.53,-0.48,-0.48,-0.48
287.84,2.93,3.41,2.93,3.41,-3.41,-3.32,-3.49,-0.48,-0.48,-0.48
290.72,2.93,3.41,2.93,3.41,-3.41,-3.32,-3.45,-0.48,-0.48,-0.48
293.63,2.93,3.41,2.93,3.41,-3.41,-3.31,-3.41,-0.48,-0.48,-0.48
296.57,2.93,3.41,2.93,3.41,-3.40,-3.31,-3.37,-0.48,-0.48,-0.48
299.53,2.93,3.41,2.93,3.40,-3.40,-3.31,-3.33,-0.47,-0.47,-0.48
302.53,2.93,3.40,2.93,3.40,-3.40,-3.30,-3.30,-0.47,-0.47,-0.47
305.55,2.93,3.40,2.93,3.39,-3.39,-3.30,-3.26,-0.47,-0.47,-0.47
308.61,2.93,3.39,2.93,3.39,-3.39,-3.29,-3.22,-0.46,-0.46,-0.46
311.69,2.93,3.39,2.93,3.38,-3.38,-3.28,-3.18,-0.46,-0.46,-0.46
314.81,2.93,3.38,2.93,3.38,-3.38,-3.28,-3.15,-0.45,-0.45,-0.45
317.96,2.93,3.38,2.93,3.37,-3.37,-3.27,-3.11,-0.45,-0.45,-0.45
321.14,2.93,3.37,2.93,3.37,-3.37,-3.26,-3.08,-0.44,-0.44,-0.44
324.35,2.93,3.37,2.93,3.37,-3.37,-3.26,-3.05,-0.44,-0.44,-0.44
327.59,2.93,3.37,2.93,3.36,-3.36,-3.25,-3.02,-0.44,-0.44,-0.44
330.87,2.93,3.36,2.93,3.36,-3.36,-3.24,-2.99,-0.43,-0.44,-0.43
334.18,2.93,3.36,2.93,3.36,-3.36,-3.23,-2.97,-0.43,-0.43,-0.43
337.52,2.94,3.36,2.94,3.36,-3.36,-3.22,-2.94,-0.42,-0.42,-0.42
340.90,2.95,3.36,2.94,3.36,-3.36,-3.22,-2.92,-0.41,-0.41,-0.41
344.30,2.95,3.36,2.95,3.36,-3.35,-3.21,-2.90,-0.41,-0.41,-0.41
347.75,2.95,3.36,2.95,3.35,-3.35,-3.20,-2.89,-0.40,-0.40,-0.41
351.23,2.94,3.35,2.94,3.34,-3.34,-3.19,-2.87,-0.40,-0.40,-0.41
354.74,2.93,3.33,2.92,3.33,-3.32,-3.18,-2.86,-0.39,-0.40,-0.40
358.28,2.90,3.30,2.90,3.30,-3.30,-3.17,-2.85,-0.40,-0.40,-0.40
361.87,2.88,3.28,2.88,3.27,-3.28,-3.15,-2.84,-0.40,-0.40,-0.40
365.49,2.85,3.25,2.85,3.25,-3.25,-3.14,-2.83,-0.40,-0.40,-0.40
369.14,2.82,3.22,2.82,3.22,-3.21,-3.13,-2.83,-0.40,-0.40,-0.40
372.83,2.79,3.19,2.78,3.18,-3.18,-3.12,-2.83,-0.39,-0.39,-0.40
376.56,2.75,3.14,2.75,3.14,-3.14,-3.11,-2.83,-0.40,-0.39,-0.39
380.33,2.72,3.11,2.72,3.11,-3.11,-3.09,-2.83,-0.39,-0.39,-0.39
384.13,2.69,3.08,2.69,3.07,-3.07,-3.08,-2.84,-0.39,-0.39,-0.39
387.97,2.66,3.05,2.66,3.04,-3.04,-3.07,-2.84,-0.38,-0.38,-0.39
391.85,2.63,3.01,2.63,3.01,-3.01,-3.05,-2.85,-0.38,-0.38,-0.38
395.77,2.61,2.99,2.60,2.98,-2.99,-3.04,-2.86,-0.38,-0.38,-0.38
399.73,2.59,2.96,2.59,2.96,-2.97,-3.03,-2.87,-0.38,-0.38,-0.37
403.72,2.58,2.95,2.58,2.95,-2.96,-3.01,-2.89,-0.38,-0.38,-0.37
407.76,2.59,2.95,2.58,2.94,-2.95,-3.00,-2.90,-0.36,-0.37,-0.36
411.84,2.59,2.95,2.59,2.95,-2.94,-2.98,-2.92,-0.36,-0.35,-0.36
415.96,2.60,2.95,2.60,2.95,-2.94,-2.96,-2.93,-0.34,-0.34,-0.35
420.12,2.61,2.96,2.60,2.95,-2.94,-2.95,-2.95,-0.34,-0.34,-0.35
424.32,2.61,2.96,2.61,2.95,-2.95,-2.93,-2.96,-0.34,-0.34,-0.35
428.56,2.61,2.95,2.61,2.95,-2.95,-2.92,-2.98,-0.34,-0.34,-0.34
432.85,2.61,2.95,2.61,2.95,-2.96,-2.90,-3.00,-0.35,-0.35,-0.34
437.18,2.61,2.95,2.61,2.95,-2.96,-2.88,-3.01,-0.35,-0.35,-0.34
441.55,2.62,2.96,2.62,2.96,-2.96,-2.86,-3.03,-0.34,-0.34,-0.34
445.96,2.63,2.97,2.63,2.96,-2.96,-2.84,-3.04,-0.33,-0.33,-0.34
450.42,2.63,2.97,2.63,2.96,-2.95,-2.83,-3.05,-0.33,-0.33,-0.34
454.93,2.62,2.96,2.62,2.95,-2.95,-2.81,-3.06,-0.33,-0.33,-0.34
