frequency,raw,error,smoothed,error_smoothed,equalization,parametric_eq,fixed_band_eq,equalized_raw,equalized_smoothed,target
20.00,-0.25,-2.65,-0.25,-2.65,2.65,1.88,-0.16,2.40,2.41,2.40
20.20,-0.19,-2.57,-0.20,-2.57,2.57,1.82,-0.17,2.38,2.38,2.38
20.40,-0.15,-2.50,-0.14,-2.50,2.50,1.76,-0.17,2.35,2.35,2.35
20.61,-0.09,-2.42,-0.09,-2.42,2.42,1.70,-0.17,2.32,2.33,2.33
20.81,-0.03,-2.34,-0.03,-2.34,2.34,1.63,-0.18,2.31,2.30,2.31
21.02,0.03,-2.25,0.03,-2.25,2.25,1.56,-0.18,2.28,2.29,2.28
21.23,0.09,-2.17,0.09,-2.17,2.17,1.49,-0.19,2.26,2.26,2.26
21.44,0.15,-2.09,0.15,-2.09,2.09,1.42,-0.19,2.24,2.24,2.24
21.66,0.21,-2.01,0.21,-2.01,2.01,1.35,-0.20,2.22,2.22,2.22
21.87,0.27,-1.93,0.27,-1.93,1.92,1.27,-0.20,2.19,2.20,2.20
22.09,0.34,-1.84,0.34,-1.84,1.84,1.20,-0.20,2.18,2.17,2.18
22.31,0.40,-1.76,0.40,-1.75,1.75,1.12,-0.21,2.15,2.15,2.16
22.54,0.46,-1.67,0.46,-1.67,1.67,1.05,-0.21,2.13,2.13,2.13
22.76,0.53,-1.58,0.53,-1.58,1.58,0.98,-0.22,2.12,2.11,2.11
22.99,0.59,-1.50,0.59,-1.50,1.50,0.90,-0.22,2.09,2.09,2.09
23.22,0.65,-1.42,0.65,-1.42,1.42,0.83,-0.23,2.07,2.07,2.07
23.45,0.72,-1.34,0.72,-1.34,1.34,0.75,-0.23,2.06,2.05,2.06
23.69,0.78,-1.26,0.78,-1.25,1.25,0.68,-0.24,2.03,2.04,2.04
23.92,0.85,-1.17,0.85,-1.17,1.17,0.60,-0.25,2.02,2.02,2.03
24.16,0.92,-1.08,0.92,-1.09,1.09,0.53,-0.25,2.01,2.01,2.01
24.40,0.98,-1.01,0.98,-1.01,1.01,0.46,-0.26,1.99,1.99,1.99
24.65,1.05,-0.94,1.05,-0.93,0.93,0.39,-0.26,1.98,1.98,1.98
24.89,1.12,-0.84,1.12,-0.85,0.85,0.31,-0.27,1.97,1.97,1.96
25.14,1.19,-0.76,1.19,-0.76,0.77,0.24,-0.28,1.96,1.96,1.95
25.39,1.26,-0.68,1.26,-0.68,0.69,0.17,-0.28,1.95,1.94,1.94
25.65,1.32,-0.61,1.32,-0.61,0.61,0.10,-0.29,1.93,1.93,1.93
25.91,1.39,-0.53,1.39,-0.53,0.53,0.03,-0.30,1.92,1.92,1.92
26.16,1.46,-0.45,1.46,-0.45,0.45,-0.03,-0.30,1.91,1.90,1.91
26.43,1.52,-0.37,1.52,-0.37,0.37,-0.10,-0.31,1.89,1.89,1.89
26.69,1.59,-0.29,1.59,-0.29,0.29,-0.17,-0.32,1.88,1.88,1.88
26.96,1.66,-0.21,1.66,-0.21,0.21,-0.23,-0.33,1.87,1.87,1.87
27.23,1.73,-0.13,1.73,-0.13,0.13,-0.30,-0.34,1.86,1.86,1.86
27.50,1.79,-0.06,1.79,-0.06,0.06,-0.36,-0.34,1.85,1.85,1.85
27.77,1.86,0.01,1.86,0.02,-0.02,-0.43,-0.35,1.84,1.84,1.85
28.05,1.93,0.09,1.93,0.09,-0.09,-0.49,-0.36,1.84,1.84,1.84
28.33,1.99,0.16,1.99,0.17,-0.16,-0.55,-0.37,1.83,1.83,1.83
28.62,2.06,0.23,2.06,0.23,-0.23,-0.62,-0.38,1.82,1.82,1.82
28.90,2.12,0.31,2.12,0.30,-0.30,-0.68,-0.39,1.82,1.82,1.81
29.19,2.18,0.37,2.18,0.37,-0.37,-0.74,-0.40,1.81,1.81,1.81
29.48,2.25,0.45,2.25,0.44,-0.45,-0.80,-0.41,1.81,1.80,1.80
29.78,2.31,0.51,2.31,0.51,-0.51,-0.86,-0.42,1.79,1.80,1.80
30.08,2.38,0.59,2.37,0.58,-0.58,-0.92,-0.43,1.80,1.79,1.79
30.38,2.43,0.64,2.44,0.65,-0.65,-0.98,-0.44,1.78,1.79,1.79
30.68,2.50,0.72,2.50,0.72,-0.72,-1.03,-0.45,1.78,1.78,1.78
30.99,2.56,0.79,2.56,0.78,-0.78,-1.09,-0.46,1.78,1.77,1.77
31.30,2.61,0.84,2.61,0.85,-0.84,-1.15,-0.48,1.77,1.77,1.77
31.61,2.66,0.91,2.66,0.91,-0.91,-1.20,-0.49,1.75,1.76,1.75
31.93,2.71,0.97,2.71,0.96,-0.97,-1.26,-0.50,1.74,1.74,1.74
32.24,2.76,1.02,2.76,1.02,-1.03,-1.31,-0.52,1.74,1.73,1.74
32.57,2.81,1.08,2.81,1.08,-1.08,-1.37,-0.53,1.73,1.73,1.73
32.89,2.86,1.14,2.86,1.14,-1.14,-1.42,-0.54,1.72,1.72,1.72
33.22,2.91,1.20,2.91,1.20,-1.20,-1.47,-0.56,1.71,1.71,1.71
33.55,2.95,1.26,2.95,1.26,-1.26,-1.53,-0.57,1.69,1.70,1.70
33.89,3.00,1.32,3.00,1.31,-1.31,-1.58,-0.59,1.69,1.69,1.68
34.23,3.04,1.37,3.04,1.37,-1.37,-1.63,-0.60,1.67,1.68,1.67
34.57,3.09,1.42,3.09,1.42,-1.42,-1.68,-0.62,1.67,1.67,1.67
34.92,3.13,1.47,3.13,1.47,-1.47,-1.72,-0.64,1.66,1.66,1.66
35.27,3.17,1.52,3.17,1.52,-1.52,-1.77,-0.66,1.65,1.65,1.65
35.62,3.21,1.57,3.21,1.57,-1.57,-1.82,-0.67,1.64,1.64,1.64
35.97,3.25,1.62,3.25,1.61,-1.62,-1.86,-0.69,1.63,1.63,1.63
36.33,3.29,1.66,3.29,1.66,-1.66,-1.91,-0.71,1.63,1.62,1.63
36.70,3.32,1.70,3.32,1.71,-1.71,-1.95,-0.73,1.61,1.62,1.62
37.06,3.36,1.75,3.36,1.75,-1.75,-1.99,-0.75,1.61,1.61,1.61
37.43,3.40,1.80,3.40,1.80,-1.80,-2.03,-0.77,1.61,1.60,1.60
37.81,3.43,1.84,3.43,1.84,-1.84,-2.07,-0.80,1.59,1.59,1.59
38.19,3.47,1.88,3.46,1.88,-1.88,-2.11,-0.82,1.59,1.59,1.59
38.57,3.49,1.91,3.50,1.92,-1.92,-2.15,-0.84,1.57,1.58,1.58
38.95,3.53,1.96,3.53,1.96,-1.96,-2.18,-0.87,1.57,1.57,1.57
39.34,3.56,2.00,3.56,2.00,-2.00,-2.21,-0.89,1.56,1.56,1.56
39.74,3.59,2.03,3.59,2.03,-2.03,-2.25,-0.92,1.56,1.55,1.56
40.14,3.61,2.07,3.61,2.07,-2.07,-2.28,-0.95,1.54,1.54,1.54
40.54,3.64,2.10,3.64,2.10,-2.10,-2.31,-0.97,1.54,1.54,1.54
40.94,3.67,2.14,3.67,2.14,-2.14,-2.33,-1.00,1.53,1.53,1.53
41.35,3.69,2.17,3.69,2.17,-2.17,-2.36,-1.03,1.52,1.52,1.52
41.76,3.71,2.20,3.71,2.20,-2.20,-2.38,-1.06,1.51,1.51,1.51
42.18,3.73,2.23,3.73,2.23,-2.23,-2.41,-1.09,1.50,1.50,1.51
42.60,3.75,2.26,3.75,2.25,-2.26,-2.43,-1.12,1.49,1.49,1.49
43.03,3.76,2.27,3.76,2.28,-2.28,-2.45,-1.16,1.48,1.48,1.49
43.46,3.78,2.31,3.78,2.31,-2.31,-2.46,-1.19,1.47,1.48,1.47
43.90,3.80,2.33,3.80,2.33,-2.33,-2.48,-1.22,1.47,1.47,1.47
44.33,3.82,2.36,3.82,2.36,-2.35,-2.50,-1.26,1.47,1.46,1.46
44.78,3.82,2.37,3.83,2.37,-2.37,-2.51,-1.30,1.45,1.45,1.45
45.23,3.84,2.40,3.84,2.39,-2.39,-2.52,-1.34,1.45,1.44,1.44
45.68,3.84,2.40,3.85,2.41,-2.41,-2.53,-1.37,1.43,1.44,1.44
46.13,3.86,2.43,3.86,2.43,-2.43,-2.54,-1.41,1.43,1.43,1.43
46.60,3.87,2.44,3.87,2.44,-2.44,-2.55,-1.45,1.43,1.43,1.43
47.06,3.87,2.45,3.87,2.45,-2.45,-2.56,-1.50,1.42,1.42,1.42
47.53,3.88,2.47,3.88,2.46,-2.46,-2.56,-1.54,1.42,1.42,1.41
48.01,3.88,2.47,3.88,2.47,-2.47,-2.57,-1.58,1.41,1.41,1.41
48.49,3.88,2.48,3.88,2.48,-2.48,-2.57,-1.62,1.40,1.40,1.40
48.97,3.88,2.48,3.88,2.48,-2.48,-2.57,-1.67,1.40,1.39,1.39
49.46,3.87,2.48,3.87,2.49,-2.49,-2.57,-1.71,1.38,1.38,1.39
49.96,3.87,2.49,3.87,2.49,-2.49,-2.57,-1.76,1.38,1.38,1.38
50.46,3.87,2.50,3.87,2.50,-2.50,-2.57,-1.80,1.37,1.37,1.37
50.96,3.87,2.50,3.87,2.50,-2.50,-2.57,-1.85,1.37,1.37,1.37
51.47,3.86,2.50,3.86,2.50,-2.50,-2.56,-1.90,1.36,1.36,1.36
51.99,3.85,2.50,3.85,2.50,-2.50,-2.56,-1.94,1.35,1.35,1.35
52.51,3.84,2.50,3.84,2.50,-2.50,-2.56,-1.99,1.34,1.34,1.34
53.03,3.83,2.50,3.83,2.50,-2.50,-2.55,-2.04,1.33,1.33,1.33
53.56,3.82,2.50,3.82,2.50,-2.50,-2.54,-2.08,1.32,1.32,1.32
54.10,3.82,2.51,3.81,2.50,-2.50,-2.54,-2.13,1.32,1.31,1.31
54.64,3.79,2.49,3.80,2.50,-2.49,-2.53,-2.17,1.30,1.30,1.30
55.18,3.78,2.49,3.78,2.49,-2.49,-2.52,-2.21,1.29,1.29,1.29
55.74,3.76,2.48,3.76,2.48,-2.48,-2.51,-2.26,1.28,1.28,1.28
56.29,3.74,2.47,3.74,2.47,-2.47,-2.50,-2.30,1.27,1.27,1.27
56.86,3.72,2.46,3.72,2.47,-2.46,-2.49,-2.33,1.26,1.26,1.26
57.42,3.71,2.46,3.70,2.45,-2.45,-2.48,-2.37,1.26,1.25,1.25
58.00,3.68,2.44,3.68,2.44,-2.44,-2.46,-2.41,1.24,1.24,1.24
58.58,3.65,2.42,3.66,2.43,-2.42,-2.45,-2.44,1.23,1.23,1.23
59.16,3.63,2.41,3.63,2.41,-2.41,-2.44,-2.47,1.22,1.22,1.22
59.76,3.60,2.40,3.60,2.39,-2.39,-2.42,-2.50,1.21,1.21,1.20
60.35,3.57,2.37,3.57,2.37,-2.37,-2.41,-2.52,1.20,1.19,1.20
60.96,3.53,2.35,3.53,2.35,-2.35,-2.39,-2.54,1.18,1.18,1.18
61.57,3.50,2.33,3.50,2.33,-2.33,-2.37,-2.56,1.17,1.17,1.17
62.18,3.47,2.32,3.47,2.32,-2.31,-2.36,-2.58,1.16,1.16,1.15
62.80,3.44,2.30,3.44,2.29,-2.29,-2.34,-2.59,1.15,1.15,1.14
63.43,3.40,2.27,3.40,2.27,-2.27,-2.32,-2.60,1.13,1.13,1.13
64.07,3.35,2.24,3.35,2.24,-2.24,-2.29,-2.61,1.11,1.11,1.11
64.71,3.31,2.21,3.31,2.21,-2.22,-2.27,-2.62,1.09,1.09,1.10
65.35,3.26,2.18,3.26,2.18,-2.19,-2.25,-2.62,1.07,1.07,1.08
66.01,3.22,2.16,3.22,2.16,-2.16,-2.23,-2.62,1.06,1.06,1.06
66.67,3.18,2.14,3.18,2.13,-2.13,-2.20,-2.62,1.05,1.05,1.04
67.33,3.13,2.11,3.13,2.11,-2.10,-2.17,-2.61,1.03,1.03,1.02
68.01,3.07,2.07,3.07,2.07,-2.07,-2.15,-2.60,1.00,1.00,1.00
68.69,3.02,2.04,3.02,2.04,-2.04,-2.12,-2.59,0.98,0.98,0.98
69.37,2.96,2.00,2.96,2.00,-2.01,-2.09,-2.58,0.95,0.96,0.96
70.07,2.91,1.97,2.91,1.97,-1.97,-2.06,-2.57,0.94,0.94,0.94
70.77,2.86,1.94,2.86,1.94,-1.94,-2.03,-2.56,0.92,0.92,0.92
71.48,2.80,1.91,2.80,1.91,-1.91,-2.00,-2.55,0.89,0.89,0.89
72.19,2.74,1.87,2.74,1.88,-1.87,-1.97,-2.53,0.87,0.87,0.87
72.91,2.69,1.84,2.69,1.84,-1.84,-1.94,-2.52,0.85,0.84,0.84
73.64,2.63,1.82,2.63,1.81,-1.82,-1.91,-2.51,0.81,0.81,0.81
74.38,2.57,1.79,2.57,1.79,-1.79,-1.88,-2.49,0.78,0.79,0.78
75.12,2.52,1.76,2.52,1.76,-1.76,-1.85,-2.48,0.76,0.76,0.76
75.87,2.47,1.75,2.47,1.74,-1.74,-1.83,-2.47,0.73,0.73,0.72
76.63,2.41,1.71,2.41,1.72,-1.72,-1.80,-2.45,0.69,0.69,0.69
77.40,2.36,1.70,2.36,1.70,-1.71,-1.78,-2.44,0.65,0.66,0.66
78.17,2.31,1.69,2.31,1.69,-1.69,-1.76,-2.43,0.62,0.62,0.62
78.95,2.27,1.69,2.27,1.69,-1.69,-1.75,-2.42,0.58,0.58,0.58
79.74,2.22,1.68,2.22,1.68,-1.68,-1.74,-2.41,0.54,0.54,0.54
80.54,2.18,1.68,2.18,1.68,-1.68,-1.73,-2.41,0.50,0.50,0.50
81.35,2.15,1.69,2.15,1.69,-1.69,-1.73,-2.40,0.46,0.46,0.46
82.16,2.12,1.70,2.12,1.70,-1.70,-1.73,-2.40,0.42,0.42,0.42
82.98,2.08,1.70,2.09,1.71,-1.71,-1.74,-2.40,0.37,0.38,0.38
83.81,2.06,1.73,2.05,1.72,-1.72,-1.75,-2.40,0.34,0.33,0.33
84.65,2.02,1.74,2.03,1.74,-1.74,-1.77,-2.40,0.28,0.29,0.28
85.50,2.00,1.76,2.00,1.76,-1.76,-1.79,-2.40,0.24,0.24,0.24
86.35,1.99,1.79,1.98,1.78,-1.78,-1.81,-2.41,0.21,0.20,0.20
87.22,1.96,1.80,1.97,1.81,-1.81,-1.84,-2.42,0.15,0.16,0.16
88.09,1.96,1.85,1.95,1.84,-1.84,-1.87,-2.43,0.12,0.12,0.11
88.97,1.94,1.87,1.94,1.87,-1.87,-1.91,-2.44,0.07,0.07,0.07
89.86,1.93,1.91,1.93,1.91,-1.90,-1.94,-2.45,0.03,0.03,0.02
90.76,1.92,1.93,1.92,1.94,-1.94,-1.98,-2.47,-0.02,-0.02,-0.01
91.66,1.92,1.98,1.92,1.97,-1.97,-2.02,-2.48,-0.05,-0.06,-0.06
92.58,1.91,2.01,1.91,2.01,-2.01,-2.06,-2.50,-0.10,-0.10,-0.10
93.51,1.91,2.05,1.91,2.05,-2.05,-2.11,-2.52,-0.14,-0.14,-0.14
94.44,1.91,2.09,1.91,2.09,-2.09,-2.15,-2.55,-0.18,-0.18,-0.18
95.39,1.91,2.14,1.91,2.13,-2.13,-2.19,-2.57,-0.22,-0.22,-0.23
96.34,1.90,2.17,1.90,2.17,-2.17,-2.23,-2.60,-0.27,-0.27,-0.27
97.30,1.89,2.21,1.90,2.21,-2.21,-2.28,-2.62,-0.32,-0.31,-0.32
98.28,1.90,2.25,1.89,2.25,-2.25,-2.32,-2.65,-0.35,-0.36,-0.35
99.26,1.89,2.29,1.89,2.29,-2.30,-2.36,-2.68,-0.41,-0.41,-0.40
100.25,1.89,2.34,1.89,2.34,-2.34,-2.40,-2.71,-0.45,-0.45,-0.45
101.25,1.88,2.38,1.88,2.38,-2.38,-2.44,-2.74,-0.50,-0.50,-0.50
102.27,1.88,2.43,1.88,2.43,-2.43,-2.48,-2.78,-0.55,-0.55,-0.55
103.29,1.87,2.47,1.87,2.47,-2.47,-2.51,-2.81,-0.60,-0.60,-0.60
104.32,1.87,2.52,1.87,2.52,-2.51,-2.55,-2.84,-0.64,-0.65,-0.65
105.37,1.86,2.56,1.86,2.55,-2.55,-2.59,-2.87,-0.69,-0.70,-0.70
106.42,1.84,2.59,1.84,2.59,-2.59,-2.62,-2.90,-0.75,-0.75,-0.75
107.48,1.83,2.63,1.83,2.63,-2.63,-2.66,-2.94,-0.80,-0.80,-0.80
108.56,1.82,2.67,1.82,2.67,-2.67,-2.69,-2.96,-0.85,-0.85,-0.85
109.64,1.81,2.71,1.81,2.71,-2.71,-2.73,-2.99,-0.90,-0.90,-0.90
110.74,1.80,2.75,1.80,2.74,-2.74,-2.76,-3.02,-0.94,-0.94,-0.95
111.85,1.78,2.77,1.78,2.77,-2.77,-2.79,-3.04,-0.99,-0.99,-0.99
112.97,1.76,2.80,1.76,2.80,-2.80,-2.82,-3.06,-1.04,-1.04,-1.04
114.10,1.73,2.82,1.74,2.83,-2.83,-2.85,-3.08,-1.10,-1.09,-1.09
115.24,1.71,2.85,1.71,2.85,-2.85,-2.88,-3.09,-1.14,-1.14,-1.14
116.39,1.69,2.88,1.68,2.87,-2.87,-2.91,-3.10,-1.18,-1.19,-1.19
117.55,1.65,2.89,1.65,2.89,-2.89,-2.93,-3.11,-1.24,-1.23,-1.24
118.73,1.62,2.90,1.62,2.90,-2.90,-2.95,-3.11,-1.28,-1.28,-1.28
119.92,1.59,2.91,1.59,2.91,-2.91,-2.97,-3.11,-1.32,-1.32,-1.32
121.12,1.55,2.92,1.55,2.92,-2.91,-2.99,-3.10,-1.36,-1.36,-1.37
122.33,1.51,2.91,1.51,2.92,-2.92,-2.99,-3.08,-1.41,-1.41,-1.40
123.55,1.47,2.92,1.47,2.91,-2.92,-2.99,-3.06,-1.45,-1.45,-1.45
124.79,1.42,2.90,1.42,2.91,-2.91,-2.99,-3.04,-1.49,-1.49,-1.48
126.03,1.38,2.91,1.38,2.90,-2.91,-2.98,-3.01,-1.53,-1.53,-1.53
127.29,1.33,2.89,1.33,2.89,-2.90,-2.96,-2.97,-1.57,-1.57,-1.56
128.57,1.28,2.88,1.28,2.88,-2.88,-2.93,-2.93,-1.60,-1.60,-1.60
129.85,1.23,2.87,1.23,2.87,-2.87,-2.90,-2.88,-1.64,-1.64,-1.64
131.15,1.17,2.84,1.17,2.85,-2.84,-2.86,-2.83,-1.67,-1.67,-1.67
132.46,1.12,2.83,1.11,2.82,-2.82,-2.82,-2.77,-1.70,-1.70,-1.71
133.79,1.05,2.79,1.05,2.79,-2.79,-2.78,-2.71,-1.74,-1.73,-1.74
135.12,0.98,2.75,0.98,2.75,-2.75,-2.73,-2.64,-1.77,-1.77,-1.77
136.48,0.91,2.71,0.91,2.71,-2.71,-2.68,-2.56,-1.80,-1.80,-1.80
137.84,0.83,2.65,0.83,2.66,-2.66,-2.63,-2.49,-1.83,-1.83,-1.82
139.22,0.76,2.61,0.76,2.61,-2.61,-2.57,-2.41,-1.85,-1.85,-1.85
140.61,0.68,2.56,0.68,2.55,-2.56,-2.52,-2.32,-1.88,-1.88,-1.88
142.02,0.60,2.50,0.60,2.50,-2.50,-2.46,-2.23,-1.90,-1.90,-1.90
143.44,0.52,2.44,0.52,2.44,-2.44,-2.41,-2.14,-1.92,-1.92,-1.92
144.87,0.44,2.38,0.44,2.38,-2.38,-2.35,-2.05,-1.94,-1.94,-1.94
146.32,0.36,2.32,0.36,2.32,-2.32,-2.29,-1.95,-1.96,-1.96,-1.96
147.78,0.27,2.25,0.28,2.26,-2.26,-2.23,-1.85,-1.99,-1.98,-1.98
149.26,0.20,2.20,0.19,2.19,-2.19,-2.17,-1.75,-1.99,-2.00,-2.00
150.75,0.11,2.13,0.11,2.13,-2.13,-2.11,-1.65,-2.02,-2.02,-2.02
152.26,0.03,2.06,0.03,2.06,-2.06,-2.05,-1.55,-2.03,-2.03,-2.03
153.78,-0.05,2.00,-0.05,1.99,-1.99,-1.98,-1.44,-2.04,-2.04,-2.05
155.32,-0.14,1.92,-0.14,1.92,-1.92,-1.92,-1.34,-2.06,-2.06,-2.06
156.88,-0.23,1.84,-0.23,1.84,-1.85,-1.85,-1.23,-2.08,-2.07,-2.07
158.44,-0.32,1.76,-0.32,1.77,-1.77,-1.78,-1.13,-2.09,-2.09,-2.08
160.03,-0.40,1.69,-0.41,1.69,-1.69,-1.71,-1.02,-2.09,-2.10,-2.09
161.63,-0.50,1.61,-0.50,1.61,-1.61,-1.63,-0.91,-2.11,-2.10,-2.11
163.24,-0.59,1.53,-0.59,1.53,-1.52,-1.56,-0.80,-2.11,-2.11,-2.12
164.88,-0.69,1.44,-0.69,1.44,-1.43,-1.48,-0.69,-2.12,-2.12,-2.13
166.53,-0.79,1.35,-0.79,1.34,-1.34,-1.40,-0.58,-2.13,-2.14,-2.13
168.19,-0.90,1.24,-0.90,1.25,-1.25,-1.31,-0.48,-2.15,-2.15,-2.14
169.87,-1.01,1.14,-1.01,1.15,-1.15,-1.23,-0.37,-2.16,-2.16,-2.15
171.57,-1.11,1.06,-1.11,1.05,-1.05,-1.14,-0.26,-2.16,-2.17,-2.17
173.29,-1.23,0.95,-1.23,0.95,-0.95,-1.05,-0.15,-2.18,-2.17,-2.18
175.02,-1.34,0.84,-1.34,0.84,-0.84,-0.95,-0.04,-2.18,-2.18,-2.18
176.77,-1.47,0.73,-1.47,0.73,-0.73,-0.85,0.07,-2.20,-2.20,-2.20
178.54,-1.59,0.61,-1.59,0.62,-0.62,-0.75,0.18,-2.21,-2.21,-2.20
180.32,-1.71,0.51,-1.72,0.50,-0.50,-0.64,0.29,-2.22,-2.22,-2.22
182.13,-1.85,0.38,-1.85,0.39,-0.39,-0.54,0.40,-2.24,-2.24,-2.23
183.95,-1.99,0.26,-1.98,0.27,-0.27,-0.42,0.51,-2.25,-2.25,-2.25
185.79,-2.12,0.14,-2.12,0.14,-0.14,-0.31,0.62,-2.26,-2.26,-2.26
187.65,-2.26,0.02,-2.26,0.01,-0.01,-0.19,0.73,-2.27,-2.27,-2.28
189.52,-2.41,-0.12,-2.40,-0.12,0.12,-0.06,0.84,-2.29,-2.28,-2.29
191.42,-2.55,-0.25,-2.56,-0.25,0.26,0.07,0.95,-2.29,-2.30,-2.30
193.33,-2.71,-0.40,-2.71,-0.40,0.40,0.20,1.06,-2.31,-2.31,-2.31
195.27,-2.87,-0.54,-2.87,-0.54,0.54,0.33,1.17,-2.33,-2.33,-2.33
197.22,-3.03,-0.68,-3.03,-0.68,0.68,0.47,1.28,-2.34,-2.34,-2.35
199.19,-3.19,-0.83,-3.19,-0.83,0.83,0.61,1.39,-2.36,-2.36,-2.36
201.18,-3.35,-0.97,-3.36,-0.98,0.98,0.76,1.50,-2.37,-2.37,-2.38
203.19,-3.53,-1.14,-3.52,-1.13,1.13,0.91,1.60,-2.40,-2.39,-2.39
205.23,-3.69,-1.28,-3.69,-1.29,1.28,1.06,1.71,-2.40,-2.41,-2.41
207.28,-3.86,-1.44,-3.86,-1.44,1.44,1.22,1.81,-2.42,-2.42,-2.42
209.35,-4.02,-1.58,-4.02,-1.58,1.59,1.38,1.92,-2.43,-2.44,-2.44
211.44,-4.18,-1.72,-4.18,-1.73,1.73,1.54,2.02,-2.45,-2.45,-2.46
213.56,-4.35,-1.89,-4.35,-1.88,1.88,1.70,2.12,-2.47,-2.47,-2.46
215.69,-4.50,-2.02,-4.50,-2.02,2.02,1.86,2.21,-2.48,-2.48,-2.48
217.85,-4.66,-2.17,-4.66,-2.16,2.16,2.02,2.31,-2.50,-2.50,-2.49
220.03,-4.80,-2.29,-4.80,-2.29,2.29,2.19,2.40,-2.51,-2.51,-2.51
222.23,-4.94,-2.42,-4.94,-2.43,2.43,2.35,2.48,-2.51,-2.51,-2.52
224.45,-5.07,-2.55,-5.07,-2.55,2.55,2.51,2.56,-2.52,-2.52,-2.52
226.70,-5.21,-2.68,-5.21,-2.68,2.68,2.66,2.64,-2.53,-2.53,-2.53
228.96,-5.33,-2.79,-5.33,-2.80,2.79,2.82,2.71,-2.54,-2.54,-2.54
231.25,-5.45,-2.91,-5.45,-2.91,2.91,2.96,2.78,-2.54,-2.55,-2.54
233.57,-5.56,-3.02,-5.56,-3.01,3.01,3.10,2.84,-2.55,-2.54,-2.54
235.90,-5.66,-3.12,-5.66,-3.12,3.12,3.23,2.90,-2.54,-2.54,-2.54
238.26,-5.75,-3.21,-5.75,-3.21,3.21,3.35,2.94,-2.54,-2.54,-2.54
240.64,-5.85,-3.31,-5.85,-3.30,3.31,3.47,2.99,-2.54,-2.54,-2.54
243.05,-5.93,-3.39,-5.93,-3.40,3.40,3.56,3.02,-2.53,-2.53,-2.54
245.48,-6.02,-3.48,-6.02,-3.48,3.49,3.65,3.05,-2.53,-2.53,-2.54
247.93,-6.10,-3.57,-6.10,-3.56,3.58,3.72,3.07,-2.52,-2.52,-2.53
250.41,-6.17,-3.64,-6.18,-3.65,3.66,3.77,3.08,-2.51,-2.52,-2.53
252.92,-6.25,-3.72,-6.25,-3.73,3.74,3.81,3.08,-2.51,-2.52,-2.53
255.45,-6.33,-3.80,-6.33,-3.80,3.81,3.83,3.08,-2.52,-2.52,-2.53
258.00,-6.39,-3.87,-6.39,-3.87,3.86,3.84,3.07,-2.53,-2.53,-2.52
260.58,-6.43,-3.91,-6.43,-3.91,3.90,3.83,3.05,-2.53,-2.53,-2.52
263.19,-6.46,-3.93,-6.46,-3.93,3.92,3.80,3.03,-2.54,-2.54,-2.53
265.82,-6.45,-3.93,-6.45,-3.93,3.91,3.76,3.00,-2.54,-2.54,-2.52
268.48,-6.42,-3.89,-6.42,-3.89,3.87,3.71,2.96,-2.55,-2.54,-2.53
271.16,-6.35,-3.82,-6.35,-3.83,3.81,3.64,2.92,-2.54,-2.55,-2.53
273.87,-6.26,-3.73,-6.26,-3.73,3.72,3.55,2.87,-2.54,-2.54,-2.53
276.61,-6.14,-3.61,-6.14,-3.61,3.60,3.46,2.82,-2.54,-2.54,-2.53
279.38,-5.99,-3.46,-5.99,-3.47,3.46,3.36,2.76,-2.53,-2.53,-2.53
282.17,-5.84,-3.31,-5.84,-3.31,3.31,3.25,2.70,-2.53,-2.52,-2.53
284.99,-5.67,-3.15,-5.67,-3.15,3.15,3.13,2.63,-2.52,-2.52,-2.52
287.84,-5.51,-2.98,-5.51,-2.98,2.99,3.01,2.56,-2.52,-2.52,-2.53
290.72,-5.34,-2.82,-5.34,-2.82,2.83,2.88,2.49,-2.51,-2.51,-2.52
293.63,-5.18,-2.66,-5.18,-2.66,2.67,2.76,2.41,-2.51,-2.51,-2.52
296.57,-5.03,-2.52,-5.03,-2.51,2.53,2.62,2.33,-2.50,-2.51,-2.51
299.53,-4.89,-2.37,-4.89,-2.38,2.38,2.49,2.26,-2.51,-2.51,-2.52
302.53,-4.76,-2.25,-4.76,-2.25,2.25,2.36,2.18,-2.51,-2.51,-2.51
305.55,-4.63,-2.13,-4.63,-2.13,2.13,2.22,2.09,-2.50,-2.50,-2.50
308.61,-4.51,-2.02,-4.51,-2.01,2.01,2.09,2.01,-2.50,-2.50,-2.49
311.69,-4.39,-1.90,-4.39,-1.90,1.90,1.96,1.93,-2.49,-2.49,-2.49
314.81,-4.27,-1.79,-4.27,-1.80,1.80,1.83,1.85,-2.47,-2.48,-2.48
317.96,-4.17,-1.70,-4.16,-1.69,1.69,1.71,1.76,-2.48,-2.47,-2.47
321.14,-4.05,-1.59,-4.05,-1.59,1.59,1.59,1.68,-2.46,-2.46,-2.46
324.35,-3.95,-1.50,-3.95,-1.50,1.49,1.47,1.60,-2.46,-2.46,-2.45
327.59,-3.85,-1.40,-3.85,-1.40,1.40,1.35,1.51,-2.45,-2.45,-2.44
330.87,-3.75,-1.30,-3.75,-1.31,1.30,1.24,1.43,-2.45,-2.44,-2.45
334.18,-3.65,-1.21,-3.65,-1.21,1.21,1.13,1.35,-2.44,-2.44,-2.44
337.52,-3.55,-1.11,-3.55,-1.12,1.12,1.02,1.27,-2.43,-2.43,-2.44
340.90,-3.46,-1.03,-3.46,-1.03,1.03,0.92,1.19,-2.43,-2.43,-2.43
344.30,-3.37,-0.94,-3.37,-0.94,0.94,0.82,1.11,-2.43,-2.43,-2.43
347.75,-3.29,-0.86,-3.28,-0.85,0.85,0.72,1.03,-2.44,-2.44,-2.43
351.23,-3.19,-0.76,-3.20,-0.76,0.75,0.63,0.95,-2.44,-2.44,-2.43
354.74,-3.11,-0.67,-3.11,-0.67,0.66,0.54,0.87,-2.45,-2.45,-2.44
358.28,-3.02,-0.57,-3.02,-0.57,0.57,0.45,0.79,-2.45,-2.45,-2.45
361.87,-2.92,-0.47,-2.92,-0.48,0.48,0.37,0.72,-2.44,-2.45,-2.45
365.49,-2.83,-0.38,-2.83,-0.38,0.38,0.29,0.64,-2.45,-2.45,-2.45
369.14,-2.74,-0.29,-2.74,-0.29,0.29,0.22,0.57,-2.45,-2.45,-2.45
372.83,-2.65,-0.20,-2.65,-0.20,0.20,0.15,0.49,-2.45,-2.45,-2.45
376.56,-2.56,-0.12,-2.56,-0.12,0.12,0.08,0.42,-2.44,-2.44,-2.44
380.33,-2.48,-0.04,-2.48,-0.04,0.04,0.01,0.35,-2.44,-2.44,-2.44
384.13,-2.40,0.04,-2.40,0.04,-0.04,-0.05,0.28,-2.44,-2.44,-2.44
387.97,-2.33,0.11,-2.33,0.11,-0.11,-0.11,0.21,-2.44,-2.44,-2.44
391.85,-2.25,0.19,-2.25,0.18,-0.18,-0.17,0.14,-2.43,-2.43,-2.44
395.77,-2.18,0.25,-2.18,0.25,-0.24,-0.23,0.07,-2.42,-2.42,-2.43
399.73,-2.11,0.31,-2.11,0.31,-0.31,-0.28,-0.00,-2.42,-2.42,-2.42
403.72,-2.05,0.37,-2.05,0.36,-0.36,-0.33,-0.07,-2.41,-2.41,-2.42
407.76,-2.00,0.41,-1.99,0.41,-0.42,-0.38,-0.13,-2.42,-2.41,-2.41
411.84,-1.94,0.46,-1.94,0.46,-0.47,-0.42,-0.20,-2.41,-2.40,-2.40
415.96,-1.88,0.51,-1.88,0.51,-0.51,-0.47,-0.26,-2.39,-2.40,-2.39
420.12,-1.83,0.56,-1.83,0.56,-0.56,-0.51,-0.33,-2.39,-2.39,-2.39
424.32,-1.78,0.60,-1.78,0.60,-0.60,-0.55,-0.39,-2.38,-2.38,-2.38
428.56,-1.73,0.64,-1.73,0.64,-0.64,-0.59,-0.45,-2.37,-2.37,-2.37
432.85,-1.69,0.67,-1.69,0.68,-0.68,-0.62,-0.51,-2.37,-2.36,-2.36
437.18,-1.64,0.71,-1.64,0.71,-0.71,-0.66,-0.56,-2.35,-2.35,-2.35
441.55,-1.60,0.74,-1.60,0.74,-0.74,-0.69,-0.62,-2.34,-2.34,-2.34
445.96,-1.57,0.76,-1.57,0.77,-0.77,-0.72,-0.67,-2.34,-2.33,-2.33
450.42,-1.53,0.79,-1.53,0.79,-0.79,-0.75,-0.73,-2.32,-2.33,-2.32
454.93,-1.50,0.81,-1.50,0.81,-0.82,-0.78,-0.78,-2.32,-2.32,-2.31
459.48,-1.47,0.84,-1.47,0.84,-0.84,-0.80,-0.82,-2.31,-2.30,-2.31
464.07,-1.44,0.86,-1.44,0.86,-0.86,-0.83,-0.87,-2.30,-2.30,-2.30
468.71,-1.41,0.88,-1.41,0.87,-0.87,-0.85,-0.91,-2.28,-2.29,-2.29
473.40,-1.39,0.89,-1.39,0.89,-0.89,-0.88,-0.95,-2.28,-2.28,-2.28
478.13,-1.36,0.91,-1.36,0.90,-0.90,-0.90,-0.99,-2.26,-2.27,-2.27
482.91,-1.34,0.91,-1.33,0.92,-0.92,-0.92,-1.03,-2.26,-2.25,-2.25
487.74,-1.30,0.94,-1.31,0.93,-0.93,-0.94,-1.06,-2.23,-2.23,-2.24
