frequency,raw,error,smoothed,error_smoothed,equalization,parametric_eq,fixed_band_eq,equalized_raw,equalized_smoothed,target
20.00,6.36,-1.18,6.36,-1.18,1.19,1.29,-0.31,7.55,7.55,7.54
20.20,6.43,-1.12,6.42,-1.12,1.12,1.26,-0.32,7.55,7.55,7.55
20.40,6.49,-1.07,6.49,-1.06,1.06,1.23,-0.33,7.55,7.55,7.56
20.61,6.55,-1.00,6.56,-1.00,1.00,1.20,-0.33,7.55,7.55,7.56
20.81,6.63,-0.94,6.63,-0.94,0.93,1.16,-0.34,7.56,7.56,7.57
21.02,6.70,-0.87,6.69,-0.88,0.87,1.13,-0.35,7.57,7.57,7.57
21.23,6.76,-0.82,6.76,-0.82,0.81,1.09,-0.36,7.57,7.57,7.58
21.44,6.82,-0.76,6.82,-0.76,0.76,1.06,-0.36,7.57,7.57,7.58
21.66,6.88,-0.70,6.88,-0.70,0.70,1.02,-0.37,7.58,7.58,7.58
21.87,6.94,-0.64,6.94,-0.64,0.65,0.98,-0.38,7.59,7.59,7.57
22.09,7.00,-0.59,6.99,-0.59,0.60,0.94,-0.39,7.59,7.59,7.58
22.31,7.04,-0.55,7.04,-0.54,0.55,0.91,-0.40,7.58,7.58,7.58
22.54,7.08,-0.50,7.08,-0.50,0.49,0.87,-0.41,7.57,7.57,7.57
22.76,7.12,-0.45,7.11,-0.45,0.44,0.83,-0.42,7.56,7.56,7.56
22.99,7.16,-0.41,7.16,-0.40,0.39,0.79,-0.43,7.54,7.55,7.56
23.22,7.21,-0.36,7.21,-0.35,0.34,0.75,-0.44,7.54,7.55,7.56
23.45,7.27,-0.29,7.27,-0.29,0.29,0.71,-0.45,7.56,7.56,7.55
23.69,7.33,-0.23,7.32,-0.23,0.25,0.68,-0.46,7.57,7.57,7.55
23.92,7.38,-0.18,7.37,-0.18,0.21,0.64,-0.47,7.58,7.58,7.55
24.16,7.41,-0.15,7.41,-0.15,0.17,0.60,-0.48,7.57,7.57,7.55
24.40,7.43,-0.12,7.43,-0.12,0.13,0.57,-0.49,7.55,7.55,7.55
24.65,7.45,-0.10,7.45,-0.11,0.09,0.53,-0.50,7.54,7.54,7.55
24.89,7.47,-0.08,7.47,-0.08,0.05,0.50,-0.51,7.52,7.52,7.55
25.14,7.51,-0.04,7.51,-0.04,0.01,0.46,-0.52,7.52,7.52,7.55
25.39,7.56,0.02,7.56,0.02,-0.02,0.43,-0.54,7.53,7.53,7.54
25.65,7.62,0.08,7.61,0.07,-0.06,0.39,-0.55,7.55,7.55,7.54
25.91,7.67,0.13,7.66,0.13,-0.10,0.36,-0.56,7.56,7.56,7.54
26.16,7.71,0.17,7.70,0.17,-0.15,0.33,-0.57,7.56,7.56,7.54
26.43,7.74,0.20,7.74,0.20,-0.19,0.30,-0.58,7.54,7.54,7.54
26.69,7.77,0.23,7.76,0.23,-0.24,0.27,-0.59,7.53,7.53,7.54
26.96,7.80,0.26,7.80,0.26,-0.28,0.24,-0.61,7.51,7.52,7.54
27.23,7.84,0.30,7.84,0.31,-0.32,0.21,-0.62,7.51,7.52,7.53
27.50,7.90,0.36,7.89,0.36,-0.36,0.18,-0.63,7.53,7.53,7.53
27.77,7.95,0.41,7.95,0.41,-0.40,0.15,-0.64,7.55,7.54,7.53
28.05,8.00,0.46,7.99,0.46,-0.44,0.12,-0.65,7.56,7.55,7.53
28.33,8.02,0.48,8.02,0.49,-0.48,0.10,-0.66,7.54,7.54,7.53
28.62,8.05,0.51,8.05,0.51,-0.51,0.07,-0.67,7.53,7.53,7.53
28.90,8.08,0.54,8.08,0.54,-0.55,0.04,-0.68,7.53,7.53,7.54
29.19,8.11,0.57,8.11,0.57,-0.57,0.02,-0.69,7.54,7.54,7.54
29.48,8.14,0.60,8.14,0.59,-0.59,-0.01,-0.70,7.55,7.55,7.54
29.78,8.17,0.62,8.16,0.62,-0.61,-0.03,-0.71,7.56,7.55,7.55
30.08,8.19,0.64,8.19,0.64,-0.63,-0.06,-0.72,7.55,7.55,7.55
30.38,8.21,0.66,8.20,0.65,-0.66,-0.08,-0.73,7.55,7.54,7.55
30.68,8.22,0.67,8.21,0.67,-0.69,-0.11,-0.74,7.53,7.53,7.54
30.99,8.23,0.68,8.24,0.70,-0.72,-0.13,-0.75,7.51,7.52,7.54
31.30,8.28,0.73,8.28,0.74,-0.75,-0.16,-0.76,7.53,7.53,7.54
31.61,8.33,0.79,8.32,0.78,-0.77,-0.18,-0.77,7.55,7.55,7.54
31.93,8.38,0.84,8.36,0.83,-0.80,-0.20,-0.77,7.58,7.56,7.54
32.24,8.39,0.86,8.38,0.85,-0.83,-0.22,-0.78,7.56,7.55,7.53
32.57,8.39,0.86,8.39,0.86,-0.86,-0.25,-0.79,7.53,7.53,7.53
32.89,8.39,0.86,8.39,0.87,-0.89,-0.27,-0.79,7.50,7.51,7.52
33.22,8.41,0.89,8.41,0.90,-0.92,-0.29,-0.80,7.49,7.50,7.51
33.55,8.45,0.93,8.44,0.93,-0.94,-0.32,-0.81,7.50,7.50,7.51
33.89,8.48,0.98,8.48,0.97,-0.97,-0.34,-0.81,7.50,7.50,7.50
34.23,8.51,1.01,8.51,1.01,-1.01,-0.36,-0.82,7.50,7.50,7.50
34.57,8.55,1.05,8.54,1.05,-1.05,-0.38,-0.82,7.50,7.50,7.50
34.92,8.58,1.08,8.58,1.08,-1.08,-0.40,-0.83,7.49,7.49,7.49
35.27,8.62,1.12,8.62,1.12,-1.12,-0.43,-0.84,7.50,7.50,7.49
35.62,8.65,1.16,8.65,1.16,-1.15,-0.45,-0.84,7.50,7.50,7.49
35.97,8.69,1.20,8.67,1.19,-1.17,-0.47,-0.85,7.51,7.50,7.49
36.33,8.69,1.20,8.68,1.20,-1.20,-0.49,-0.85,7.49,7.49,7.49
36.70,8.69,1.20,8.69,1.21,-1.22,-0.51,-0.86,7.47,7.48,7.48
37.06,8.70,1.21,8.70,1.22,-1.23,-0.54,-0.87,7.46,7.47,7.48
37.43,8.73,1.25,8.73,1.24,-1.25,-0.56,-0.88,7.48,7.48,7.48
37.81,8.76,1.27,8.75,1.27,-1.26,-0.58,-0.88,7.49,7.49,7.49
38.19,8.78,1.29,8.77,1.29,-1.28,-0.60,-0.89,7.49,7.49,7.48
38.57,8.79,1.30,8.78,1.30,-1.30,-0.62,-0.90,7.48,7.48,7.48
38.95,8.79,1.30,8.80,1.31,-1.33,-0.65,-0.91,7.46,7.47,7.49
39.34,8.82,1.33,8.82,1.34,-1.35,-0.67,-0.92,7.47,7.48,7.49
39.74,8.86,1.37,8.85,1.37,-1.37,-0.69,-0.93,7.49,7.49,7.48
40.14,8.89,1.41,8.88,1.40,-1.38,-0.71,-0.94,7.50,7.49,7.48
40.54,8.89,1.41,8.89,1.41,-1.40,-0.73,-0.95,7.49,7.49,7.48
40.94,8.89,1.41,8.89,1.42,-1.41,-0.76,-0.97,7.48,7.48,7.47
41.35,8.89,1.42,8.89,1.42,-1.42,-0.78,-0.98,7.47,7.47,7.47
41.76,8.89,1.43,8.89,1.43,-1.42,-0.80,-0.99,7.46,7.46,7.46
42.18,8.89,1.43,8.88,1.43,-1.43,-0.83,-1.01,7.45,7.45,7.45
42.60,8.89,1.44,8.89,1.44,-1.45,-0.85,-1.02,7.44,7.44,7.45
43.03,8.89,1.44,8.89,1.45,-1.47,-0.87,-1.04,7.42,7.42,7.44
43.46,8.91,1.47,8.90,1.47,-1.50,-0.90,-1.05,7.41,7.40,7.44
43.90,8.93,1.50,8.94,1.51,-1.54,-0.92,-1.07,7.39,7.40,7.42
44.33,8.99,1.57,8.99,1.57,-1.57,-0.94,-1.09,7.42,7.42,7.42
44.78,9.06,1.64,9.04,1.63,-1.60,-0.97,-1.11,7.45,7.44,7.41
45.23,9.09,1.68,9.08,1.67,-1.63,-0.99,-1.13,7.46,7.45,7.41
45.68,9.09,1.68,9.09,1.68,-1.65,-1.02,-1.15,7.43,7.44,7.40
46.13,9.09,1.68,9.09,1.68,-1.67,-1.04,-1.17,7.41,7.42,7.41
46.60,9.09,1.68,9.09,1.68,-1.69,-1.06,-1.19,7.40,7.40,7.40
47.06,9.09,1.68,9.08,1.67,-1.70,-1.09,-1.21,7.39,7.38,7.41
47.53,9.09,1.68,9.08,1.67,-1.71,-1.12,-1.24,7.38,7.38,7.41
48.01,9.09,1.67,9.11,1.69,-1.71,-1.14,-1.26,7.37,7.39,7.41
48.49,9.14,1.72,9.14,1.72,-1.72,-1.17,-1.28,7.41,7.42,7.42
48.97,9.20,1.78,9.17,1.75,-1.73,-1.19,-1.31,7.46,7.44,7.42
49.46,9.20,1.77,9.20,1.77,-1.74,-1.22,-1.34,7.45,7.46,7.42
49.96,9.20,1.76,9.20,1.77,-1.75,-1.25,-1.36,7.45,7.45,7.44
50.46,9.20,1.76,9.20,1.75,-1.76,-1.27,-1.39,7.44,7.44,7.44
50.96,9.20,1.75,9.20,1.75,-1.76,-1.30,-1.42,7.44,7.44,7.45
51.47,9.20,1.74,9.20,1.74,-1.76,-1.33,-1.45,7.44,7.44,7.45
51.99,9.20,1.74,9.20,1.74,-1.75,-1.36,-1.47,7.44,7.44,7.45
52.51,9.20,1.74,9.20,1.74,-1.74,-1.38,-1.50,7.45,7.45,7.46
53.03,9.20,1.74,9.20,1.74,-1.73,-1.41,-1.53,7.46,7.47,7.46
53.56,9.20,1.74,9.20,1.74,-1.72,-1.44,-1.56,7.47,7.48,7.46
54.10,9.20,1.73,9.19,1.72,-1.71,-1.47,-1.59,7.49,7.48,7.47
54.64,9.17,1.70,9.17,1.70,-1.70,-1.50,-1.62,7.47,7.47,7.47
55.18,9.15,1.68,9.14,1.68,-1.68,-1.53,-1.65,7.46,7.46,7.47
55.74,9.11,1.65,9.11,1.65,-1.67,-1.56,-1.68,7.44,7.44,7.46
56.29,9.09,1.63,9.09,1.64,-1.66,-1.59,-1.71,7.43,7.44,7.45
56.86,9.09,1.63,9.09,1.64,-1.64,-1.62,-1.74,7.44,7.44,7.45
57.42,9.09,1.64,9.09,1.64,-1.63,-1.65,-1.77,7.45,7.45,7.44
58.00,9.09,1.66,9.07,1.64,-1.62,-1.68,-1.80,7.47,7.44,7.43
58.58,9.03,1.61,9.04,1.62,-1.61,-1.71,-1.83,7.42,7.43,7.42
59.16,8.99,1.58,9.00,1.60,-1.59,-1.75,-1.86,7.40,7.41,7.40
59.76,8.98,1.59,8.97,1.58,-1.57,-1.78,-1.89,7.40,7.40,7.39
60.35,8.95,1.58,8.93,1.57,-1.56,-1.81,-1.92,7.39,7.37,7.37
60.96,8.89,1.55,8.88,1.54,-1.55,-1.84,-1.94,7.34,7.34,7.34
61.57,8.83,1.51,8.83,1.52,-1.55,-1.88,-1.97,7.28,7.29,7.32
62.18,8.79,1.51,8.80,1.52,-1.55,-1.91,-2.00,7.24,7.25,7.28
62.80,8.79,1.54,8.78,1.54,-1.56,-1.95,-2.02,7.23,7.22,7.24
63.43,8.79,1.59,8.78,1.58,-1.58,-1.98,-2.05,7.21,7.21,7.20
64.07,8.79,1.63,8.78,1.62,-1.59,-2.02,-2.07,7.19,7.19,7.16
64.71,8.77,1.65,8.76,1.64,-1.62,-2.05,-2.10,7.15,7.15,7.11
65.35,8.74,1.66,8.73,1.66,-1.64,-2.09,-2.12,7.10,7.09,7.08
66.01,8.69,1.65,8.70,1.67,-1.67,-2.12,-2.15,7.02,7.04,7.04
66.67,8.69,1.69,8.69,1.69,-1.69,-2.16,-2.17,6.99,6.99,7.00
67.33,8.69,1.72,8.68,1.71,-1.73,-2.20,-2.19,6.96,6.95,6.97
68.01,8.69,1.76,8.68,1.75,-1.77,-2.24,-2.22,6.91,6.91,6.93
68.69,8.69,1.79,8.69,1.80,-1.82,-2.27,-2.24,6.86,6.87,6.90
69.37,8.72,1.85,8.73,1.87,-1.88,-2.31,-2.27,6.84,6.85,6.87
70.07,8.79,1.95,8.78,1.95,-1.94,-2.35,-2.29,6.85,6.84,6.83
70.77,8.85,2.04,8.84,2.03,-2.00,-2.39,-2.32,6.85,6.84,6.80
71.48,8.88,2.10,8.88,2.10,-2.06,-2.43,-2.34,6.82,6.82,6.78
72.19,8.90,2.15,8.89,2.14,-2.13,-2.47,-2.37,6.77,6.76,6.75
72.91,8.89,2.18,8.89,2.17,-2.19,-2.51,-2.40,6.69,6.69,6.71
73.64,8.89,2.21,8.90,2.22,-2.26,-2.55,-2.42,6.63,6.64,6.68
74.38,8.93,2.29,8.94,2.30,-2.32,-2.59,-2.45,6.60,6.61,6.64
75.12,9.00,2.39,8.99,2.39,-2.39,-2.64,-2.49,6.61,6.60,6.60
75.87,9.06,2.50,9.04,2.48,-2.46,-2.68,-2.52,6.59,6.58,6.56
76.63,9.08,2.56,9.07,2.55,-2.54,-2.72,-2.55,6.54,6.53,6.52
77.40,9.09,2.61,9.10,2.62,-2.62,-2.76,-2.59,6.47,6.48,6.47
78.17,9.11,2.67,9.13,2.70,-2.70,-2.81,-2.62,6.41,6.43,6.43
78.95,9.20,2.81,9.16,2.78,-2.78,-2.85,-2.66,6.42,6.39,6.39
79.74,9.20,2.85,9.20,2.85,-2.85,-2.89,-2.70,6.34,6.34,6.35
80.54,9.22,2.92,9.23,2.93,-2.93,-2.94,-2.75,6.29,6.30,6.30
81.35,9.25,2.99,9.25,2.99,-3.00,-2.98,-2.79,6.24,6.24,6.26
82.16,9.30,3.08,9.28,3.07,-3.08,-3.03,-2.84,6.22,6.20,6.21
82.98,9.30,3.12,9.32,3.14,-3.15,-3.08,-2.89,6.15,6.17,6.17
83.81,9.36,3.23,9.35,3.22,-3.22,-3.12,-2.94,6.14,6.13,6.13
84.65,9.39,3.29,9.38,3.28,-3.28,-3.17,-2.99,6.11,6.10,6.10
85.50,9.40,3.34,9.40,3.34,-3.33,-3.22,-3.05,6.06,6.06,6.05
86.35,9.40,3.39,9.41,3.40,-3.38,-3.27,-3.10,6.02,6.03,6.01
87.22,9.40,3.43,9.39,3.42,-3.41,-3.31,-3.16,5.98,5.98,5.97
88.09,9.39,3.47,9.37,3.44,-3.43,-3.36,-3.23,5.96,5.94,5.92
88.97,9.31,3.42,9.33,3.45,-3.43,-3.41,-3.29,5.87,5.90,5.89
89.86,9.30,3.46,9.29,3.45,-3.44,-3.46,-3.36,5.86,5.86,5.84
90.76,9.26,3.46,9.25,3.45,-3.44,-3.51,-3.43,5.81,5.80,5.79
91.66,9.21,3.45,9.19,3.44,-3.45,-3.56,-3.50,5.75,5.74,5.76
92.58,9.14,3.42,9.14,3.43,-3.47,-3.61,-3.58,5.66,5.67,5.72
93.51,9.11,3.43,9.13,3.45,-3.51,-3.66,-3.65,5.60,5.62,5.67
94.44,9.16,3.52,9.16,3.52,-3.55,-3.71,-3.73,5.61,5.61,5.64
95.39,9.23,3.63,9.21,3.62,-3.60,-3.76,-3.82,5.63,5.61,5.60
96.34,9.28,3.72,9.26,3.70,-3.67,-3.82,-3.90,5.61,5.60,5.56
97.30,9.29,3.77,9.28,3.76,-3.74,-3.87,-3.99,5.55,5.54,5.52
98.28,9.29,3.81,9.30,3.83,-3.82,-3.92,-4.07,5.46,5.48,5.47
99.26,9.32,3.88,9.33,3.90,-3.91,-3.97,-4.16,5.40,5.42,5.43
100.25,9.40,4.00,9.37,3.98,-4.00,-4.03,-4.25,5.40,5.37,5.39
101.25,9.43,4.07,9.42,4.07,-4.08,-4.08,-4.35,5.35,5.34,5.35
102.27,9.44,4.13,9.48,4.17,-4.16,-4.14,-4.44,5.27,5.32,5.31
103.29,9.54,4.28,9.52,4.26,-4.25,-4.19,-4.53,5.29,5.28,5.26
104.32,9.59,4.38,9.55,4.34,-4.33,-4.24,-4.63,5.25,5.22,5.21
105.37,9.57,4.40,9.58,4.41,-4.41,-4.30,-4.72,5.15,5.17,5.17
106.42,9.57,4.45,9.60,4.48,-4.49,-4.35,-4.82,5.08,5.11,5.12
107.48,9.64,4.57,9.63,4.56,-4.56,-4.41,-4.91,5.08,5.07,5.07
108.56,9.69,4.67,9.65,4.63,-4.63,-4.47,-5.00,5.06,5.03,5.02
109.64,9.67,4.70,9.68,4.70,-4.69,-4.52,-5.10,4.98,4.98,4.97
110.74,9.66,4.73,9.69,4.76,-4.75,-4.58,-5.19,4.90,4.93,4.93
111.85,9.72,4.82,9.69,4.80,-4.82,-4.63,-5.27,4.90,4.87,4.89
112.97,9.73,4.87,9.72,4.87,-4.88,-4.69,-5.36,4.85,4.85,4.85
114.10,9.73,4.91,9.76,4.94,-4.94,-4.75,-5.44,4.79,4.82,4.81
115.24,9.82,5.03,9.78,5.00,-5.00,-4.80,-5.52,4.82,4.78,4.79
116.39,9.82,5.07,9.81,5.06,-5.06,-4.86,-5.59,4.76,4.75,4.75
117.55,9.83,5.10,9.85,5.12,-5.12,-4.92,-5.66,4.70,4.73,4.73
118.73,9.89,5.18,9.88,5.17,-5.18,-4.98,-5.73,4.70,4.69,4.70
119.92,9.94,5.25,9.92,5.24,-5.24,-5.03,-5.79,4.69,4.68,4.69
121.12,9.96,5.29,9.97,5.30,-5.29,-5.09,-5.84,4.66,4.68,4.67
122.33,10.02,5.36,10.01,5.36,-5.34,-5.15,-5.89,4.67,4.67,4.65
123.55,10.06,5.42,10.05,5.41,-5.39,-5.20,-5.93,4.66,4.65,4.64
124.79,10.07,5.44,10.06,5.44,-5.44,-5.26,-5.97,4.63,4.63,4.62
126.03,10.08,5.47,10.07,5.47,-5.48,-5.32,-6.00,4.60,4.60,4.61
127.29,10.08,5.48,10.10,5.51,-5.52,-5.38,-6.03,4.56,4.58,4.59
128.57,10.14,5.56,10.14,5.56,-5.55,-5.43,-6.05,4.58,4.58,4.58
129.85,10.20,5.63,10.17,5.60,-5.60,-5.49,-6.06,4.60,4.57,4.56
131.15,10.20,5.64,10.20,5.65,-5.64,-5.55,-6.07,4.55,4.55,4.55
132.46,10.21,5.68,10.22,5.69,-5.70,-5.60,-6.07,4.51,4.52,4.53
133.79,10.26,5.74,10.26,5.74,-5.76,-5.66,-6.07,4.49,4.49,4.52
135.12,10.33,5.83,10.32,5.82,-5.84,-5.72,-6.06,4.49,4.48,4.50
136.48,10.39,5.90,10.39,5.90,-5.91,-5.77,-6.05,4.48,4.48,4.49
137.84,10.46,5.99,10.46,5.99,-5.99,-5.83,-6.04,4.47,4.47,4.46
139.22,10.52,6.07,10.52,6.07,-6.07,-5.88,-6.03,4.45,4.46,4.45
140.61,10.60,6.17,10.59,6.16,-6.15,-5.94,-6.01,4.45,4.44,4.43
142.02,10.64,6.23,10.65,6.24,-6.23,-5.99,-5.99,4.41,4.42,4.41
143.44,10.70,6.32,10.68,6.30,-6.31,-6.05,-5.97,4.39,4.38,4.38
144.87,10.73,6.37,10.72,6.37,-6.38,-6.10,-5.95,4.35,4.34,4.35
146.32,10.73,6.40,10.76,6.43,-6.45,-6.16,-5.93,4.28,4.31,4.33
147.78,10.81,6.52,10.79,6.50,-6.51,-6.21,-5.91,4.30,4.28,4.29
149.26,10.83,6.57,10.82,6.57,-6.56,-6.26,-5.89,4.27,4.26,4.25
150.75,10.83,6.62,10.82,6.61,-6.60,-6.31,-5.87,4.22,4.22,4.21
152.26,10.80,6.64,10.79,6.64,-6.63,-6.36,-5.85,4.17,4.16,4.15
153.78,10.74,6.64,10.76,6.66,-6.64,-6.41,-5.84,4.09,4.12,4.10
155.32,10.72,6.68,10.71,6.67,-6.64,-6.46,-5.83,4.08,4.07,4.04
156.88,10.66,6.67,10.64,6.65,-6.62,-6.51,-5.82,4.04,4.01,3.98
158.44,10.56,6.63,10.55,6.62,-6.60,-6.56,-5.81,3.95,3.95,3.92
160.03,10.43,6.55,10.45,6.58,-6.59,-6.61,-5.81,3.83,3.86,3.87
161.63,10.39,6.56,10.37,6.55,-6.60,-6.65,-5.81,3.79,3.77,3.83
163.24,10.34,6.56,10.33,6.54,-6.62,-6.70,-5.81,3.72,3.71,3.78
164.88,10.32,6.57,10.33,6.58,-6.65,-6.74,-5.82,3.67,3.68,3.75
166.53,10.37,6.64,10.38,6.66,-6.69,-6.79,-5.83,3.68,3.70,3.72
168.19,10.47,6.76,10.47,6.77,-6.74,-6.83,-5.85,3.73,3.73,3.70
169.87,10.59,6.89,10.55,6.86,-6.79,-6.87,-5.87,3.79,3.76,3.69
171.57,10.60,6.91,10.59,6.90,-6.85,-6.91,-5.89,3.75,3.74,3.69
173.29,10.59,6.90,10.60,6.91,-6.89,-6.95,-5.92,3.69,3.71,3.69
175.02,10.59,6.88,10.61,6.91,-6.92,-6.99,-5.95,3.66,3.68,3.70
176.77,10.65,6.93,10.64,6.92,-6.94,-7.02,-5.99,3.71,3.70,3.72
178.54,10.68,6.94,10.67,6.93,-6.94,-7.06,-6.03,3.74,3.73,3.73
180.32,10.69,6.93,10.69,6.93,-6.92,-7.09,-6.08,3.76,3.76,3.76
182.13,10.69,6.91,10.70,6.92,-6.90,-7.12,-6.13,3.78,3.79,3.77
183.95,10.70,6.90,10.69,6.90,-6.89,-7.15,-6.18,3.81,3.81,3.80
185.79,10.71,6.90,10.68,6.87,-6.87,-7.18,-6.24,3.84,3.81,3.80
187.65,10.64,6.83,10.66,6.85,-6.86,-7.21,-6.31,3.78,3.80,3.81
189.52,10.64,6.82,10.64,6.83,-6.84,-7.23,-6.38,3.79,3.80,3.82
191.42,10.65,6.83,10.64,6.82,-6.84,-7.26,-6.45,3.81,3.81,3.81
193.33,10.67,6.84,10.66,6.84,-6.84,-7.28,-6.53,3.82,3.82,3.82
195.27,10.69,6.87,10.68,6.86,-6.86,-7.30,-6.61,3.82,3.82,3.82
197.22,10.70,6.89,10.72,6.90,-6.91,-7.32,-6.69,3.79,3.81,3.81
199.19,10.77,6.96,10.75,6.94,-6.96,-7.33,-6.78,3.80,3.79,3.81
201.18,10.82,7.02,10.80,7.00,-7.03,-7.35,-6.87,3.78,3.77,3.80
203.19,10.85,7.06,10.88,7.09,-7.11,-7.36,-6.96,3.73,3.77,3.79
205.23,10.97,7.19,10.97,7.19,-7.20,-7.37,-7.06,3.77,3.77,3.78
207.28,11.10,7.33,11.07,7.30,-7.28,-7.38,-7.15,3.81,3.79,3.77
209.35,11.16,7.40,11.15,7.39,-7.36,-7.39,-7.25,3.79,3.79,3.76
211.44,11.21,7.47,11.20,7.46,-7.44,-7.40,-7.35,3.77,3.76,3.74
213.56,11.22,7.48,11.24,7.51,-7.50,-7.40,-7.45,3.71,3.74,3.73
215.69,11.29,7.57,11.27,7.56,-7.56,-7.40,-7.55,3.73,3.72,3.71
217.85,11.31,7.60,11.30,7.59,-7.60,-7.40,-7.64,3.71,3.70,3.71
220.03,11.31,7.62,11.31,7.62,-7.62,-7.40,-7.74,3.69,3.69,3.69
222.23,11.31,7.63,11.31,7.63,-7.63,-7.40,-7.83,3.67,3.68,3.68
224.45,11.31,7.63,11.31,7.64,-7.63,-7.39,-7.91,3.67,3.68,3.67
226.70,11.31,7.64,11.30,7.64,-7.63,-7.38,-8.00,3.68,3.68,3.67
228.96,11.31,7.65,11.28,7.62,-7.61,-7.37,-8.07,3.69,3.67,3.66
231.25,11.24,7.57,11.26,7.60,-7.59,-7.36,-8.14,3.64,3.66,3.66
233.57,11.23,7.57,11.22,7.57,-7.57,-7.35,-8.20,3.65,3.65,3.66
235.90,11.21,7.54,11.19,7.53,-7.55,-7.33,-8.26,3.65,3.64,3.66
238.26,11.17,7.50,11.18,7.51,-7.53,-7.32,-8.30,3.64,3.65,3.67
240.64,11.17,7.49,11.17,7.49,-7.50,-7.30,-8.33,3.66,3.67,3.68
243.05,11.18,7.49,11.16,7.47,-7.48,-7.27,-8.35,3.70,3.68,3.68
245.48,11.15,7.46,11.16,7.47,-7.45,-7.25,-8.36,3.70,3.71,3.69
247.93,11.13,7.43,11.13,7.44,-7.42,-7.23,-8.36,3.71,3.71,3.69
250.41,11.13,7.43,11.09,7.39,-7.39,-7.20,-8.35,3.74,3.70,3.70
252.92,11.02,7.31,11.04,7.34,-7.35,-7.17,-8.32,3.66,3.69,3.71
255.45,10.99,7.29,10.99,7.29,-7.30,-7.14,-8.28,3.68,3.69,3.70
258.00,10.95,7.25,10.94,7.25,-7.25,-7.11,-8.23,3.70,3.70,3.70
260.58,10.90,7.20,10.89,7.20,-7.18,-7.08,-8.17,3.72,3.72,3.69
263.19,10.85,7.16,10.83,7.14,-7.10,-7.04,-8.09,3.74,3.72,3.69
265.82,10.72,7.03,10.74,7.05,-7.03,-7.00,-8.01,3.69,3.71,3.68
268.48,10.66,6.98,10.64,6.96,-6.96,-6.96,-7.92,3.70,3.68,3.68
271.16,10.53,6.85,10.53,6.86,-6.88,-6.92,-7.82,3.64,3.65,3.68
273.87,10.46,6.78,10.46,6.78,-6.82,-6.88,-7.71,3.64,3.64,3.67
276.61,10.39,6.72,10.40,6.73,-6.76,-6.84,-7.59,3.63,3.64,3.67
279.38,10.38,6.71,10.38,6.71,-6.71,-6.80,-7.47,3.66,3.66,3.67
282.17,10.38,6.70,10.35,6.68,-6.68,-6.75,-7.34,3.70,3.67,3.67
284.99,10.33,6.64,10.33,6.65,-6.65,-6.70,-7.21,3.68,3.68,3.68
287.84,10.29,6.61,10.31,6.63,-6.63,-6.65,-7.07,3.66,3.68,3.68
290.72,10.30,6.61,10.31,6.62,-6.60,-6.61,-6.93,3.69,3.70,3.69
293.63,10.32,6.62,10.29,6.60,-6.58,-6.55,-6.79,3.74,3.72,3.69
296.57,10.29,6.58,10.26,6.56,-6.55,-6.50,-6.65,3.74,3.71,3.70
299.53,10.18,6.48,10.21,6.51,-6.51,-6.45,-6.51,3.66,3.70,3.70
302.53,10.15,6.44,10.16,6.45,-6.48,-6.39,-6.37,3.67,3.68,3.71
305.55,10.14,6.43,10.11,6.41,-6.43,-6.34,-6.23,3.70,3.68,3.70
308.61,10.08,6.37,10.08,6.38,-6.38,-6.28,-6.09,3.69,3.70,3.70
311.69,10.03,6.33,10.03,6.33,-6.32,-6.22,-5.95,3.70,3.71,3.70
314.81,9.97,6.28,9.97,6.28,-6.25,-6.17,-5.82,3.71,3.72,3.69
317.96,9.90,6.21,9.89,6.20,-6.17,-6.11,-5.69,3.72,3.71,3.69
321.14,9.80,6.12,9.79,6.11,-6.09,-6.05,-5.56,3.71,3.70,3.67
324.35,9.66,5.98,9.67,6.00,-5.99,-5.99,-5.43,3.66,3.68,3.67
327.59,9.55,5.88,9.55,5.88,-5.89,-5.92,-5.30,3.65,3.65,3.66
330.87,9.43,5.78,9.42,5.77,-5.79,-5.86,-5.18,3.64,3.63,3.65
334.18,9.31,5.67,9.30,5.66,-5.68,-5.80,-5.06,3.62,3.62,3.64
337.52,9.19,5.56,9.20,5.57,-5.58,-5.73,-4.94,3.60,3.62,3.63
340.90,9.10,5.47,9.11,5.49,-5.48,-5.67,-4.83,3.61,3.63,3.62
344.30,9.06,5.44,9.01,5.40,-5.40,-5.60,-4.72,3.66,3.62,3.61
347.75,8.91,5.31,8.93,5.33,-5.32,-5.53,-4.62,3.59,3.61,3.59
351.23,8.81,5.23,8.83,5.25,-5.25,-5.47,-4.51,3.56,3.58,3.58
354.74,8.77,5.20,8.72,5.15,-5.18,-5.40,-4.41,3.59,3.54,3.57
358.28,8.64,5.08,8.66,5.10,-5.12,-5.33,-4.32,3.52,3.54,3.56
361.87,8.58,5.03,8.61,5.06,-5.06,-5.26,-4.23,3.52,3.55,3.55
365.49,8.59,5.06,8.56,5.03,-5.01,-5.19,-4.14,3.58,3.55,3.53
369.14,8.52,5.00,8.49,4.98,-4.96,-5.12,-4.05,3.56,3.53,3.52
372.83,8.42,4.91,8.41,4.91,-4.91,-5.05,-3.97,3.50,3.50,3.50
376.56,8.29,4.79,8.35,4.86,-4.87,-4.98,-3.89,3.42,3.48,3.49
380.33,8.31,4.82,8.30,4.82,-4.82,-4.91,-3.81,3.48,3.48,3.48
384.13,8.33,4.85,8.25,4.78,-4.78,-4.84,-3.74,3.55,3.48,3.47
387.97,8.17,4.71,8.20,4.74,-4.73,-4.76,-3.66,3.43,3.47,3.46
391.85,8.10,4.65,8.12,4.67,-4.68,-4.69,-3.60,3.41,3.44,3.45
395.77,8.07,4.63,8.05,4.61,-4.63,-4.62,-3.53,3.43,3.42,3.44
399.73,8.03,4.60,8.02,4.59,-4.58,-4.54,-3.47,3.45,3.44,3.43
403.72,7.96,4.54,7.96,4.55,-4.52,-4.47,-3.40,3.43,3.44,3.42
407.76,7.89,4.49,7.88,4.48,-4.45,-4.39,-3.34,3.43,3.42,3.40
411.84,7.80,4.41,7.78,4.40,-4.38,-4.32,-3.29,3.41,3.40,3.39
415.96,7.67,4.29,7.69,4.31,-4.31,-4.24,-3.23,3.36,3.38,3.38
420.12,7.60,4.22,7.59,4.22,-4.24,-4.16,-3.18,3.35,3.35,3.38
424.32,7.53,4.16,7.53,4.16,-4.18,-4.08,-3.12,3.35,3.35,3.36
428.56,7.46,4.09,7.46,4.09,-4.11,-4.01,-3.07,3.34,3.35,3.36
432.85,7.43,4.05,7.39,4.02,-4.05,-3.93,-3.02,3.38,3.34,3.37
437.18,7.31,3.92,7.36,3.97,-3.99,-3.85,-2.97,3.32,3.37,3.38
441.55,7.32,3.91,7.35,3.95,-3.92,-3.77,-2.92,3.39,3.42,3.40
445.96,7.39,3.96,7.33,3.90,-3.86,-3.69,-2.87,3.53,3.47,3.42
450.42,7.31,3.85,7.28,3.83,-3.79,-3.60,-2.82,3.52,3.49,3.45
454.93,7.18,3.69,7.20,3.71,-3.71,-3.52,-2.78,3.47,3.49,3.49
459.48,7.08,3.55,7.12,3.59,-3.62,-3.44,-2.73,3.46,3.50,3.53
464.07,7.09,3.53,7.06,3.50,-3.52,-3.36,-2.68,3.56,3.54,3.56
468.71,7.05,3.45,7.02,3.42,-3.42,-3.27,-2.63,3.63,3.60,3.60
473.40,6.95,3.31,6.96,3.32,-3.31,-3.19,-2.58,3.64,3.65,3.64
478.13,6.87,3.19,6.88,3.20,-3.20,-3.10,-2.52,3.67,3.68,3.68
482.91,6.81,3.10,6.79,3.08,-3.09,-3.01,-2.47,3.72,3.70,3.71
487.74,6.71,2.97,6.71,2.97,-2.97,-2.92,-2.42,3.73,3.73,3.74
492.62,6.61,2.85,6.62,2.86,-2.85,-2.83,-2.36,3.75,3.76,3.76
497.55,6.52,2.74,6.52,2.74,-2.72,-2.74,-2.30,3.79,3.80,3.78
502.52,6.42,2.63,6.41,2.62,-2.59,-2.65,-2.25,3.82,3.81,3.79
507.55,6.29,2.50,6.27,2.48,-2.47,-2.56,-2.19,3.82,3.80,3.79
512.62,6.10,2.32,6.10,2.33,-2.35,-2.46,-2.12,3.74,3.75,3.78
517.75,5.94,2.18,5.95,2.19,-2.24,-2.37,-2.06,3.70,3.71,3.76
522.93,5.80,2.06,5.81,2.08,-2.12,-2.27,-1.99,3.67,3.69,3.74
528.16,5.72,2.02,5.70,2.00,-2.01,-2.17,-1.93,3.71,3.69,3.70
533.44,5.58,1.93,5.57,1.93,-1.90,-2.07,-1.86,3.68,3.68,3.65
