frequency,raw,error,smoothed,error_smoothed,equalization,parametric_eq,fixed_band_eq,equalized_raw,equalized_smoothed,target
20.00,-5.28,-5.81,-5.29,-5.82,5.84,5.81,0.99,0.57,0.55,0.53
20.20,-5.27,-5.80,-5.24,-5.78,5.78,5.79,1.02,0.51,0.53,0.53
20.40,-5.19,-5.72,-5.19,-5.72,5.71,5.76,1.05,0.52,0.52,0.53
20.61,-5.12,-5.65,-5.11,-5.65,5.63,5.72,1.09,0.51,0.52,0.53
20.81,-5.01,-5.54,-5.02,-5.56,5.55,5.67,1.12,0.55,0.53,0.54
21.02,-4.95,-5.48,-4.94,-5.47,5.47,5.61,1.16,0.52,0.53,0.54
21.23,-4.84,-5.38,-4.84,-5.38,5.38,5.54,1.19,0.54,0.54,0.54
21.44,-4.76,-5.30,-4.75,-5.29,5.29,5.46,1.23,0.53,0.53,0.54
21.66,-4.65,-5.19,-4.65,-5.19,5.18,5.38,1.27,0.53,0.53,0.54
21.87,-4.54,-5.08,-4.54,-5.08,5.07,5.28,1.31,0.54,0.53,0.54
22.09,-4.43,-4.97,-4.42,-4.96,4.96,5.18,1.35,0.54,0.54,0.54
22.31,-4.30,-4.84,-4.30,-4.85,4.85,5.08,1.39,0.56,0.55,0.55
22.54,-4.19,-4.74,-4.19,-4.73,4.75,4.97,1.44,0.56,0.56,0.55
22.76,-4.08,-4.63,-4.08,-4.63,4.64,4.85,1.48,0.56,0.56,0.55
22.99,-3.97,-4.52,-3.98,-4.53,4.53,4.73,1.53,0.56,0.55,0.55
23.22,-3.89,-4.44,-3.88,-4.43,4.43,4.61,1.57,0.54,0.55,0.55
23.45,-3.78,-4.33,-3.78,-4.33,4.33,4.49,1.62,0.55,0.55,0.55
23.69,-3.69,-4.24,-3.68,-4.24,4.23,4.36,1.67,0.54,0.55,0.55
23.92,-3.58,-4.13,-3.58,-4.14,4.14,4.23,1.72,0.56,0.56,0.56
24.16,-3.48,-4.03,-3.49,-4.04,4.04,4.10,1.76,0.57,0.56,0.56
24.40,-3.40,-3.95,-3.39,-3.94,3.95,3.97,1.81,0.55,0.56,0.56
24.65,-3.30,-3.86,-3.30,-3.86,3.86,3.84,1.87,0.56,0.56,0.56
24.89,-3.20,-3.76,-3.21,-3.77,3.77,3.71,1.92,0.57,0.56,0.56
25.14,-3.13,-3.69,-3.11,-3.68,3.68,3.59,1.97,0.55,0.56,0.56
25.39,-3.02,-3.58,-3.03,-3.59,3.59,3.46,2.02,0.57,0.56,0.56
25.65,-2.94,-3.50,-2.93,-3.50,3.50,3.33,2.07,0.56,0.56,0.56
25.91,-2.85,-3.42,-2.85,-3.41,3.41,3.21,2.12,0.56,0.57,0.57
26.16,-2.75,-3.31,-2.76,-3.32,3.33,3.08,2.17,0.58,0.57,0.57
26.43,-2.68,-3.25,-2.67,-3.24,3.24,2.96,2.22,0.56,0.57,0.57
26.69,-2.57,-3.14,-2.58,-3.15,3.15,2.84,2.26,0.59,0.58,0.57
26.96,-2.51,-3.08,-2.50,-3.07,3.07,2.72,2.31,0.56,0.57,0.57
27.23,-2.40,-2.97,-2.41,-2.98,2.98,2.60,2.35,0.58,0.57,0.57
27.50,-2.34,-2.91,-2.33,-2.90,2.90,2.48,2.40,0.56,0.57,0.57
27.77,-2.23,-2.80,-2.23,-2.81,2.81,2.37,2.44,0.58,0.57,0.58
28.05,-2.15,-2.72,-2.15,-2.72,2.72,2.26,2.47,0.57,0.57,0.58
28.33,-2.05,-2.63,-2.04,-2.62,2.63,2.15,2.51,0.58,0.58,0.58
28.62,-1.95,-2.53,-1.95,-2.53,2.53,2.04,2.54,0.58,0.58,0.58
28.90,-1.84,-2.42,-1.85,-2.43,2.43,1.93,2.56,0.59,0.58,0.58
29.19,-1.75,-2.33,-1.75,-2.33,2.33,1.83,2.58,0.58,0.58,0.58
29.48,-1.65,-2.23,-1.64,-2.23,2.22,1.73,2.60,0.57,0.57,0.58
29.78,-1.54,-2.12,-1.53,-2.12,2.11,1.63,2.61,0.57,0.57,0.59
30.08,-1.41,-2.00,-1.41,-2.00,1.99,1.53,2.62,0.59,0.59,0.59
30.38,-1.28,-1.87,-1.29,-1.88,1.88,1.43,2.62,0.60,0.60,0.59
30.68,-1.17,-1.76,-1.17,-1.76,1.77,1.33,2.62,0.60,0.60,0.59
30.99,-1.06,-1.65,-1.06,-1.65,1.65,1.24,2.61,0.60,0.60,0.59
31.30,-0.95,-1.54,-0.95,-1.54,1.54,1.15,2.59,0.59,0.59,0.59
31.61,-0.84,-1.43,-0.84,-1.43,1.43,1.05,2.57,0.59,0.59,0.59
31.93,-0.73,-1.32,-0.73,-1.32,1.32,0.96,2.55,0.59,0.59,0.60
32.24,-0.62,-1.21,-0.62,-1.22,1.22,0.88,2.52,0.60,0.59,0.60
32.57,-0.52,-1.12,-0.51,-1.11,1.11,0.79,2.48,0.59,0.59,0.60
32.89,-0.41,-1.01,-0.41,-1.01,1.00,0.70,2.44,0.59,0.59,0.60
33.22,-0.30,-0.90,-0.30,-0.90,0.89,0.62,2.39,0.60,0.60,0.60
33.55,-0.19,-0.79,-0.18,-0.79,0.79,0.53,2.33,0.60,0.61,0.60
33.89,-0.08,-0.68,-0.08,-0.68,0.69,0.45,2.28,0.61,0.61,0.60
34.23,0.03,-0.57,0.02,-0.58,0.59,0.36,2.22,0.62,0.61,0.60
34.57,0.11,-0.49,0.12,-0.48,0.49,0.28,2.15,0.60,0.61,0.61
34.92,0.22,-0.39,0.21,-0.39,0.39,0.20,2.08,0.61,0.61,0.61
35.27,0.31,-0.30,0.31,-0.30,0.30,0.12,2.01,0.61,0.61,0.61
35.62,0.39,-0.22,0.40,-0.21,0.21,0.04,1.93,0.60,0.61,0.61
35.97,0.50,-0.11,0.49,-0.12,0.12,-0.04,1.85,0.62,0.61,0.61
36.33,0.57,-0.04,0.58,-0.03,0.03,-0.12,1.77,0.60,0.61,0.61
36.70,0.67,0.06,0.68,0.06,-0.06,-0.20,1.68,0.62,0.62,0.61
37.06,0.77,0.16,0.76,0.14,-0.14,-0.27,1.60,0.63,0.62,0.62
37.43,0.84,0.23,0.85,0.23,-0.23,-0.35,1.51,0.62,0.62,0.62
37.81,0.92,0.30,0.93,0.31,-0.31,-0.43,1.42,0.61,0.62,0.62
38.19,1.01,0.39,1.01,0.39,-0.39,-0.50,1.33,0.62,0.61,0.62
38.57,1.08,0.46,1.09,0.47,-0.47,-0.58,1.24,0.61,0.62,0.62
38.95,1.18,0.56,1.18,0.55,-0.55,-0.66,1.15,0.63,0.62,0.62
39.34,1.25,0.63,1.26,0.63,-0.63,-0.73,1.05,0.62,0.62,0.62
39.74,1.34,0.72,1.34,0.71,-0.71,-0.80,0.96,0.63,0.63,0.63
40.14,1.41,0.78,1.42,0.79,-0.79,-0.87,0.87,0.62,0.63,0.63
40.54,1.49,0.86,1.49,0.86,-0.86,-0.94,0.77,0.63,0.63,0.63
40.94,1.57,0.94,1.56,0.93,-0.93,-1.01,0.68,0.64,0.63,0.63
41.35,1.63,1.00,1.64,1.01,-1.01,-1.08,0.58,0.63,0.63,0.63
41.76,1.70,1.07,1.71,1.07,-1.08,-1.15,0.49,0.63,0.63,0.63
42.18,1.78,1.15,1.77,1.14,-1.14,-1.21,0.39,0.64,0.63,0.63
42.60,1.83,1.20,1.84,1.20,-1.21,-1.27,0.30,0.62,0.63,0.64
43.03,1.90,1.27,1.91,1.27,-1.27,-1.32,0.20,0.63,0.63,0.64
43.46,1.97,1.33,1.97,1.33,-1.33,-1.38,0.10,0.64,0.64,0.64
43.90,2.04,1.40,2.04,1.40,-1.39,-1.43,0.01,0.65,0.65,0.64
44.33,2.09,1.45,2.09,1.45,-1.44,-1.48,-0.09,0.65,0.64,0.64
44.78,2.13,1.49,2.14,1.50,-1.50,-1.52,-0.18,0.64,0.64,0.64
45.23,2.18,1.54,2.19,1.54,-1.55,-1.56,-0.28,0.64,0.64,0.64
45.68,2.24,1.60,2.23,1.59,-1.59,-1.60,-0.37,0.65,0.64,0.64
46.13,2.27,1.63,2.28,1.63,-1.63,-1.63,-0.47,0.64,0.65,0.65
46.60,2.32,1.67,2.32,1.67,-1.67,-1.66,-0.56,0.65,0.65,0.65
47.06,2.35,1.70,2.36,1.71,-1.71,-1.69,-0.66,0.64,0.65,0.65
47.53,2.39,1.74,2.39,1.74,-1.74,-1.71,-0.75,0.65,0.65,0.65
48.01,2.43,1.78,2.43,1.78,-1.77,-1.73,-0.85,0.66,0.65,0.65
48.49,2.45,1.80,2.45,1.80,-1.80,-1.75,-0.94,0.65,0.65,0.65
48.97,2.48,1.83,2.48,1.83,-1.83,-1.77,-1.04,0.66,0.65,0.65
49.46,2.49,1.84,2.50,1.85,-1.85,-1.78,-1.13,0.65,0.66,0.66
49.96,2.53,1.87,2.52,1.86,-1.86,-1.79,-1.23,0.67,0.66,0.66
50.46,2.53,1.87,2.53,1.87,-1.87,-1.80,-1.32,0.66,0.66,0.66
50.96,2.53,1.87,2.54,1.88,-1.87,-1.80,-1.41,0.66,0.66,0.66
51.47,2.53,1.87,2.54,1.87,-1.87,-1.81,-1.51,0.66,0.66,0.66
51.99,2.53,1.87,2.53,1.86,-1.86,-1.81,-1.60,0.67,0.66,0.66
52.51,2.52,1.86,2.52,1.85,-1.85,-1.81,-1.69,0.67,0.67,0.66
53.03,2.48,1.82,2.49,1.83,-1.83,-1.80,-1.78,0.65,0.67,0.67
53.56,2.48,1.82,2.47,1.80,-1.80,-1.79,-1.87,0.68,0.67,0.67
54.10,2.43,1.76,2.45,1.78,-1.78,-1.78,-1.95,0.66,0.67,0.67
54.64,2.42,1.75,2.42,1.75,-1.75,-1.76,-2.04,0.68,0.67,0.67
55.18,2.39,1.72,2.38,1.71,-1.72,-1.74,-2.12,0.68,0.67,0.67
55.74,2.34,1.67,2.36,1.68,-1.68,-1.72,-2.20,0.66,0.67,0.67
56.29,2.33,1.66,2.32,1.65,-1.65,-1.69,-2.28,0.68,0.67,0.67
56.86,2.29,1.62,2.30,1.62,-1.62,-1.65,-2.35,0.67,0.67,0.68
57.42,2.27,1.60,2.28,1.60,-1.59,-1.61,-2.42,0.68,0.68,0.68
58.00,2.25,1.57,2.25,1.57,-1.57,-1.58,-2.49,0.68,0.68,0.68
58.58,2.23,1.55,2.23,1.55,-1.55,-1.54,-2.56,0.69,0.68,0.68
59.16,2.20,1.52,2.21,1.53,-1.53,-1.51,-2.62,0.67,0.68,0.68
59.76,2.20,1.52,2.20,1.52,-1.52,-1.49,-2.68,0.68,0.68,0.68
60.35,2.20,1.52,2.19,1.51,-1.51,-1.48,-2.73,0.69,0.68,0.68
60.96,2.20,1.52,2.20,1.52,-1.52,-1.48,-2.78,0.68,0.68,0.68
61.57,2.20,1.52,2.22,1.53,-1.53,-1.51,-2.83,0.67,0.68,0.69
62.18,2.25,1.56,2.24,1.55,-1.56,-1.56,-2.87,0.70,0.68,0.69
62.80,2.27,1.58,2.28,1.59,-1.59,-1.62,-2.90,0.68,0.68,0.69
63.43,2.32,1.63,2.33,1.63,-1.64,-1.70,-2.94,0.68,0.68,0.69
64.07,2.39,1.70,2.39,1.70,-1.70,-1.79,-2.97,0.69,0.69,0.69
64.71,2.45,1.76,2.46,1.77,-1.77,-1.88,-2.99,0.68,0.69,0.69
65.35,2.56,1.87,2.55,1.85,-1.85,-1.98,-3.01,0.71,0.70,0.69
66.01,2.62,1.93,2.63,1.94,-1.94,-2.08,-3.03,0.69,0.70,0.70
66.67,2.73,2.03,2.73,2.03,-2.03,-2.17,-3.05,0.70,0.70,0.70
67.33,2.82,2.12,2.82,2.12,-2.13,-2.27,-3.06,0.70,0.69,0.70
68.01,2.92,2.22,2.93,2.23,-2.23,-2.35,-3.07,0.69,0.70,0.70
68.69,3.03,2.33,3.03,2.33,-2.33,-2.44,-3.07,0.70,0.70,0.70
69.37,3.14,2.44,3.14,2.44,-2.44,-2.51,-3.08,0.71,0.71,0.70
70.07,3.25,2.55,3.25,2.54,-2.54,-2.59,-3.08,0.71,0.71,0.70
70.77,3.35,2.65,3.35,2.65,-2.64,-2.66,-3.08,0.71,0.71,0.71
71.48,3.44,2.74,3.45,2.74,-2.74,-2.72,-3.08,0.70,0.71,0.71
72.19,3.55,2.84,3.54,2.84,-2.84,-2.78,-3.08,0.72,0.71,0.71
72.91,3.63,2.92,3.64,2.93,-2.93,-2.84,-3.08,0.71,0.71,0.71
73.64,3.72,3.01,3.73,3.01,-3.01,-2.90,-3.08,0.71,0.71,0.71
74.38,3.81,3.10,3.81,3.09,-3.10,-2.95,-3.07,0.72,0.71,0.71
75.12,3.88,3.17,3.89,3.18,-3.17,-3.01,-3.07,0.71,0.72,0.71
75.87,3.96,3.25,3.96,3.25,-3.25,-3.06,-3.07,0.72,0.72,0.72
76.63,4.04,3.33,4.03,3.32,-3.32,-3.10,-3.07,0.73,0.72,0.72
77.40,4.09,3.37,4.10,3.38,-3.38,-3.15,-3.07,0.71,0.72,0.72
78.17,4.16,3.44,4.16,3.45,-3.44,-3.19,-3.07,0.72,0.72,0.72
78.95,4.23,3.51,4.22,3.50,-3.50,-3.24,-3.08,0.73,0.72,0.72
79.74,4.27,3.55,4.28,3.55,-3.55,-3.28,-3.08,0.72,0.72,0.72
80.54,4.32,3.60,4.33,3.60,-3.61,-3.32,-3.09,0.72,0.72,0.72
81.35,4.37,3.65,4.37,3.65,-3.66,-3.36,-3.10,0.72,0.72,0.72
82.16,4.43,3.71,4.43,3.70,-3.70,-3.40,-3.11,0.73,0.72,0.73
82.98,4.47,3.74,4.48,3.75,-3.75,-3.44,-3.12,0.72,0.73,0.73
83.81,4.53,3.80,4.52,3.80,-3.80,-3.47,-3.13,0.74,0.73,0.73
84.65,4.56,3.83,4.57,3.84,-3.84,-3.51,-3.15,0.73,0.73,0.73
85.50,4.61,3.88,4.61,3.88,-3.87,-3.54,-3.17,0.74,0.74,0.73
86.35,4.65,3.92,4.65,3.91,-3.91,-3.58,-3.19,0.74,0.74,0.73
87.22,4.67,3.94,4.68,3.94,-3.94,-3.61,-3.22,0.73,0.74,0.73
88.09,4.71,3.98,4.71,3.97,-3.97,-3.64,-3.24,0.74,0.74,0.74
88.97,4.72,3.99,4.73,3.99,-3.99,-3.68,-3.27,0.73,0.73,0.74
89.86,4.76,4.02,4.75,4.02,-4.02,-3.71,-3.30,0.74,0.74,0.74
90.76,4.76,4.02,4.77,4.03,-4.04,-3.74,-3.34,0.72,0.73,0.74
91.66,4.81,4.07,4.80,4.06,-4.06,-3.77,-3.37,0.75,0.74,0.74
92.58,4.81,4.07,4.82,4.08,-4.08,-3.80,-3.41,0.73,0.74,0.74
93.51,4.86,4.12,4.85,4.11,-4.10,-3.83,-3.46,0.76,0.75,0.74
94.44,4.86,4.12,4.87,4.12,-4.12,-3.86,-3.50,0.74,0.75,0.75
95.39,4.89,4.15,4.89,4.14,-4.14,-3.88,-3.55,0.75,0.75,0.75
96.34,4.90,4.15,4.90,4.15,-4.16,-3.91,-3.60,0.75,0.74,0.75
97.30,4.90,4.15,4.92,4.17,-4.17,-3.94,-3.65,0.73,0.75,0.75
98.28,4.95,4.20,4.94,4.18,-4.18,-3.96,-3.70,0.77,0.75,0.75
99.26,4.95,4.20,4.95,4.20,-4.19,-3.99,-3.75,0.76,0.75,0.75
100.25,4.95,4.20,4.96,4.21,-4.20,-4.01,-3.81,0.75,0.76,0.75
101.25,4.96,4.21,4.97,4.21,-4.21,-4.04,-3.87,0.75,0.75,0.76
102.27,4.99,4.24,4.98,4.23,-4.23,-4.06,-3.93,0.77,0.76,0.76
103.29,4.99,4.23,4.99,4.23,-4.24,-4.08,-3.99,0.76,0.75,0.76
104.32,4.99,4.23,5.00,4.24,-4.24,-4.11,-4.05,0.75,0.75,0.76
105.37,4.99,4.23,5.01,4.25,-4.25,-4.13,-4.11,0.74,0.76,0.76
106.42,5.04,4.28,5.03,4.26,-4.26,-4.15,-4.17,0.78,0.76,0.76
107.48,5.04,4.28,5.04,4.28,-4.27,-4.17,-4.23,0.77,0.77,0.76
108.56,5.04,4.28,5.05,4.28,-4.28,-4.19,-4.29,0.77,0.77,0.76
109.64,5.04,4.28,5.04,4.28,-4.28,-4.21,-4.35,0.76,0.76,0.77
110.74,5.04,4.27,5.04,4.27,-4.28,-4.23,-4.40,0.76,0.76,0.77
111.85,5.04,4.27,5.05,4.28,-4.27,-4.24,-4.46,0.77,0.77,0.77
112.97,5.04,4.27,5.04,4.27,-4.27,-4.26,-4.51,0.78,0.78,0.77
114.10,5.04,4.27,5.03,4.26,-4.25,-4.28,-4.56,0.79,0.78,0.77
115.24,5.01,4.24,5.02,4.25,-4.24,-4.29,-4.61,0.77,0.78,0.77
116.39,4.99,4.22,5.00,4.22,-4.23,-4.31,-4.65,0.77,0.77,0.77
117.55,4.99,4.22,4.98,4.20,-4.21,-4.32,-4.69,0.78,0.77,0.78
118.73,4.95,4.18,4.97,4.19,-4.19,-4.34,-4.72,0.76,0.78,0.78
119.92,4.95,4.17,4.95,4.18,-4.17,-4.35,-4.75,0.78,0.78,0.78
121.12,4.95,4.17,4.94,4.16,-4.16,-4.36,-4.78,0.80,0.78,0.78
122.33,4.92,4.14,4.92,4.14,-4.15,-4.37,-4.80,0.78,0.78,0.78
123.55,4.90,4.12,4.91,4.13,-4.14,-4.38,-4.81,0.76,0.77,0.78
124.79,4.90,4.12,4.91,4.12,-4.14,-4.39,-4.82,0.76,0.77,0.78
126.03,4.92,4.14,4.92,4.14,-4.14,-4.40,-4.83,0.78,0.78,0.79
127.29,4.95,4.17,4.94,4.15,-4.15,-4.41,-4.83,0.80,0.79,0.79
128.57,4.95,4.16,4.95,4.17,-4.16,-4.42,-4.82,0.79,0.80,0.79
129.85,4.95,4.16,4.96,4.18,-4.17,-4.43,-4.81,0.78,0.79,0.79
131.15,4.99,4.20,4.98,4.19,-4.19,-4.43,-4.79,0.80,0.79,0.79
132.46,4.99,4.20,5.00,4.21,-4.21,-4.44,-4.77,0.78,0.79,0.79
133.79,5.03,4.24,5.02,4.23,-4.23,-4.44,-4.74,0.80,0.79,0.79
135.12,5.04,4.25,5.04,4.24,-4.24,-4.45,-4.71,0.80,0.79,0.80
136.48,5.04,4.25,5.06,4.27,-4.26,-4.45,-4.68,0.78,0.80,0.80
137.84,5.09,4.29,5.07,4.28,-4.28,-4.45,-4.64,0.82,0.80,0.80
139.22,5.09,4.29,5.09,4.29,-4.29,-4.46,-4.60,0.80,0.80,0.80
140.61,5.09,4.29,5.10,4.30,-4.30,-4.46,-4.56,0.79,0.80,0.80
142.02,5.11,4.31,5.11,4.31,-4.31,-4.46,-4.52,0.80,0.80,0.80
143.44,5.13,4.33,5.12,4.32,-4.32,-4.46,-4.47,0.81,0.81,0.80
144.87,5.13,4.33,5.13,4.33,-4.32,-4.46,-4.42,0.81,0.81,0.80
146.32,5.13,4.33,5.13,4.33,-4.33,-4.45,-4.38,0.81,0.81,0.81
147.78,5.13,4.32,5.13,4.32,-4.33,-4.45,-4.33,0.81,0.81,0.81
149.26,5.13,4.32,5.13,4.32,-4.33,-4.45,-4.28,0.81,0.81,0.81
150.75,5.13,4.32,5.13,4.32,-4.32,-4.45,-4.23,0.81,0.81,0.81
152.26,5.13,4.32,5.13,4.32,-4.32,-4.44,-4.19,0.81,0.81,0.81
153.78,5.13,4.32,5.13,4.32,-4.32,-4.44,-4.14,0.81,0.81,0.81
155.32,5.13,4.32,5.13,4.32,-4.32,-4.43,-4.10,0.81,0.81,0.81
156.88,5.13,4.32,5.13,4.32,-4.32,-4.42,-4.05,0.82,0.82,0.82
158.44,5.13,4.32,5.13,4.32,-4.32,-4.42,-4.01,0.82,0.82,0.82
160.03,5.13,4.31,5.13,4.31,-4.32,-4.41,-3.97,0.82,0.82,0.82
161.63,5.13,4.31,5.13,4.31,-4.31,-4.40,-3.94,0.82,0.82,0.82
163.24,5.13,4.31,5.13,4.31,-4.31,-4.39,-3.90,0.82,0.82,0.82
164.88,5.13,4.31,5.13,4.31,-4.31,-4.38,-3.87,0.82,0.82,0.82
166.53,5.13,4.31,5.13,4.31,-4.30,-4.37,-3.84,0.83,0.83,0.82
168.19,5.13,4.31,5.13,4.31,-4.30,-4.36,-3.81,0.83,0.83,0.83
169.87,5.13,4.31,5.12,4.30,-4.29,-4.35,-3.79,0.84,0.83,0.83
171.57,5.11,4.28,5.11,4.28,-4.29,-4.34,-3.77,0.82,0.82,0.83
173.29,5.09,4.26,5.10,4.27,-4.28,-4.32,-3.75,0.81,0.82,0.83
175.02,5.09,4.26,5.09,4.26,-4.27,-4.31,-3.73,0.82,0.82,0.83
176.77,5.09,4.26,5.10,4.26,-4.26,-4.30,-3.72,0.83,0.84,0.83
178.54,5.09,4.26,5.09,4.26,-4.25,-4.28,-3.71,0.84,0.84,0.83
180.32,5.09,4.26,5.08,4.24,-4.23,-4.27,-3.70,0.86,0.84,0.84
182.13,5.04,4.21,5.06,4.23,-4.22,-4.25,-3.70,0.82,0.84,0.84
183.95,5.04,4.20,5.04,4.20,-4.21,-4.23,-3.70,0.84,0.84,0.84
185.79,5.04,4.20,5.02,4.18,-4.19,-4.22,-3.70,0.85,0.83,0.84
187.65,4.99,4.15,5.01,4.17,-4.17,-4.20,-3.70,0.82,0.84,0.84
189.52,4.99,4.15,4.99,4.15,-4.15,-4.18,-3.71,0.84,0.84,0.84
191.42,4.98,4.14,4.97,4.13,-4.13,-4.16,-3.72,0.85,0.84,0.84
193.33,4.95,4.11,4.96,4.12,-4.11,-4.14,-3.73,0.84,0.85,0.84
195.27,4.95,4.11,4.94,4.09,-4.09,-4.12,-3.74,0.86,0.85,0.85
197.22,4.91,4.06,4.92,4.07,-4.07,-4.10,-3.76,0.84,0.85,0.85
199.19,4.90,4.05,4.90,4.05,-4.06,-4.08,-3.78,0.85,0.84,0.85
201.18,4.88,4.03,4.88,4.03,-4.04,-4.06,-3.80,0.85,0.84,0.85
203.19,4.86,4.01,4.87,4.02,-4.02,-4.04,-3.82,0.84,0.85,0.85
205.23,4.86,4.01,4.86,4.01,-4.00,-4.01,-3.84,0.86,0.85,0.85
207.28,4.86,4.01,4.84,3.99,-3.99,-3.99,-3.87,0.87,0.86,0.85
209.35,4.81,3.96,4.83,3.97,-3.97,-3.97,-3.89,0.84,0.86,0.86
211.44,4.81,3.96,4.82,3.96,-3.96,-3.94,-3.92,0.85,0.86,0.86
213.56,4.81,3.95,4.81,3.95,-3.95,-3.92,-3.94,0.87,0.86,0.86
215.69,4.81,3.95,4.80,3.94,-3.93,-3.89,-3.97,0.88,0.86,0.86
217.85,4.76,3.90,4.78,3.92,-3.92,-3.87,-3.99,0.84,0.86,0.86
220.03,4.76,3.90,4.77,3.90,-3.91,-3.84,-4.02,0.86,0.86,0.86
222.23,4.76,3.90,4.76,3.89,-3.89,-3.82,-4.04,0.87,0.86,0.86
224.45,4.76,3.90,4.75,3.89,-3.88,-3.79,-4.06,0.88,0.87,0.87
226.70,4.73,3.87,4.74,3.87,-3.88,-3.76,-4.08,0.86,0.86,0.87
228.96,4.72,3.85,4.73,3.86,-3.87,-3.74,-4.10,0.86,0.86,0.87
231.25,4.72,3.85,4.72,3.85,-3.86,-3.71,-4.11,0.86,0.86,0.87
233.57,4.72,3.85,4.73,3.86,-3.85,-3.68,-4.12,0.87,0.88,0.87
235.90,4.72,3.85,4.72,3.85,-3.84,-3.65,-4.13,0.88,0.88,0.87
238.26,4.72,3.85,4.71,3.83,-3.83,-3.62,-4.14,0.90,0.88,0.87
240.64,4.67,3.80,4.69,3.82,-3.81,-3.60,-4.14,0.86,0.88,0.88
243.05,4.67,3.80,4.68,3.80,-3.80,-3.57,-4.13,0.87,0.87,0.88
245.48,4.67,3.79,4.66,3.78,-3.79,-3.54,-4.13,0.89,0.87,0.88
247.93,4.64,3.76,4.65,3.77,-3.77,-3.51,-4.11,0.87,0.88,0.88
250.41,4.62,3.74,4.63,3.75,-3.75,-3.48,-4.10,0.87,0.88,0.88
252.92,4.62,3.74,4.61,3.73,-3.73,-3.45,-4.08,0.89,0.88,0.88
255.45,4.59,3.71,4.60,3.71,-3.71,-3.42,-4.05,0.88,0.88,0.88
258.00,4.58,3.70,4.58,3.69,-3.69,-3.39,-4.02,0.89,0.89,0.88
260.58,4.55,3.67,4.56,3.67,-3.67,-3.36,-3.99,0.88,0.89,0.89
263.19,4.53,3.64,4.54,3.65,-3.65,-3.33,-3.95,0.89,0.89,0.89
265.82,4.51,3.62,4.51,3.62,-3.62,-3.29,-3.91,0.90,0.89,0.89
268.48,4.48,3.59,4.48,3.59,-3.59,-3.26,-3.86,0.89,0.89,0.89
271.16,4.44,3.55,4.45,3.56,-3.56,-3.23,-3.81,0.89,0.89,0.89
273.87,4.41,3.52,4.41,3.52,-3.52,-3.20,-3.76,0.89,0.89,0.89
276.61,4.38,3.49,4.37,3.48,-3.48,-3.17,-3.70,0.90,0.89,0.89
279.38,4.33,3.44,4.34,3.45,-3.44,-3.14,-3.65,0.89,0.90,0.90
282.17,4.30,3.41,4.30,3.40,-3.40,-3.10,-3.59,0.90,0.90,0.90
284.99,4.27,3.37,4.26,3.36,-3.36,-3.07,-3.52,0.91,0.90,0.90
287.84,4.21,3.31,4.22,3.32,-3.32,-3.04,-3.46,0.89,0.90,0.90
290.72,4.18,3.28,4.18,3.28,-3.28,-3.01,-3.40,0.90,0.90,0.90
293.63,4.13,3.23,4.14,3.23,-3.24,-2.97,-3.33,0.89,0.90,0.90
296.57,4.10,3.20,4.10,3.20,-3.20,-2.94,-3.26,0.90,0.90,0.90
299.53,4.07,3.17,4.07,3.16,-3.16,-2.91,-3.20,0.91,0.90,0.91
302.53,4.03,3.13,4.04,3.13,-3.13,-2.87,-3.13,0.90,0.91,0.91
305.55,4.00,3.09,4.00,3.09,-3.09,-2.84,-3.06,0.91,0.91,0.91
308.61,3.97,3.06,3.96,3.05,-3.06,-2.81,-3.00,0.91,0.91,0.91
311.69,3.92,3.01,3.93,3.02,-3.02,-2.77,-2.93,0.90,0.91,0.91
314.81,3.90,2.99,3.90,2.99,-2.99,-2.74,-2.87,0.91,0.91,0.91
317.96,3.88,2.97,3.87,2.96,-2.95,-2.71,-2.81,0.93,0.92,0.91
321.14,3.83,2.92,3.84,2.92,-2.92,-2.67,-2.74,0.92,0.92,0.92
324.35,3.79,2.88,3.80,2.88,-2.88,-2.64,-2.68,0.91,0.92,0.92
327.59,3.76,2.84,3.76,2.84,-2.84,-2.61,-2.62,0.92,0.91,0.92
330.87,3.71,2.79,3.72,2.80,-2.80,-2.57,-2.56,0.91,0.92,0.92
334.18,3.68,2.76,3.68,2.76,-2.76,-2.54,-2.51,0.92,0.92,0.92
337.52,3.64,2.72,3.64,2.72,-2.72,-2.50,-2.45,0.92,0.92,0.92
340.90,3.59,2.67,3.60,2.68,-2.67,-2.47,-2.40,0.92,0.93,0.92
344.30,3.56,2.64,3.56,2.63,-2.63,-2.43,-2.35,0.93,0.93,0.92
347.75,3.51,2.59,3.51,2.58,-2.58,-2.40,-2.30,0.93,0.93,0.93
351.23,3.45,2.53,3.46,2.53,-2.53,-2.37,-2.25,0.92,0.93,0.93
354.74,3.41,2.48,3.41,2.48,-2.48,-2.33,-2.20,0.93,0.93,0.93
358.28,3.37,2.44,3.37,2.44,-2.43,-2.30,-2.16,0.94,0.93,0.93
361.87,3.31,2.38,3.32,2.39,-2.38,-2.26,-2.11,0.93,0.93,0.93
365.49,3.27,2.34,3.26,2.33,-2.33,-2.23,-2.07,0.94,0.93,0.93
369.14,3.20,2.27,3.22,2.28,-2.28,-2.19,-2.03,0.92,0.93,0.93
372.83,3.17,2.24,3.17,2.23,-2.23,-2.16,-1.99,0.94,0.93,0.94
376.56,3.12,2.19,3.12,2.18,-2.18,-2.12,-1.96,0.94,0.93,0.94
380.33,3.06,2.12,3.07,2.13,-2.13,-2.08,-1.92,0.93,0.94,0.94
384.13,3.02,2.08,3.02,2.08,-2.08,-2.05,-1.89,0.94,0.94,0.94
387.97,2.97,2.03,2.97,2.03,-2.03,-2.01,-1.86,0.94,0.94,0.94
391.85,2.92,1.98,2.92,1.98,-1.97,-1.97,-1.82,0.95,0.95,0.94
395.77,2.86,1.92,2.86,1.92,-1.92,-1.94,-1.79,0.95,0.95,0.94
399.73,2.80,1.86,2.80,1.86,-1.86,-1.90,-1.77,0.95,0.95,0.95
403.72,2.74,1.80,2.74,1.80,-1.79,-1.86,-1.74,0.95,0.95,0.95
407.76,2.68,1.73,2.68,1.73,-1.73,-1.82,-1.71,0.95,0.95,0.95
411.84,2.61,1.66,2.62,1.67,-1.66,-1.78,-1.69,0.95,0.95,0.95
415.96,2.55,1.60,2.55,1.60,-1.60,-1.74,-1.66,0.95,0.95,0.95
420.12,2.49,1.54,2.49,1.54,-1.54,-1.70,-1.64,0.95,0.95,0.95
424.32,2.43,1.48,2.43,1.48,-1.48,-1.66,-1.62,0.95,0.95,0.95
428.56,2.36,1.41,2.37,1.42,-1.43,-1.62,-1.59,0.94,0.95,0.95
432.85,2.33,1.38,2.33,1.37,-1.37,-1.57,-1.57,0.96,0.95,0.96
437.18,2.28,1.32,2.28,1.33,-1.33,-1.53,-1.55,0.96,0.96,0.96
441.55,2.25,1.29,2.25,1.29,-1.28,-1.48,-1.53,0.97,0.97,0.96
445.96,2.19,1.23,2.20,1.24,-1.24,-1.43,-1.51,0.96,0.96,0.96
450.42,2.16,1.20,2.16,1.20,-1.20,-1.38,-1.49,0.96,0.96,0.96
454.93,2.11,1.15,2.12,1.15,-1.16,-1.33,-1.47,0.95,0.96,0.96
459.48,2.08,1.12,2.08,1.12,-1.12,-1.27,-1.44,0.96,0.96,0.96
464.07,2.05,1.09,2.05,1.08,-1.09,-1.22,-1.42,0.97,0.96,0.97
468.71,2.01,1.05,2.01,1.04,-1.05,-1.16,-1.40,0.97,0.96,0.97
473.40,1.97,1.00,1.98,1.01,-1.01,-1.09,-1.38,0.97,0.97,0.97
478.13,1.93,0.96,1.94,0.97,-0.96,-1.02,-1.35,0.97,0.98,0.97
482.91,1.90,0.93,1.89,0.92,-0.91,-0.95,-1.33,0.99,0.98,0.97
487.74,1.84,0.87,1.84,0.87,-0.86,-0.88,-1.30,0.99,0.99,0.97
492.62,1.77,0.80,1.78,0.80,-0.79,-0.80,-1.28,0.98,0.98,0.97
497.55,1.71,0.74,1.71,0.73,-0.73,-0.73,-1.25,0.99,0.98,0.98
502.52,1.63,0.66,1.64,0.66,-0.66,-0.65,-1.22,0.98,0.98,0.98
507.55,1.56,0.58,1.57,0.59,-0.58,-0.58,-1.19,0.98,0.98,0.98
512.62,1.50,0.52,1.50,0.52,-0.52,-0.51,-1.16,0.99,0.98,0.98
517.75,1.43,0.45,1.43,0.45,-0.45,-0.45,-1.13,0.98,0.98,0.98
522.93,1.37,0.39,1.38,0.39,-0.40,-0.40,-1.10,0.97,0.97,0.98
528.16,1.32,0.34,1.33,0.35,-0.36,-0.36,-1.07,0.96,0.97,0.98
533.44,1.32,0.34,1.31,0.33,-0.34,-0.34,-1.03,0.98,0.97,0.99
538.77,1.29,0.31,1.30,0.32,-0.33,-0.33,-1.00,0.96,0.98,0.99
544.16,1.32,0.33,1.31,0.32,-0.33,-0.33,-0.96,0.99,0.98,0.99
