frequency,raw,error,smoothed,error_smoothed,equalization,parametric_eq,fixed_band_eq,equalized_raw,equalized_smoothed,target
20.00,-18.95,-23.77,-18.95,-23.76,6.00,5.90,2.70,-12.95,-12.95,4.82
20.20,-18.79,-23.61,-18.80,-23.61,6.00,5.90,2.78,-12.79,-12.80,4.82
20.40,-18.64,-23.46,-18.64,-23.46,6.00,5.91,2.86,-12.64,-12.64,4.82
20.61,-18.48,-23.32,-18.48,-23.31,6.00,5.91,2.94,-12.48,-12.48,4.83
20.81,-18.32,-23.15,-18.32,-23.16,6.00,5.91,3.02,-12.32,-12.32,4.83
21.02,-18.16,-23.01,-18.16,-23.00,6.00,5.91,3.11,-12.16,-12.16,4.84
21.23,-18.00,-22.84,-18.00,-22.85,6.00,5.91,3.20,-12.00,-12.00,4.84
21.44,-17.84,-22.69,-17.84,-22.69,6.00,5.92,3.29,-11.84,-11.84,4.85
21.66,-17.68,-22.55,-17.68,-22.54,6.00,5.92,3.38,-11.68,-11.68,4.86
21.87,-17.52,-22.38,-17.52,-22.39,6.00,5.92,3.48,-11.52,-11.52,4.86
22.09,-17.36,-22.23,-17.36,-22.23,6.00,5.92,3.58,-11.36,-11.36,4.87
22.31,-17.20,-22.08,-17.20,-22.08,6.00,5.93,3.68,-11.20,-11.20,4.88
22.54,-17.04,-21.93,-17.04,-21.93,6.00,5.93,3.78,-11.04,-11.04,4.88
22.76,-16.88,-21.77,-16.88,-21.77,6.00,5.93,3.89,-10.88,-10.88,4.89
22.99,-16.72,-21.62,-16.72,-21.62,6.00,5.94,4.00,-10.72,-10.72,4.90
23.22,-16.55,-21.46,-16.56,-21.47,6.00,5.94,4.11,-10.55,-10.56,4.91
23.45,-16.39,-21.31,-16.39,-21.31,6.00,5.94,4.22,-10.39,-10.39,4.92
23.69,-16.22,-21.15,-16.22,-21.15,6.00,5.94,4.34,-10.22,-10.22,4.93
23.92,-16.05,-20.99,-16.05,-20.99,6.00,5.95,4.46,-10.05,-10.05,4.94
24.16,-15.89,-20.84,-15.89,-20.84,6.00,5.95,4.58,-9.89,-9.89,4.95
24.40,-15.72,-20.68,-15.72,-20.68,6.00,5.95,4.70,-9.72,-9.72,4.96
24.65,-15.56,-20.54,-15.56,-20.53,6.00,5.96,4.83,-9.56,-9.56,4.98
24.89,-15.39,-20.38,-15.39,-20.38,6.00,5.96,4.95,-9.39,-9.39,4.99
25.14,-15.23,-20.23,-15.23,-20.22,6.00,5.96,5.08,-9.23,-9.23,5.00
25.39,-15.06,-20.06,-15.06,-20.07,6.00,5.97,5.21,-9.06,-9.06,5.01
25.65,-14.90,-19.92,-14.90,-19.92,6.00,5.97,5.34,-8.90,-8.90,5.01
25.91,-14.73,-19.77,-14.73,-19.76,6.00,5.97,5.47,-8.73,-8.73,5.03
26.16,-14.56,-19.60,-14.56,-19.61,6.00,5.97,5.60,-8.56,-8.56,5.04
26.43,-14.39,-19.45,-14.40,-19.45,6.00,5.98,5.74,-8.39,-8.40,5.05
26.69,-14.23,-19.29,-14.23,-19.29,6.00,5.98,5.87,-8.23,-8.23,5.06
26.96,-14.06,-19.14,-14.06,-19.14,6.00,5.98,5.99,-8.06,-8.06,5.08
27.23,-13.89,-18.98,-13.89,-18.99,6.00,5.99,6.12,-7.89,-7.89,5.09
27.50,-13.72,-18.83,-13.73,-18.83,6.00,5.99,6.24,-7.72,-7.73,5.11
27.77,-13.56,-18.68,-13.56,-18.68,6.00,5.99,6.36,-7.56,-7.56,5.12
28.05,-13.39,-18.53,-13.39,-18.52,6.00,6.00,6.48,-7.39,-7.39,5.14
28.33,-13.22,-18.37,-13.22,-18.37,6.00,6.00,6.59,-7.22,-7.22,5.15
28.62,-13.05,-18.22,-13.06,-18.22,6.00,6.01,6.70,-7.05,-7.06,5.16
28.90,-12.89,-18.06,-12.89,-18.06,6.00,6.01,6.80,-6.89,-6.89,5.17
29.19,-12.72,-17.91,-12.72,-17.91,6.00,6.01,6.89,-6.72,-6.72,5.19
29.48,-12.55,-17.75,-12.55,-17.76,6.00,6.02,6.98,-6.55,-6.55,5.20
29.78,-12.39,-17.61,-12.39,-17.61,6.00,6.02,7.06,-6.39,-6.39,5.22
30.08,-12.22,-17.45,-12.22,-17.46,6.00,6.02,7.12,-6.22,-6.22,5.23
30.38,-12.06,-17.31,-12.07,-17.31,6.00,6.03,7.19,-6.06,-6.07,5.25
30.68,-11.90,-17.16,-11.91,-17.16,6.00,6.03,7.23,-5.90,-5.91,5.26
30.99,-11.75,-17.03,-11.75,-17.02,6.00,6.03,7.28,-5.75,-5.75,5.28
31.30,-11.58,-16.87,-11.59,-16.87,6.00,6.04,7.30,-5.58,-5.59,5.28
31.61,-11.42,-16.72,-11.42,-16.73,6.00,6.04,7.33,-5.42,-5.42,5.30
31.93,-11.26,-16.58,-11.26,-16.57,6.00,6.05,7.34,-5.26,-5.26,5.31
32.24,-11.10,-16.43,-11.10,-16.43,6.00,6.05,7.34,-5.10,-5.10,5.33
32.57,-10.94,-16.28,-10.94,-16.28,6.00,6.05,7.33,-4.94,-4.94,5.34
32.89,-10.78,-16.14,-10.78,-16.14,6.00,6.06,7.31,-4.78,-4.78,5.36
33.22,-10.62,-15.99,-10.62,-15.99,6.00,6.06,7.29,-4.62,-4.62,5.36
33.55,-10.47,-15.85,-10.47,-15.85,6.00,6.06,7.26,-4.47,-4.47,5.38
33.89,-10.31,-15.70,-10.31,-15.70,6.00,6.07,7.22,-4.31,-4.31,5.39
34.23,-10.15,-15.56,-10.15,-15.56,6.00,6.07,7.17,-4.15,-4.15,5.41
34.57,-9.99,-15.41,-9.99,-15.41,6.00,6.08,7.12,-3.99,-3.99,5.42
34.92,-9.83,-15.26,-9.84,-15.27,6.00,6.08,7.06,-3.83,-3.84,5.43
35.27,-9.68,-15.13,-9.68,-15.12,6.00,6.08,7.00,-3.68,-3.68,5.44
35.62,-9.53,-14.98,-9.53,-14.98,6.00,6.09,6.94,-3.53,-3.53,5.45
35.97,-9.38,-14.84,-9.38,-14.84,6.00,6.09,6.88,-3.38,-3.38,5.46
36.33,-9.23,-14.70,-9.23,-14.70,6.00,6.09,6.81,-3.23,-3.23,5.47
36.70,-9.08,-14.56,-9.08,-14.55,6.00,6.10,6.74,-3.08,-3.08,5.47
37.06,-8.92,-14.40,-8.92,-14.40,6.00,6.10,6.67,-2.92,-2.92,5.48
37.43,-8.77,-14.26,-8.77,-14.26,6.00,6.11,6.60,-2.77,-2.77,5.49
37.81,-8.62,-14.12,-8.62,-14.12,6.00,6.11,6.54,-2.62,-2.62,5.50
38.19,-8.47,-13.97,-8.47,-13.98,6.00,6.11,6.47,-2.47,-2.47,5.50
38.57,-8.33,-13.84,-8.33,-13.84,6.00,6.12,6.41,-2.33,-2.33,5.51
38.95,-8.19,-13.71,-8.19,-13.71,6.00,6.12,6.35,-2.19,-2.19,5.52
39.34,-8.05,-13.57,-8.05,-13.57,6.00,6.12,6.29,-2.05,-2.05,5.52
39.74,-7.91,-13.44,-7.91,-13.44,6.00,6.13,6.23,-1.91,-1.91,5.53
40.14,-7.77,-13.30,-7.78,-13.30,6.00,6.13,6.18,-1.77,-1.78,5.53
40.54,-7.64,-13.18,-7.64,-13.18,6.00,6.13,6.13,-1.64,-1.64,5.53
40.94,-7.51,-13.05,-7.51,-13.05,6.00,6.14,6.08,-1.51,-1.51,5.54
41.35,-7.38,-12.93,-7.38,-12.92,6.00,6.14,6.04,-1.38,-1.38,5.55
41.76,-7.24,-12.79,-7.24,-12.80,6.00,6.14,6.00,-1.24,-1.24,5.55
42.18,-7.11,-12.67,-7.11,-12.67,6.00,6.15,5.97,-1.11,-1.11,5.56
42.60,-6.98,-12.54,-6.98,-12.54,6.00,6.15,5.94,-0.98,-0.98,5.56
43.03,-6.84,-12.41,-6.84,-12.41,6.00,6.15,5.91,-0.84,-0.84,5.57
43.46,-6.71,-12.28,-6.71,-12.29,6.00,6.15,5.89,-0.71,-0.71,5.57
43.90,-6.58,-12.16,-6.58,-12.16,6.00,6.16,5.87,-0.58,-0.58,5.58
44.33,-6.45,-12.04,-6.45,-12.04,6.00,6.16,5.86,-0.45,-0.45,5.59
44.78,-6.31,-11.91,-6.31,-11.91,6.00,6.16,5.85,-0.31,-0.31,5.60
45.23,-6.17,-11.78,-6.17,-11.78,6.00,6.16,5.85,-0.17,-0.17,5.60
45.68,-6.04,-11.66,-6.04,-11.66,6.00,6.16,5.85,-0.04,-0.04,5.62
46.13,-5.91,-11.53,-5.92,-11.54,6.00,6.17,5.85,0.09,0.08,5.62
46.60,-5.79,-11.43,-5.79,-11.42,6.00,6.17,5.86,0.21,0.21,5.64
47.06,-5.66,-11.30,-5.66,-11.30,6.00,6.17,5.88,0.34,0.34,5.64
47.53,-5.52,-11.17,-5.53,-11.18,6.00,6.17,5.89,0.48,0.47,5.65
48.01,-5.39,-11.05,-5.39,-11.05,6.00,6.17,5.92,0.61,0.61,5.66
48.49,-5.26,-10.93,-5.26,-10.93,6.00,6.17,5.94,0.74,0.74,5.67
48.97,-5.13,-10.80,-5.13,-10.81,6.00,6.17,5.97,0.87,0.87,5.67
49.46,-5.00,-10.69,-5.01,-10.69,6.00,6.17,6.00,1.00,0.99,5.68
49.96,-4.88,-10.57,-4.88,-10.57,6.00,6.17,6.04,1.12,1.12,5.69
50.46,-4.76,-10.45,-4.76,-10.45,6.00,6.17,6.07,1.24,1.24,5.69
50.96,-4.63,-10.33,-4.63,-10.33,6.00,6.17,6.11,1.37,1.37,5.70
51.47,-4.51,-10.21,-4.51,-10.21,6.00,6.17,6.16,1.49,1.49,5.70
51.99,-4.39,-10.10,-4.39,-10.10,6.00,6.17,6.20,1.61,1.61,5.70
52.51,-4.28,-9.99,-4.28,-9.98,6.00,6.17,6.25,1.72,1.72,5.70
53.03,-4.16,-9.87,-4.16,-9.87,6.00,6.17,6.29,1.84,1.84,5.71
53.56,-4.05,-9.77,-4.05,-9.76,6.00,6.17,6.34,1.95,1.95,5.72
54.10,-3.93,-9.65,-3.93,-9.65,6.00,6.17,6.39,2.07,2.07,5.72
54.64,-3.82,-9.54,-3.83,-9.54,6.00,6.16,6.43,2.18,2.17,5.72
55.18,-3.72,-9.43,-3.72,-9.43,6.00,6.16,6.48,2.28,2.28,5.70
55.74,-3.62,-9.33,-3.62,-9.32,6.00,6.16,6.52,2.38,2.38,5.70
56.29,-3.52,-9.22,-3.52,-9.22,6.00,6.16,6.57,2.48,2.48,5.70
56.86,-3.42,-9.11,-3.42,-9.11,6.00,6.15,6.60,2.58,2.58,5.69
57.42,-3.32,-9.01,-3.32,-9.01,6.00,6.15,6.64,2.68,2.68,5.69
58.00,-3.23,-8.91,-3.24,-8.91,6.00,6.14,6.67,2.77,2.76,5.68
58.58,-3.15,-8.82,-3.15,-8.82,6.00,6.14,6.70,2.85,2.85,5.67
59.16,-3.08,-8.74,-3.07,-8.73,6.00,6.13,6.72,2.92,2.93,5.66
59.76,-2.99,-8.64,-2.99,-8.64,6.00,6.13,6.74,3.01,3.01,5.65
60.35,-2.90,-8.53,-2.91,-8.54,6.00,6.12,6.75,3.10,3.09,5.63
60.96,-2.83,-8.45,-2.83,-8.45,6.00,6.12,6.75,3.17,3.17,5.62
61.57,-2.76,-8.36,-2.76,-8.36,6.00,6.11,6.75,3.24,3.24,5.60
62.18,-2.69,-8.28,-2.69,-8.27,6.00,6.10,6.74,3.31,3.31,5.59
62.80,-2.61,-8.18,-2.61,-8.18,6.00,6.10,6.72,3.39,3.39,5.57
63.43,-2.54,-8.09,-2.54,-8.09,6.00,6.09,6.70,3.46,3.46,5.55
64.07,-2.47,-8.00,-2.47,-8.00,6.00,6.08,6.67,3.53,3.53,5.53
64.71,-2.40,-7.91,-2.40,-7.91,6.00,6.08,6.63,3.60,3.60,5.51
65.35,-2.34,-7.83,-2.34,-7.83,6.00,6.07,6.59,3.66,3.66,5.49
66.01,-2.28,-7.75,-2.28,-7.75,6.00,6.06,6.54,3.72,3.72,5.47
66.67,-2.22,-7.67,-2.22,-7.67,6.00,6.05,6.49,3.78,3.78,5.45
67.33,-2.16,-7.59,-2.16,-7.59,6.00,6.04,6.43,3.84,3.84,5.43
68.01,-2.09,-7.49,-2.09,-7.50,6.00,6.03,6.36,3.91,3.91,5.40
68.69,-2.02,-7.40,-2.02,-7.41,6.00,6.03,6.29,3.98,3.98,5.38
69.37,-1.96,-7.32,-1.96,-7.32,6.00,6.02,6.22,4.04,4.04,5.36
70.07,-1.90,-7.24,-1.90,-7.24,6.00,6.01,6.15,4.10,4.10,5.34
70.77,-1.85,-7.17,-1.85,-7.16,6.00,6.00,6.07,4.15,4.15,5.32
71.48,-1.79,-7.09,-1.79,-7.09,6.00,5.99,5.99,4.21,4.21,5.29
72.19,-1.73,-7.00,-1.73,-7.01,6.00,5.99,5.91,4.27,4.27,5.27
72.91,-1.67,-6.93,-1.67,-6.92,6.00,5.98,5.82,4.33,4.33,5.26
73.64,-1.60,-6.83,-1.61,-6.84,6.00,5.97,5.74,4.40,4.39,5.23
74.38,-1.54,-6.76,-1.54,-6.76,6.00,5.97,5.66,4.46,4.46,5.22
75.12,-1.49,-6.68,-1.49,-6.68,6.00,5.96,5.57,4.51,4.51,5.19
75.87,-1.43,-6.61,-1.43,-6.61,6.00,5.96,5.49,4.57,4.57,5.18
76.63,-1.38,-6.54,-1.38,-6.54,6.00,5.96,5.41,4.62,4.62,5.16
77.40,-1.33,-6.47,-1.33,-6.47,6.00,5.95,5.33,4.67,4.67,5.14
78.17,-1.28,-6.40,-1.28,-6.40,6.01,5.95,5.25,4.73,4.73,5.12
78.95,-1.22,-6.33,-1.22,-6.33,6.01,5.95,5.17,4.79,4.79,5.10
79.74,-1.17,-6.26,-1.17,-6.25,6.01,5.94,5.10,4.84,4.84,5.09
80.54,-1.11,-6.18,-1.11,-6.18,6.00,5.93,5.03,4.89,4.89,5.07
81.35,-1.06,-6.11,-1.06,-6.11,5.99,5.92,4.96,4.93,4.93,5.05
82.16,-1.01,-6.04,-1.01,-6.03,5.97,5.89,4.90,4.95,4.96,5.02
82.98,-0.96,-5.97,-0.96,-5.96,5.93,5.87,4.83,4.97,4.97,5.00
83.81,-0.91,-5.89,-0.91,-5.90,5.89,5.84,4.77,4.98,4.98,4.98
84.65,-0.87,-5.83,-0.87,-5.83,5.85,5.80,4.72,4.97,4.97,4.96
85.50,-0.84,-5.78,-0.84,-5.78,5.79,5.75,4.66,4.95,4.95,4.94
86.35,-0.81,-5.73,-0.81,-5.72,5.74,5.70,4.61,4.93,4.93,4.91
87.22,-0.78,-5.67,-0.78,-5.67,5.68,5.65,4.57,4.90,4.90,4.89
88.09,-0.75,-5.62,-0.75,-5.62,5.62,5.60,4.53,4.87,4.87,4.87
88.97,-0.72,-5.57,-0.72,-5.57,5.57,5.54,4.49,4.84,4.84,4.85
89.86,-0.69,-5.52,-0.69,-5.52,5.51,5.48,4.45,4.82,4.82,4.83
90.76,-0.66,-5.46,-0.66,-5.46,5.46,5.43,4.42,4.80,4.80,4.80
91.66,-0.62,-5.41,-0.62,-5.41,5.40,5.37,4.39,4.78,4.78,4.79
92.58,-0.59,-5.35,-0.59,-5.35,5.35,5.32,4.36,4.76,4.76,4.76
93.51,-0.55,-5.29,-0.55,-5.29,5.30,5.27,4.34,4.74,4.74,4.73
94.44,-0.52,-5.24,-0.52,-5.24,5.24,5.21,4.32,4.72,4.72,4.72
95.39,-0.49,-5.18,-0.49,-5.19,5.19,5.16,4.30,4.69,4.69,4.69
96.34,-0.47,-5.14,-0.47,-5.14,5.13,5.11,4.29,4.66,4.66,4.67
97.30,-0.44,-5.09,-0.44,-5.08,5.08,5.06,4.28,4.64,4.64,4.65
98.28,-0.41,-5.03,-0.41,-5.03,5.03,5.01,4.27,4.62,4.62,4.62
99.26,-0.38,-4.97,-0.39,-4.98,4.99,4.96,4.26,4.60,4.60,4.59
100.25,-0.37,-4.94,-0.37,-4.94,4.94,4.92,4.26,4.57,4.58,4.57
101.25,-0.35,-4.90,-0.35,-4.89,4.90,4.87,4.26,4.55,4.55,4.54
102.27,-0.34,-4.86,-0.34,-4.86,4.86,4.82,4.26,4.52,4.52,4.52
103.29,-0.33,-4.81,-0.33,-4.82,4.82,4.78,4.26,4.49,4.49,4.48
104.32,-0.33,-4.78,-0.33,-4.78,4.78,4.73,4.26,4.45,4.45,4.45
105.37,-0.32,-4.74,-0.32,-4.74,4.73,4.69,4.27,4.41,4.41,4.42
106.42,-0.31,-4.69,-0.31,-4.69,4.68,4.64,4.27,4.37,4.37,4.38
107.48,-0.29,-4.64,-0.29,-4.63,4.62,4.60,4.28,4.33,4.33,4.34
108.56,-0.26,-4.57,-0.26,-4.57,4.56,4.55,4.29,4.30,4.30,4.31
109.64,-0.23,-4.50,-0.23,-4.50,4.49,4.51,4.30,4.26,4.27,4.27
110.74,-0.19,-4.42,-0.19,-4.42,4.42,4.47,4.30,4.23,4.23,4.23
111.85,-0.15,-4.34,-0.16,-4.34,4.35,4.42,4.31,4.20,4.19,4.19
112.97,-0.12,-4.27,-0.12,-4.27,4.27,4.38,4.31,4.15,4.15,4.14
114.10,-0.09,-4.20,-0.09,-4.19,4.20,4.34,4.32,4.10,4.11,4.11
115.24,-0.06,-4.12,-0.06,-4.13,4.13,4.30,4.32,4.06,4.06,4.06
116.39,-0.04,-4.06,-0.04,-4.06,4.06,4.25,4.32,4.02,4.02,4.02
117.55,-0.02,-4.00,-0.02,-4.00,4.00,4.21,4.32,3.98,3.98,3.98
118.73,-0.00,-3.94,-0.00,-3.94,3.95,4.17,4.32,3.95,3.94,3.94
119.92,0.01,-3.88,0.00,-3.89,3.90,4.13,4.31,3.91,3.90,3.89
121.12,-0.00,-3.86,0.00,-3.85,3.86,4.09,4.31,3.86,3.86,3.86
122.33,-0.00,-3.82,-0.00,-3.82,3.82,4.05,4.29,3.82,3.82,3.82
123.55,-0.00,-3.79,-0.01,-3.79,3.79,4.01,4.28,3.78,3.78,3.79
124.79,-0.01,-3.76,-0.01,-3.76,3.75,3.97,4.26,3.74,3.75,3.75
126.03,-0.01,-3.73,-0.01,-3.73,3.72,3.93,4.24,3.71,3.71,3.72
127.29,-0.01,-3.70,-0.01,-3.70,3.69,3.90,4.22,3.68,3.68,3.68
128.57,-0.01,-3.66,-0.01,-3.66,3.66,3.86,4.19,3.65,3.65,3.65
129.85,-0.01,-3.63,-0.01,-3.63,3.63,3.82,4.16,3.62,3.62,3.62
131.15,-0.01,-3.60,-0.01,-3.60,3.60,3.78,4.13,3.59,3.59,3.59
132.46,-0.01,-3.56,-0.01,-3.57,3.57,3.75,4.09,3.56,3.56,3.55
133.79,-0.01,-3.54,-0.01,-3.54,3.54,3.71,4.06,3.53,3.53,3.53
135.12,-0.01,-3.51,-0.01,-3.51,3.51,3.68,4.01,3.50,3.50,3.50
136.48,-0.01,-3.48,-0.01,-3.48,3.48,3.64,3.97,3.47,3.47,3.47
137.84,-0.01,-3.45,-0.01,-3.45,3.45,3.61,3.93,3.44,3.44,3.44
139.22,-0.01,-3.42,-0.01,-3.42,3.43,3.58,3.88,3.42,3.42,3.41
140.61,-0.01,-3.39,-0.01,-3.40,3.40,3.55,3.83,3.39,3.39,3.38
142.02,-0.01,-3.38,-0.01,-3.37,3.37,3.51,3.79,3.36,3.36,3.37
143.44,-0.01,-3.35,-0.01,-3.35,3.34,3.48,3.74,3.33,3.33,3.34
144.87,-0.01,-3.32,-0.01,-3.32,3.32,3.45,3.69,3.31,3.31,3.31
146.32,-0.01,-3.29,-0.01,-3.29,3.29,3.42,3.64,3.28,3.28,3.27
147.78,-0.01,-3.26,-0.01,-3.26,3.26,3.39,3.59,3.25,3.25,3.25
149.26,-0.01,-3.23,-0.01,-3.23,3.24,3.36,3.54,3.22,3.22,3.22
150.75,-0.01,-3.21,-0.01,-3.21,3.21,3.33,3.49,3.20,3.20,3.20
152.26,-0.01,-3.19,-0.01,-3.18,3.18,3.31,3.44,3.17,3.17,3.17
153.78,-0.01,-3.15,-0.01,-3.16,3.16,3.28,3.39,3.15,3.15,3.14
155.32,-0.01,-3.13,-0.01,-3.13,3.13,3.25,3.34,3.12,3.12,3.12
156.88,-0.01,-3.11,-0.01,-3.11,3.11,3.22,3.30,3.09,3.09,3.09
158.44,-0.01,-3.08,-0.01,-3.08,3.08,3.20,3.26,3.07,3.07,3.07
160.03,-0.01,-3.05,-0.01,-3.06,3.05,3.17,3.21,3.04,3.04,3.04
161.63,-0.01,-3.03,-0.01,-3.03,3.02,3.15,3.17,3.01,3.01,3.02
163.24,-0.00,-2.99,-0.00,-2.99,2.99,3.12,3.13,2.99,2.99,2.99
164.88,0.01,-2.96,0.01,-2.96,2.97,3.10,3.10,2.97,2.97,2.97
166.53,0.01,-2.93,0.01,-2.93,2.94,3.08,3.06,2.95,2.95,2.94
168.19,-0.00,-2.91,0.00,-2.91,2.92,3.05,3.03,2.92,2.92,2.91
169.87,-0.01,-2.90,-0.01,-2.90,2.90,3.03,3.00,2.89,2.89,2.88
171.57,-0.03,-2.89,-0.03,-2.89,2.89,3.01,2.97,2.85,2.85,2.86
173.29,-0.05,-2.88,-0.05,-2.88,2.87,2.99,2.94,2.82,2.82,2.83
175.02,-0.08,-2.88,-0.08,-2.88,2.87,2.97,2.92,2.79,2.79,2.80
176.77,-0.10,-2.87,-0.10,-2.87,2.87,2.94,2.90,2.77,2.77,2.77
178.54,-0.12,-2.86,-0.12,-2.86,2.88,2.92,2.88,2.75,2.75,2.74
180.32,-0.16,-2.87,-0.16,-2.87,2.89,2.90,2.86,2.72,2.72,2.71
182.13,-0.20,-2.88,-0.21,-2.89,2.90,2.88,2.84,2.70,2.69,2.68
183.95,-0.28,-2.93,-0.27,-2.91,2.92,2.87,2.83,2.64,2.65,2.65
185.79,-0.32,-2.93,-0.33,-2.94,2.94,2.85,2.82,2.62,2.61,2.61
187.65,-0.38,-2.97,-0.38,-2.97,2.96,2.83,2.81,2.58,2.58,2.59
189.52,-0.43,-2.99,-0.43,-2.99,2.98,2.81,2.80,2.55,2.55,2.56
191.42,-0.48,-3.00,-0.48,-3.01,3.00,2.79,2.79,2.52,2.52,2.52
193.33,-0.52,-3.01,-0.52,-3.02,3.01,2.77,2.79,2.49,2.49,2.49
195.27,-0.56,-3.03,-0.56,-3.02,3.02,2.76,2.79,2.45,2.46,2.47
197.22,-0.58,-3.02,-0.58,-3.02,3.02,2.74,2.79,2.44,2.44,2.44
199.19,-0.60,-3.01,-0.60,-3.01,3.01,2.72,2.79,2.41,2.41,2.41
201.18,-0.62,-2.99,-0.63,-2.99,3.00,2.70,2.79,2.38,2.38,2.37
203.19,-0.65,-2.99,-0.65,-2.99,2.99,2.69,2.79,2.34,2.34,2.33
205.23,-0.67,-2.98,-0.67,-2.97,2.97,2.67,2.80,2.30,2.30,2.30
207.28,-0.68,-2.96,-0.68,-2.96,2.94,2.66,2.80,2.26,2.26,2.28
209.35,-0.68,-2.93,-0.68,-2.93,2.91,2.64,2.81,2.23,2.23,2.25
211.44,-0.68,-2.89,-0.68,-2.89,2.88,2.62,2.82,2.20,2.20,2.21
213.56,-0.67,-2.85,-0.67,-2.85,2.85,2.61,2.82,2.18,2.18,2.18
215.69,-0.66,-2.80,-0.67,-2.80,2.81,2.59,2.83,2.15,2.15,2.14
217.85,-0.66,-2.76,-0.66,-2.77,2.77,2.58,2.84,2.11,2.11,2.10
220.03,-0.66,-2.73,-0.66,-2.73,2.74,2.56,2.85,2.08,2.08,2.07
222.23,-0.66,-2.71,-0.66,-2.70,2.70,2.55,2.85,2.04,2.04,2.05
224.45,-0.66,-2.67,-0.66,-2.67,2.67,2.53,2.86,2.01,2.01,2.01
226.70,-0.66,-2.64,-0.66,-2.64,2.64,2.51,2.86,1.98,1.98,1.98
228.96,-0.66,-2.61,-0.66,-2.61,2.62,2.50,2.87,1.95,1.95,1.95
231.25,-0.66,-2.59,-0.66,-2.59,2.59,2.48,2.87,1.93,1.93,1.93
233.57,-0.66,-2.57,-0.66,-2.57,2.57,2.47,2.87,1.91,1.91,1.91
235.90,-0.66,-2.55,-0.66,-2.55,2.55,2.45,2.87,1.89,1.89,1.88
238.26,-0.66,-2.53,-0.66,-2.53,2.53,2.44,2.86,1.87,1.87,1.87
240.64,-0.66,-2.51,-0.66,-2.51,2.51,2.42,2.86,1.85,1.85,1.85
243.05,-0.66,-2.50,-0.66,-2.50,2.50,2.41,2.85,1.83,1.83,1.84
245.48,-0.66,-2.48,-0.66,-2.48,2.48,2.39,2.84,1.82,1.82,1.82
247.93,-0.66,-2.47,-0.66,-2.47,2.47,2.38,2.83,1.80,1.80,1.81
250.41,-0.66,-2.45,-0.66,-2.45,2.45,2.37,2.81,1.79,1.79,1.79
252.92,-0.66,-2.44,-0.66,-2.44,2.44,2.35,2.80,1.78,1.78,1.78
255.45,-0.66,-2.42,-0.66,-2.42,2.43,2.34,2.78,1.76,1.76,1.76
258.00,-0.66,-2.41,-0.66,-2.41,2.41,2.32,2.75,1.75,1.75,1.75
260.58,-0.66,-2.40,-0.66,-2.40,2.40,2.31,2.73,1.74,1.74,1.74
263.19,-0.66,-2.39,-0.66,-2.39,2.39,2.29,2.70,1.73,1.73,1.73
265.82,-0.66,-2.38,-0.66,-2.38,2.37,2.28,2.67,1.71,1.71,1.71
268.48,-0.66,-2.36,-0.66,-2.36,2.36,2.26,2.64,1.70,1.70,1.70
271.16,-0.66,-2.35,-0.66,-2.35,2.35,2.24,2.61,1.69,1.69,1.69
273.87,-0.66,-2.33,-0.66,-2.33,2.33,2.23,2.57,1.67,1.67,1.67
276.61,-0.66,-2.32,-0.66,-2.32,2.32,2.21,2.53,1.66,1.66,1.66
279.38,-0.66,-2.31,-0.66,-2.31,2.31,2.20,2.49,1.65,1.65,1.65
282.17,-0.66,-2.29,-0.66,-2.29,2.29,2.18,2.45,1.63,1.63,1.63
284.99,-0.66,-2.28,-0.66,-2.28,2.28,2.17,2.41,1.62,1.62,1.62
287.84,-0.66,-2.27,-0.66,-2.27,2.27,2.15,2.37,1.61,1.61,1.61
290.72,-0.66,-2.25,-0.66,-2.25,2.26,2.14,2.33,1.59,1.59,1.59
293.63,-0.66,-2.24,-0.66,-2.24,2.24,2.12,2.29,1.58,1.58,1.58
296.57,-0.66,-2.23,-0.66,-2.23,2.23,2.11,2.24,1.57,1.57,1.57
299.53,-0.66,-2.22,-0.66,-2.22,2.21,2.09,2.20,1.55,1.55,1.55
302.53,-0.66,-2.20,-0.66,-2.20,2.20,2.07,2.16,1.54,1.54,1.54
305.55,-0.66,-2.18,-0.66,-2.19,2.19,2.06,2.11,1.52,1.52,1.52
308.61,-0.66,-2.17,-0.66,-2.17,2.17,2.04,2.07,1.51,1.51,1.51
311.69,-0.66,-2.16,-0.66,-2.15,2.15,2.03,2.03,1.49,1.49,1.50
314.81,-0.66,-2.13,-0.66,-2.14,2.14,2.01,1.99,1.48,1.48,1.47
317.96,-0.66,-2.12,-0.66,-2.12,2.12,1.99,1.95,1.46,1.46,1.46
321.14,-0.66,-2.10,-0.66,-2.10,2.10,1.98,1.91,1.44,1.44,1.44
324.35,-0.66,-2.09,-0.66,-2.09,2.09,1.96,1.87,1.42,1.42,1.43
327.59,-0.66,-2.07,-0.66,-2.07,2.07,1.94,1.83,1.41,1.41,1.41
330.87,-0.66,-2.05,-0.66,-2.05,2.05,1.93,1.79,1.39,1.39,1.39
334.18,-0.66,-2.03,-0.66,-2.04,2.04,1.91,1.76,1.37,1.37,1.37
337.52,-0.66,-2.02,-0.66,-2.02,2.02,1.89,1.72,1.36,1.36,1.36
340.90,-0.66,-2.00,-0.66,-2.00,2.01,1.88,1.69,1.35,1.35,1.34
344.30,-0.66,-1.99,-0.67,-1.99,1.99,1.86,1.66,1.33,1.33,1.33
347.75,-0.67,-1.98,-0.67,-1.98,1.98,1.84,1.63,1.31,1.31,1.31
351.23,-0.68,-1.97,-0.68,-1.97,1.96,1.82,1.60,1.28,1.29,1.28
354.74,-0.68,-1.95,-0.68,-1.95,1.95,1.81,1.57,1.26,1.26,1.27
358.28,-0.68,-1.93,-0.68,-1.93,1.92,1.79,1.54,1.24,1.24,1.25
361.87,-0.67,-1.90,-0.67,-1.90,1.90,1.77,1.51,1.23,1.23,1.23
365.49,-0.65,-1.87,-0.65,-1.87,1.87,1.75,1.49,1.21,1.21,1.22
369.14,-0.63,-1.83,-0.63,-1.83,1.83,1.74,1.46,1.20,1.20,1.20
372.83,-0.61,-1.80,-0.61,-1.79,1.79,1.72,1.44,1.18,1.18,1.19
376.56,-0.57,-1.74,-0.58,-1.74,1.74,1.70,1.42,1.17,1.16,1.16
380.33,-0.55,-1.70,-0.55,-1.69,1.69,1.68,1.40,1.14,1.15,1.14
384.13,-0.51,-1.64,-0.51,-1.64,1.64,1.66,1.38,1.13,1.13,1.13
387.97,-0.48,-1.59,-0.48,-1.59,1.60,1.65,1.36,1.11,1.12,1.11
391.85,-0.44,-1.54,-0.44,-1.54,1.55,1.63,1.34,1.11,1.11,1.10
395.77,-0.41,-1.50,-0.41,-1.50,1.50,1.61,1.32,1.09,1.09,1.09
399.73,-0.38,-1.46,-0.38,-1.46,1.46,1.59,1.31,1.08,1.08,1.08
403.72,-0.36,-1.43,-0.36,-1.43,1.43,1.57,1.29,1.06,1.07,1.07
407.76,-0.34,-1.40,-0.34,-1.39,1.40,1.55,1.28,1.06,1.06,1.06
411.84,-0.32,-1.36,-0.32,-1.36,1.37,1.54,1.26,1.05,1.05,1.04
415.96,-0.31,-1.34,-0.32,-1.34,1.35,1.52,1.25,1.04,1.04,1.03
420.12,-0.32,-1.34,-0.32,-1.33,1.34,1.50,1.24,1.02,1.02,1.01
424.32,-0.33,-1.34,-0.33,-1.33,1.33,1.48,1.23,1.00,1.00,1.00
428.56,-0.33,-1.33,-0.34,-1.33,1.32,1.46,1.22,0.99,0.98,0.99
432.85,-0.34,-1.31,-0.34,-1.32,1.31,1.44,1.20,0.97,0.97,0.97
437.18,-0.34,-1.30,-0.34,-1.30,1.30,1.42,1.19,0.96,0.96,0.96
441.55,-0.34,-1.29,-0.34,-1.29,1.29,1.41,1.18,0.95,0.94,0.95
445.96,-0.34,-1.27,-0.34,-1.27,1.27,1.39,1.17,0.93,0.93,0.93
450.42,-0.34,-1.25,-0.34,-1.26,1.26,1.37,1.16,0.91,0.91,0.91
454.93,-0.34,-1.24,-0.34,-1.24,1.24,1.35,1.15,0.90,0.90,0.90
459.48,-0.34,-1.22,-0.34,-1.22,1.22,1.33,1.14,0.88,0.88,0.88
464.07,-0.34,-1.20,-0.34,-1.20,1.20,1.31,1.13,0.86,0.86,0.86
468.71,-0.34,-1.18,-0.34,-1.18,1.18,1.29,1.12,0.84,0.84,0.84
473.40,-0.34,-1.17,-0.34,-1.17,1.17,1.27,1.11,0.83,0.83,0.83
478.13,-0.34,-1.15,-0.34,-1.15,1.15,1.25,1.10,0.81,0.81,0.81
