frequency,raw,error,smoothed,error_smoothed,equalization,parametric_eq,fixed_band_eq,equalized_raw,equalized_smoothed,target
20.00,2.74,0.84,2.74,0.84,-0.83,-0.81,-1.13,1.91,1.91,1.90
20.20,2.78,0.84,2.78,0.84,-0.84,-0.83,-1.17,1.94,1.94,1.94
20.40,2.83,0.86,2.83,0.85,-0.85,-0.85,-1.20,1.98,1.97,1.97
20.61,2.87,0.87,2.87,0.87,-0.87,-0.87,-1.24,2.00,2.00,2.00
20.81,2.92,0.89,2.92,0.89,-0.90,-0.89,-1.28,2.03,2.03,2.03
21.02,2.97,0.91,2.97,0.91,-0.92,-0.92,-1.31,2.05,2.05,2.06
21.23,3.02,0.94,3.02,0.94,-0.95,-0.94,-1.35,2.07,2.07,2.08
21.44,3.07,0.98,3.07,0.98,-0.98,-0.96,-1.40,2.09,2.09,2.09
21.66,3.13,1.03,3.13,1.02,-1.02,-0.99,-1.44,2.11,2.11,2.10
21.87,3.18,1.07,3.18,1.07,-1.06,-1.01,-1.48,2.12,2.12,2.11
22.09,3.23,1.11,3.23,1.11,-1.10,-1.04,-1.53,2.13,2.13,2.12
22.31,3.28,1.15,3.28,1.15,-1.15,-1.06,-1.57,2.13,2.13,2.13
22.54,3.32,1.19,3.32,1.19,-1.20,-1.09,-1.62,2.12,2.13,2.13
22.76,3.37,1.24,3.37,1.24,-1.24,-1.12,-1.67,2.13,2.13,2.13
22.99,3.42,1.29,3.42,1.29,-1.29,-1.15,-1.72,2.13,2.13,2.13
23.22,3.47,1.33,3.47,1.34,-1.33,-1.17,-1.77,2.14,2.14,2.14
23.45,3.53,1.39,3.53,1.38,-1.38,-1.20,-1.82,2.15,2.14,2.14
23.69,3.58,1.43,3.58,1.43,-1.44,-1.23,-1.88,2.14,2.14,2.15
23.92,3.63,1.48,3.63,1.48,-1.49,-1.27,-1.93,2.14,2.15,2.15
24.16,3.69,1.53,3.69,1.53,-1.54,-1.30,-1.98,2.15,2.15,2.16
24.40,3.74,1.58,3.74,1.59,-1.59,-1.33,-2.04,2.15,2.15,2.16
24.65,3.79,1.64,3.80,1.64,-1.64,-1.37,-2.10,2.15,2.16,2.15
24.89,3.85,1.70,3.84,1.70,-1.68,-1.40,-2.16,2.17,2.16,2.15
25.14,3.88,1.73,3.88,1.74,-1.72,-1.44,-2.21,2.16,2.16,2.15
25.39,3.91,1.78,3.91,1.77,-1.76,-1.48,-2.27,2.15,2.15,2.14
25.65,3.93,1.80,3.93,1.80,-1.80,-1.51,-2.33,2.13,2.13,2.13
25.91,3.95,1.83,3.95,1.83,-1.83,-1.55,-2.39,2.11,2.12,2.12
26.16,3.98,1.87,3.98,1.87,-1.87,-1.59,-2.45,2.11,2.11,2.11
26.43,4.02,1.91,4.02,1.91,-1.92,-1.63,-2.51,2.10,2.10,2.11
26.69,4.06,1.96,4.05,1.95,-1.96,-1.68,-2.56,2.10,2.09,2.10
26.96,4.09,1.99,4.10,2.00,-2.02,-1.72,-2.62,2.07,2.08,2.10
27.23,4.15,2.06,4.15,2.06,-2.07,-1.77,-2.68,2.08,2.08,2.09
27.50,4.21,2.12,4.21,2.13,-2.12,-1.81,-2.73,2.09,2.10,2.09
27.77,4.27,2.20,4.27,2.19,-2.16,-1.86,-2.78,2.11,2.11,2.07
28.05,4.32,2.25,4.31,2.24,-2.20,-1.91,-2.83,2.12,2.10,2.07
28.33,4.32,2.26,4.32,2.27,-2.25,-1.96,-2.88,2.07,2.07,2.06
28.62,4.33,2.28,4.33,2.28,-2.29,-2.01,-2.93,2.04,2.03,2.05
28.90,4.33,2.28,4.34,2.30,-2.34,-2.06,-2.97,1.99,2.00,2.05
29.19,4.37,2.33,4.38,2.34,-2.37,-2.11,-3.01,2.00,2.01,2.04
29.48,4.44,2.40,4.44,2.40,-2.41,-2.16,-3.05,2.03,2.03,2.04
29.78,4.51,2.48,4.50,2.47,-2.44,-2.22,-3.08,2.07,2.06,2.03
30.08,4.56,2.54,4.55,2.52,-2.48,-2.28,-3.11,2.08,2.07,2.02
30.38,4.56,2.55,4.56,2.54,-2.53,-2.33,-3.14,2.03,2.03,2.01
30.68,4.56,2.55,4.56,2.55,-2.58,-2.39,-3.16,1.98,1.98,2.01
30.99,4.56,2.56,4.58,2.58,-2.63,-2.45,-3.18,1.93,1.95,2.00
31.30,4.63,2.63,4.63,2.63,-2.67,-2.51,-3.19,1.96,1.96,2.00
31.61,4.70,2.70,4.70,2.71,-2.71,-2.57,-3.20,1.99,1.99,2.00
31.93,4.77,2.78,4.76,2.77,-2.74,-2.63,-3.20,2.03,2.02,1.99
32.24,4.79,2.83,4.79,2.81,-2.76,-2.70,-3.20,2.03,2.02,1.96
32.57,4.79,2.83,4.80,2.83,-2.79,-2.76,-3.20,2.00,2.00,1.96
32.89,4.79,2.82,4.79,2.83,-2.82,-2.82,-3.19,1.97,1.97,1.97
33.22,4.79,2.83,4.79,2.82,-2.85,-2.89,-3.18,1.94,1.94,1.96
33.55,4.79,2.83,4.78,2.83,-2.88,-2.95,-3.17,1.91,1.91,1.96
33.89,4.79,2.84,4.80,2.86,-2.90,-3.02,-3.15,1.89,1.90,1.95
34.23,4.84,2.90,4.85,2.91,-2.93,-3.08,-3.13,1.91,1.92,1.94
34.57,4.92,2.99,4.91,2.98,-2.97,-3.15,-3.11,1.96,1.95,1.93
34.92,4.99,3.06,4.97,3.04,-3.00,-3.21,-3.09,1.99,1.98,1.93
35.27,5.01,3.08,5.01,3.08,-3.03,-3.28,-3.06,1.98,1.97,1.93
35.62,5.01,3.09,5.02,3.09,-3.07,-3.34,-3.03,1.94,1.95,1.92
35.97,5.01,3.10,5.01,3.10,-3.10,-3.41,-3.00,1.91,1.91,1.92
36.33,5.02,3.11,5.01,3.11,-3.14,-3.47,-2.97,1.88,1.87,1.91
36.70,5.03,3.13,5.03,3.13,-3.18,-3.53,-2.94,1.85,1.85,1.90
37.06,5.05,3.16,5.07,3.18,-3.21,-3.59,-2.91,1.84,1.86,1.89
37.43,5.13,3.25,5.13,3.25,-3.25,-3.65,-2.88,1.88,1.88,1.89
37.81,5.20,3.33,5.19,3.32,-3.29,-3.70,-2.84,1.91,1.90,1.87
38.19,5.24,3.38,5.23,3.37,-3.33,-3.76,-2.81,1.91,1.90,1.86
38.57,5.24,3.38,5.24,3.39,-3.36,-3.81,-2.78,1.88,1.89,1.86
38.95,5.24,3.40,5.24,3.40,-3.38,-3.86,-2.75,1.86,1.86,1.84
39.34,5.24,3.41,5.24,3.41,-3.40,-3.90,-2.72,1.84,1.84,1.83
39.74,5.24,3.42,5.24,3.42,-3.42,-3.94,-2.69,1.82,1.82,1.82
40.14,5.24,3.41,5.23,3.41,-3.44,-3.98,-2.67,1.80,1.79,1.83
40.54,5.24,3.43,5.23,3.42,-3.47,-4.02,-2.64,1.77,1.77,1.81
40.94,5.24,3.43,5.27,3.46,-3.50,-4.05,-2.62,1.74,1.76,1.81
41.35,5.32,3.53,5.33,3.53,-3.54,-4.08,-2.59,1.78,1.79,1.80
41.76,5.42,3.63,5.40,3.61,-3.59,-4.10,-2.57,1.83,1.81,1.79
42.18,5.47,3.69,5.46,3.68,-3.63,-4.12,-2.55,1.84,1.82,1.78
42.60,5.47,3.71,5.48,3.71,-3.68,-4.14,-2.53,1.79,1.80,1.76
43.03,5.47,3.72,5.47,3.73,-3.72,-4.15,-2.52,1.75,1.75,1.75
43.46,5.47,3.75,5.47,3.75,-3.76,-4.16,-2.51,1.71,1.71,1.72
43.90,5.47,3.78,5.47,3.78,-3.79,-4.16,-2.49,1.68,1.68,1.69
44.33,5.47,3.80,5.47,3.80,-3.81,-4.16,-2.48,1.66,1.66,1.67
44.78,5.47,3.83,5.47,3.83,-3.83,-4.16,-2.48,1.64,1.64,1.64
45.23,5.47,3.85,5.47,3.86,-3.85,-4.15,-2.47,1.62,1.62,1.62
45.68,5.47,3.88,5.47,3.88,-3.87,-4.14,-2.47,1.60,1.60,1.59
46.13,5.47,3.90,5.47,3.89,-3.89,-4.13,-2.46,1.58,1.58,1.57
46.60,5.47,3.90,5.47,3.91,-3.91,-4.11,-2.46,1.56,1.56,1.57
47.06,5.47,3.92,5.47,3.92,-3.92,-4.09,-2.46,1.55,1.55,1.55
47.53,5.47,3.93,5.47,3.92,-3.93,-4.07,-2.47,1.54,1.54,1.54
48.01,5.47,3.93,5.47,3.93,-3.94,-4.05,-2.47,1.53,1.53,1.54
48.49,5.47,3.94,5.47,3.94,-3.94,-4.02,-2.48,1.53,1.53,1.53
48.97,5.47,3.95,5.47,3.95,-3.95,-4.00,-2.49,1.52,1.52,1.52
49.46,5.47,3.96,5.47,3.96,-3.95,-3.97,-2.50,1.52,1.52,1.51
49.96,5.47,3.96,5.47,3.95,-3.96,-3.95,-2.51,1.51,1.51,1.51
50.46,5.47,3.94,5.47,3.95,-3.96,-3.92,-2.52,1.51,1.51,1.53
50.96,5.47,3.94,5.47,3.95,-3.96,-3.90,-2.54,1.51,1.51,1.53
51.47,5.47,3.95,5.47,3.95,-3.95,-3.88,-2.55,1.52,1.52,1.52
51.99,5.47,3.96,5.48,3.97,-3.94,-3.86,-2.57,1.53,1.54,1.51
52.51,5.47,3.96,5.47,3.96,-3.92,-3.84,-2.59,1.55,1.55,1.51
53.03,5.46,3.97,5.42,3.92,-3.91,-3.83,-2.60,1.55,1.51,1.49
53.56,5.34,3.87,5.35,3.87,-3.89,-3.82,-2.62,1.45,1.45,1.47
54.10,5.24,3.79,5.28,3.83,-3.88,-3.81,-2.64,1.36,1.40,1.45
54.64,5.24,3.82,5.24,3.82,-3.86,-3.81,-2.66,1.38,1.38,1.42
55.18,5.24,3.85,5.24,3.84,-3.83,-3.81,-2.68,1.41,1.40,1.39
55.74,5.24,3.88,5.21,3.85,-3.81,-3.81,-2.70,1.43,1.40,1.36
56.29,5.17,3.83,5.15,3.81,-3.79,-3.82,-2.72,1.38,1.35,1.34
56.86,5.04,3.73,5.09,3.78,-3.77,-3.82,-2.73,1.27,1.32,1.31
57.42,5.01,3.74,5.02,3.75,-3.75,-3.83,-2.75,1.26,1.27,1.27
58.00,5.01,3.77,4.95,3.72,-3.72,-3.83,-2.77,1.29,1.23,1.24
58.58,4.88,3.68,4.90,3.69,-3.70,-3.83,-2.79,1.19,1.20,1.20
59.16,4.79,3.61,4.84,3.66,-3.67,-3.81,-2.80,1.12,1.17,1.18
59.76,4.79,3.64,4.75,3.61,-3.64,-3.78,-2.81,1.15,1.11,1.15
60.35,4.71,3.61,4.68,3.58,-3.61,-3.73,-2.83,1.10,1.08,1.10
60.96,4.57,3.50,4.63,3.57,-3.57,-3.66,-2.84,1.00,1.06,1.07
61.57,4.56,3.55,4.56,3.54,-3.52,-3.56,-2.85,1.04,1.04,1.01
62.18,4.52,3.54,4.48,3.50,-3.46,-3.45,-2.85,1.06,1.02,0.98
62.80,4.37,3.43,4.36,3.43,-3.39,-3.32,-2.86,0.98,0.97,0.94
63.43,4.19,3.30,4.19,3.29,-3.31,-3.16,-2.87,0.88,0.88,0.89
64.07,4.00,3.13,4.02,3.16,-3.21,-3.00,-2.87,0.80,0.82,0.87
64.71,3.88,3.05,3.89,3.06,-3.08,-2.81,-2.87,0.80,0.81,0.83
65.35,3.77,2.97,3.77,2.97,-2.94,-2.62,-2.87,0.82,0.82,0.80
66.01,3.65,2.89,3.61,2.84,-2.80,-2.42,-2.87,0.85,0.81,0.76
66.67,3.39,2.65,3.38,2.64,-2.63,-2.20,-2.87,0.76,0.75,0.74
67.33,3.13,2.41,3.14,2.43,-2.46,-1.98,-2.86,0.67,0.68,0.71
68.01,2.87,2.18,2.92,2.23,-2.27,-1.75,-2.86,0.60,0.65,0.69
68.69,2.76,2.09,2.75,2.08,-2.07,-1.51,-2.86,0.69,0.68,0.67
69.37,2.57,1.92,2.54,1.89,-1.84,-1.25,-2.85,0.73,0.69,0.65
70.07,2.29,1.66,2.25,1.61,-1.61,-0.98,-2.84,0.68,0.64,0.63
70.77,1.83,1.21,1.86,1.24,-1.37,-0.70,-2.84,0.46,0.49,0.62
71.48,1.42,0.82,1.44,0.84,-1.12,-0.41,-2.83,0.30,0.32,0.61
72.19,1.02,0.44,1.02,0.44,-0.87,-0.12,-2.83,0.15,0.15,0.58
72.91,0.63,0.07,0.63,0.07,-0.59,0.17,-2.82,0.04,0.03,0.56
73.64,0.22,-0.31,0.22,-0.32,-0.29,0.44,-2.82,-0.07,-0.07,0.53
74.38,-0.22,-0.74,-0.23,-0.74,0.01,0.68,-2.81,-0.21,-0.22,0.52
75.12,-0.68,-1.17,-0.71,-1.20,0.28,0.86,-2.81,-0.41,-0.43,0.49
75.87,-1.19,-1.66,-1.18,-1.65,0.49,0.96,-2.81,-0.70,-0.69,0.46
76.63,-1.64,-2.09,-1.60,-2.04,0.65,0.98,-2.81,-0.99,-0.95,0.45
77.40,-1.98,-2.41,-1.97,-2.39,0.73,0.92,-2.81,-1.25,-1.23,0.43
78.17,-2.24,-2.65,-2.31,-2.73,0.74,0.77,-2.81,-1.50,-1.57,0.41
78.95,-2.63,-3.04,-2.65,-3.06,0.67,0.57,-2.82,-1.96,-1.98,0.41
79.74,-2.99,-3.39,-2.95,-3.35,0.53,0.33,-2.82,-2.46,-2.42,0.40
80.54,-3.15,-3.54,-3.15,-3.54,0.32,0.06,-2.83,-2.83,-2.83,0.39
81.35,-3.14,-3.53,-3.14,-3.53,0.06,-0.21,-2.84,-3.08,-3.08,0.39
82.16,-2.97,-3.36,-2.93,-3.32,-0.23,-0.48,-2.85,-3.20,-3.16,0.39
82.98,-2.54,-2.94,-2.55,-2.94,-0.53,-0.74,-2.86,-3.06,-3.08,0.40
83.81,-2.02,-2.42,-2.03,-2.43,-0.81,-1.00,-2.88,-2.82,-2.84,0.40
84.65,-1.42,-1.82,-1.42,-1.83,-1.06,-1.24,-2.90,-2.48,-2.48,0.40
85.50,-0.76,-1.18,-0.76,-1.17,-1.32,-1.48,-2.92,-2.08,-2.08,0.42
86.35,-0.05,-0.47,-0.03,-0.46,-1.58,-1.72,-2.94,-1.63,-1.61,0.43
87.22,0.69,0.24,0.70,0.26,-1.84,-1.95,-2.97,-1.15,-1.14,0.44
88.09,1.40,0.95,1.34,0.89,-2.10,-2.19,-2.99,-0.70,-0.76,0.45
88.97,1.92,1.46,1.88,1.42,-2.36,-2.44,-3.02,-0.44,-0.47,0.46
89.86,2.29,1.81,2.34,1.87,-2.62,-2.69,-3.05,-0.33,-0.28,0.48
90.76,2.75,2.28,2.76,2.28,-2.89,-2.96,-3.09,-0.14,-0.13,0.47
91.66,3.19,2.71,3.19,2.72,-3.15,-3.24,-3.13,0.04,0.04,0.48
92.58,3.64,3.16,3.64,3.16,-3.40,-3.53,-3.16,0.24,0.24,0.48
93.51,4.06,3.57,4.05,3.56,-3.65,-3.81,-3.20,0.41,0.40,0.49
94.44,4.40,3.91,4.39,3.91,-3.88,-4.09,-3.25,0.52,0.51,0.49
95.39,4.66,4.18,4.64,4.16,-4.11,-4.33,-3.29,0.55,0.54,0.48
96.34,4.82,4.34,4.81,4.33,-4.31,-4.52,-3.34,0.51,0.50,0.48
97.30,4.93,4.45,4.95,4.47,-4.50,-4.66,-3.39,0.44,0.45,0.48
98.28,5.06,4.59,5.10,4.64,-4.66,-4.74,-3.44,0.40,0.44,0.47
99.26,5.27,4.81,5.27,4.80,-4.81,-4.78,-3.49,0.46,0.45,0.46
100.25,5.46,5.01,5.39,4.94,-4.94,-4.80,-3.54,0.52,0.45,0.45
101.25,5.47,5.03,5.49,5.04,-5.04,-4.82,-3.59,0.43,0.45,0.44
102.27,5.50,5.07,5.56,5.13,-5.11,-4.84,-3.65,0.38,0.44,0.43
103.29,5.62,5.22,5.62,5.21,-5.18,-4.88,-3.70,0.44,0.44,0.40
104.32,5.70,5.32,5.65,5.26,-5.23,-4.94,-3.76,0.47,0.42,0.38
105.37,5.64,5.29,5.62,5.27,-5.25,-5.02,-3.81,0.39,0.37,0.35
106.42,5.51,5.19,5.55,5.23,-5.26,-5.11,-3.86,0.25,0.29,0.32
107.48,5.47,5.20,5.48,5.21,-5.26,-5.22,-3.92,0.21,0.23,0.27
108.56,5.47,5.24,5.48,5.25,-5.25,-5.33,-3.97,0.22,0.23,0.23
109.64,5.47,5.28,5.46,5.27,-5.25,-5.45,-4.01,0.22,0.21,0.19
110.74,5.46,5.32,5.40,5.26,-5.25,-5.56,-4.06,0.21,0.15,0.14
111.85,5.27,5.17,5.32,5.23,-5.26,-5.67,-4.10,0.01,0.07,0.10
112.97,5.24,5.21,5.26,5.22,-5.27,-5.76,-4.14,-0.03,-0.02,0.03
114.10,5.24,5.25,5.22,5.24,-5.29,-5.84,-4.17,-0.05,-0.07,-0.01
115.24,5.24,5.31,5.25,5.32,-5.31,-5.90,-4.20,-0.07,-0.06,-0.07
116.39,5.24,5.36,5.23,5.35,-5.31,-5.94,-4.23,-0.07,-0.08,-0.12
117.55,5.23,5.39,5.18,5.34,-5.30,-5.94,-4.25,-0.07,-0.12,-0.16
118.73,5.07,5.27,5.12,5.31,-5.28,-5.92,-4.26,-0.21,-0.16,-0.20
119.92,5.01,5.24,5.04,5.28,-5.25,-5.86,-4.27,-0.24,-0.21,-0.23
121.12,5.00,5.26,4.95,5.21,-5.20,-5.78,-4.27,-0.20,-0.26,-0.26
122.33,4.86,5.15,4.84,5.13,-5.14,-5.67,-4.26,-0.28,-0.30,-0.29
123.55,4.69,5.00,4.72,5.03,-5.06,-5.53,-4.24,-0.37,-0.35,-0.31
124.79,4.57,4.90,4.61,4.94,-4.98,-5.37,-4.22,-0.41,-0.37,-0.33
126.03,4.56,4.92,4.54,4.89,-4.89,-5.19,-4.19,-0.33,-0.35,-0.36
127.29,4.49,4.86,4.45,4.82,-4.80,-5.00,-4.16,-0.31,-0.36,-0.37
128.57,4.33,4.74,4.32,4.73,-4.71,-4.79,-4.11,-0.38,-0.39,-0.41
129.85,4.12,4.55,4.18,4.61,-4.61,-4.58,-4.06,-0.49,-0.43,-0.43
131.15,4.05,4.50,4.03,4.48,-4.50,-4.37,-4.00,-0.45,-0.47,-0.45
132.46,3.92,4.39,3.90,4.37,-4.38,-4.15,-3.93,-0.46,-0.48,-0.47
133.79,3.74,4.23,3.78,4.27,-4.24,-3.93,-3.86,-0.50,-0.46,-0.49
135.12,3.63,4.15,3.61,4.12,-4.08,-3.72,-3.78,-0.46,-0.48,-0.52
136.48,3.42,3.95,3.40,3.94,-3.92,-3.51,-3.69,-0.50,-0.52,-0.53
137.84,3.18,3.74,3.18,3.74,-3.75,-3.31,-3.60,-0.57,-0.57,-0.56
139.22,2.92,3.52,2.96,3.55,-3.57,-3.11,-3.51,-0.65,-0.61,-0.60
140.61,2.75,3.37,2.77,3.38,-3.38,-2.91,-3.41,-0.63,-0.62,-0.62
142.02,2.62,3.25,2.57,3.20,-3.19,-2.73,-3.31,-0.57,-0.63,-0.63
143.44,2.36,3.01,2.35,3.00,-3.01,-2.55,-3.20,-0.65,-0.66,-0.65
144.87,2.09,2.77,2.13,2.81,-2.84,-2.38,-3.09,-0.75,-0.71,-0.68
146.32,1.90,2.62,1.92,2.64,-2.68,-2.21,-2.97,-0.78,-0.76,-0.72
147.78,1.77,2.51,1.72,2.46,-2.50,-2.05,-2.86,-0.73,-0.78,-0.74
149.26,1.54,2.32,1.54,2.32,-2.31,-1.89,-2.74,-0.77,-0.78,-0.78
150.75,1.27,2.10,1.34,2.17,-2.11,-1.74,-2.62,-0.84,-0.77,-0.83
152.26,1.14,2.03,1.08,1.98,-1.89,-1.60,-2.50,-0.75,-0.80,-0.89
153.78,0.82,1.77,0.77,1.73,-1.65,-1.46,-2.38,-0.83,-0.88,-0.95
155.32,0.40,1.42,0.42,1.44,-1.40,-1.32,-2.26,-1.00,-0.97,-1.02
156.88,0.01,1.08,0.05,1.13,-1.13,-1.19,-2.14,-1.12,-1.08,-1.07
158.44,-0.26,0.87,-0.27,0.86,-0.89,-1.06,-2.01,-1.15,-1.15,-1.13
160.03,-0.52,0.67,-0.55,0.64,-0.68,-0.94,-1.89,-1.20,-1.22,-1.19
161.63,-0.78,0.45,-0.80,0.44,-0.52,-0.82,-1.77,-1.30,-1.32,-1.23
163.24,-1.03,0.25,-1.01,0.27,-0.41,-0.70,-1.65,-1.44,-1.42,-1.28
164.88,-1.14,0.17,-1.10,0.21,-0.35,-0.58,-1.52,-1.49,-1.46,-1.31
166.53,-1.10,0.24,-1.09,0.26,-0.32,-0.46,-1.40,-1.42,-1.41,-1.34
168.19,-0.98,0.39,-1.00,0.37,-0.31,-0.34,-1.28,-1.29,-1.30,-1.37
169.87,-0.91,0.48,-0.92,0.47,-0.31,-0.23,-1.16,-1.22,-1.23,-1.39
171.57,-0.91,0.49,-0.95,0.44,-0.30,-0.12,-1.04,-1.21,-1.25,-1.40
173.29,-1.05,0.34,-1.08,0.32,-0.28,-0.00,-0.91,-1.33,-1.36,-1.39
175.02,-1.28,0.11,-1.22,0.18,-0.23,0.11,-0.79,-1.51,-1.45,-1.39
176.77,-1.36,0.04,-1.32,0.07,-0.14,0.23,-0.67,-1.50,-1.46,-1.40
178.54,-1.37,0.02,-1.39,-0.00,-0.02,0.34,-0.55,-1.39,-1.41,-1.39
180.32,-1.44,-0.05,-1.49,-0.10,0.14,0.46,-0.44,-1.30,-1.35,-1.39
182.13,-1.64,-0.26,-1.65,-0.27,0.31,0.57,-0.32,-1.33,-1.34,-1.38
183.95,-1.91,-0.52,-1.85,-0.46,0.49,0.69,-0.20,-1.42,-1.36,-1.39
185.79,-2.04,-0.66,-2.05,-0.66,0.67,0.81,-0.08,-1.37,-1.38,-1.38
187.65,-2.22,-0.82,-2.26,-0.86,0.85,0.93,0.03,-1.37,-1.41,-1.40
189.52,-2.47,-1.05,-2.47,-1.06,1.04,1.05,0.15,-1.43,-1.43,-1.42
191.42,-2.73,-1.30,-2.71,-1.28,1.23,1.17,0.27,-1.50,-1.47,-1.43
193.33,-2.91,-1.47,-2.90,-1.47,1.42,1.29,0.38,-1.49,-1.49,-1.44
195.27,-3.07,-1.62,-3.05,-1.60,1.59,1.41,0.50,-1.48,-1.46,-1.45
197.22,-3.17,-1.71,-3.20,-1.73,1.76,1.54,0.61,-1.41,-1.44,-1.46
199.19,-3.33,-1.84,-3.36,-1.87,1.91,1.66,0.72,-1.42,-1.45,-1.49
201.18,-3.56,-2.05,-3.52,-2.02,2.05,1.78,0.83,-1.51,-1.47,-1.51
203.19,-3.69,-2.17,-3.69,-2.17,2.16,1.89,0.94,-1.53,-1.52,-1.52
205.23,-3.81,-2.27,-3.84,-2.31,2.26,2.01,1.05,-1.55,-1.57,-1.54
207.28,-3.96,-2.41,-3.95,-2.41,2.36,2.12,1.16,-1.60,-1.60,-1.55
209.35,-4.07,-2.51,-4.05,-2.48,2.44,2.22,1.27,-1.63,-1.61,-1.56
211.44,-4.10,-2.51,-4.08,-2.49,2.52,2.32,1.37,-1.58,-1.56,-1.59
213.56,-4.10,-2.50,-4.12,-2.52,2.58,2.41,1.47,-1.52,-1.54,-1.60
215.69,-4.10,-2.50,-4.17,-2.57,2.62,2.49,1.57,-1.48,-1.56,-1.60
217.85,-4.31,-2.69,-4.25,-2.63,2.64,2.56,1.67,-1.67,-1.60,-1.62
220.03,-4.33,-2.69,-4.31,-2.68,2.65,2.62,1.76,-1.68,-1.67,-1.64
222.23,-4.33,-2.68,-4.36,-2.72,2.64,2.67,1.85,-1.69,-1.73,-1.65
224.45,-4.33,-2.68,-4.33,-2.67,2.62,2.70,1.94,-1.71,-1.71,-1.65
226.70,-4.33,-2.67,-4.28,-2.62,2.60,2.72,2.02,-1.73,-1.67,-1.66
228.96,-4.17,-2.52,-4.21,-2.55,2.58,2.72,2.10,-1.59,-1.63,-1.65
231.25,-4.12,-2.47,-4.14,-2.48,2.54,2.72,2.17,-1.58,-1.59,-1.65
233.57,-4.10,-2.44,-4.09,-2.44,2.51,2.70,2.24,-1.59,-1.59,-1.66
235.90,-4.10,-2.44,-4.10,-2.44,2.46,2.67,2.30,-1.64,-1.63,-1.66
238.26,-4.10,-2.44,-4.11,-2.45,2.43,2.63,2.36,-1.67,-1.68,-1.66
240.64,-4.10,-2.45,-4.10,-2.45,2.40,2.58,2.42,-1.70,-1.70,-1.65
243.05,-4.10,-2.46,-4.04,-2.40,2.38,2.53,2.46,-1.72,-1.66,-1.64
245.48,-3.94,-2.32,-3.97,-2.35,2.35,2.47,2.50,-1.59,-1.63,-1.62
247.93,-3.87,-2.26,-3.91,-2.30,2.31,2.40,2.54,-1.56,-1.60,-1.61
250.41,-3.87,-2.27,-3.84,-2.24,2.26,2.33,2.57,-1.61,-1.58,-1.60
252.92,-3.83,-2.25,-3.80,-2.22,2.20,2.26,2.59,-1.63,-1.60,-1.58
255.45,-3.68,-2.13,-3.72,-2.16,2.14,2.19,2.61,-1.54,-1.58,-1.55
258.00,-3.65,-2.11,-3.61,-2.07,2.09,2.12,2.62,-1.56,-1.53,-1.54
260.58,-3.51,-1.98,-3.52,-2.00,2.03,2.04,2.62,-1.48,-1.50,-1.53
263.19,-3.43,-1.92,-3.47,-1.96,1.97,1.97,2.62,-1.46,-1.50,-1.51
265.82,-3.42,-1.93,-3.39,-1.90,1.90,1.90,2.62,-1.52,-1.49,-1.49
268.48,-3.36,-1.89,-3.34,-1.87,1.84,1.84,2.61,-1.52,-1.50,-1.47
271.16,-3.23,-1.78,-3.26,-1.81,1.78,1.77,2.59,-1.45,-1.48,-1.45
273.87,-3.19,-1.76,-3.16,-1.73,1.74,1.71,2.57,-1.45,-1.42,-1.43
276.61,-3.06,-1.66,-3.07,-1.66,1.71,1.65,2.55,-1.35,-1.36,-1.40
279.38,-2.98,-1.59,-3.00,-1.62,1.68,1.59,2.52,-1.30,-1.33,-1.39
282.17,-2.96,-1.60,-2.96,-1.61,1.64,1.54,2.49,-1.32,-1.32,-1.36
284.99,-2.96,-1.63,-2.96,-1.63,1.61,1.49,2.46,-1.35,-1.35,-1.33
287.84,-2.96,-1.66,-2.93,-1.62,1.57,1.44,2.42,-1.39,-1.36,-1.30
290.72,-2.89,-1.61,-2.89,-1.61,1.54,1.39,2.39,-1.35,-1.35,-1.28
293.63,-2.76,-1.50,-2.80,-1.54,1.51,1.35,2.35,-1.25,-1.29,-1.26
296.57,-2.74,-1.52,-2.68,-1.45,1.48,1.31,2.31,-1.26,-1.20,-1.22
299.53,-2.56,-1.36,-2.59,-1.38,1.44,1.28,2.27,-1.12,-1.15,-1.20
302.53,-2.51,-1.31,-2.53,-1.35,1.40,1.24,2.22,-1.11,-1.13,-1.20
305.55,-2.51,-1.35,-2.51,-1.34,1.35,1.21,2.18,-1.16,-1.15,-1.16
308.61,-2.51,-1.36,-2.51,-1.36,1.32,1.18,2.14,-1.19,-1.19,-1.15
311.69,-2.51,-1.39,-2.46,-1.34,1.29,1.16,2.09,-1.22,-1.17,-1.12
314.81,-2.37,-1.26,-2.39,-1.28,1.27,1.13,2.05,-1.10,-1.12,-1.11
317.96,-2.29,-1.19,-2.32,-1.22,1.25,1.11,2.01,-1.04,-1.07,-1.10
321.14,-2.28,-1.18,-2.27,-1.18,1.22,1.09,1.96,-1.06,-1.05,-1.10
324.35,-2.28,-1.18,-2.28,-1.19,1.19,1.07,1.92,-1.09,-1.09,-1.10
327.59,-2.28,-1.20,-2.29,-1.20,1.15,1.05,1.88,-1.13,-1.13,-1.08
330.87,-2.28,-1.21,-2.24,-1.16,1.12,1.04,1.84,-1.16,-1.12,-1.07
334.18,-2.18,-1.10,-2.17,-1.10,1.10,1.03,1.80,-1.08,-1.07,-1.08
337.52,-2.06,-1.00,-2.10,-1.04,1.08,1.01,1.76,-0.98,-1.02,-1.06
340.90,-2.05,-1.01,-2.05,-1.01,1.06,1.00,1.73,-0.99,-0.99,-1.04
344.30,-2.05,-1.03,-2.05,-1.03,1.04,0.99,1.69,-1.01,-1.01,-1.02
347.75,-2.05,-1.05,-2.05,-1.05,1.01,0.99,1.66,-1.04,-1.05,-1.00
351.23,-2.05,-1.07,-2.01,-1.03,0.98,0.98,1.63,-1.07,-1.03,-0.98
354.74,-1.95,-0.99,-1.95,-0.98,0.97,0.98,1.59,-0.98,-0.98,-0.96
358.28,-1.84,-0.91,-1.87,-0.94,0.96,0.97,1.56,-0.88,-0.92,-0.93
361.87,-1.82,-0.90,-1.82,-0.91,0.95,0.97,1.53,-0.87,-0.87,-0.92
365.49,-1.82,-0.93,-1.81,-0.92,0.95,0.97,1.51,-0.87,-0.86,-0.89
369.14,-1.82,-0.94,-1.82,-0.94,0.95,0.97,1.48,-0.87,-0.87,-0.88
372.83,-1.82,-0.96,-1.82,-0.96,0.95,0.97,1.46,-0.87,-0.87,-0.86
376.56,-1.82,-0.98,-1.82,-0.98,0.97,0.97,1.43,-0.85,-0.85,-0.84
380.33,-1.82,-1.01,-1.82,-1.01,0.99,0.97,1.41,-0.83,-0.83,-0.81
384.13,-1.82,-1.03,-1.82,-1.02,1.02,0.97,1.39,-0.80,-0.80,-0.79
387.97,-1.82,-1.03,-1.82,-1.03,1.04,0.98,1.37,-0.78,-0.78,-0.79
391.85,-1.82,-1.04,-1.82,-1.04,1.06,0.98,1.35,-0.76,-0.76,-0.78
395.77,-1.82,-1.06,-1.82,-1.05,1.06,0.99,1.33,-0.76,-0.76,-0.76
399.73,-1.82,-1.06,-1.83,-1.08,1.04,0.99,1.31,-0.78,-0.79,-0.76
403.72,-1.82,-1.07,-1.82,-1.08,1.03,1.00,1.30,-0.79,-0.79,-0.75
407.76,-1.82,-1.08,-1.77,-1.04,1.00,1.01,1.28,-0.81,-0.77,-0.74
411.84,-1.69,-0.96,-1.71,-0.98,0.98,1.01,1.27,-0.71,-0.73,-0.73
415.96,-1.61,-0.89,-1.64,-0.92,0.96,1.02,1.26,-0.65,-0.68,-0.72
420.12,-1.60,-0.89,-1.59,-0.88,0.93,1.03,1.25,-0.67,-0.66,-0.71
424.32,-1.60,-0.89,-1.59,-0.89,0.91,1.04,1.23,-0.69,-0.68,-0.71
428.56,-1.60,-0.90,-1.60,-0.90,0.90,1.05,1.22,-0.70,-0.70,-0.70
432.85,-1.60,-0.90,-1.60,-0.90,0.89,1.06,1.21,-0.71,-0.71,-0.70
437.18,-1.60,-0.91,-1.60,-0.91,0.90,1.07,1.20,-0.70,-0.70,-0.69
441.55,-1.60,-0.92,-1.60,-0.92,0.91,1.08,1.19,-0.69,-0.69,-0.68
445.96,-1.60,-0.93,-1.60,-0.93,0.92,1.09,1.19,-0.68,-0.68,-0.67
450.42,-1.60,-0.93,-1.60,-0.93,0.93,1.10,1.18,-0.67,-0.67,-0.67
454.93,-1.60,-0.95,-1.60,-0.94,0.94,1.11,1.17,-0.66,-0.66,-0.65
459.48,-1.60,-0.95,-1.60,-0.95,0.95,1.12,1.16,-0.65,-0.65,-0.65
464.07,-1.60,-0.97,-1.60,-0.97,0.96,1.14,1.15,-0.64,-0.64,-0.63
468.71,-1.60,-0.99,-1.60,-0.98,0.98,1.15,1.14,-0.62,-0.62,-0.61
473.40,-1.60,-0.99,-1.60,-0.99,0.99,1.16,1.14,-0.61,-0.61,-0.61
478.13,-1.60,-1.01,-1.60,-1.00,1.01,1.17,1.13,-0.59,-0.59,-0.59
482.91,-1.60,-1.02,-1.60,-1.02,1.03,1.18,1.12,-0.57,-0.57,-0.58
487.74,-1.60,-1.04,-1.60,-1.05,1.05,1.19,1.11,-0.55,-0.55,-0.56
