frequency,raw,error,smoothed,error_smoothed,equalization,parametric_eq,fixed_band_eq,equalized_raw,equalized_smoothed,target
20.00,5.35,-2.73,5.35,-2.72,2.72,1.36,-0.17,8.08,8.08,8.08
20.20,5.43,-2.61,5.43,-2.62,2.62,1.32,-0.18,8.06,8.05,8.05
20.40,5.50,-2.52,5.51,-2.52,2.52,1.27,-0.18,8.03,8.03,8.03
20.61,5.58,-2.43,5.59,-2.42,2.42,1.22,-0.18,8.00,8.01,8.01
20.81,5.66,-2.32,5.66,-2.33,2.32,1.18,-0.19,7.99,7.98,7.99
21.02,5.74,-2.22,5.74,-2.23,2.22,1.13,-0.19,7.97,7.96,7.97
21.23,5.81,-2.13,5.82,-2.13,2.13,1.08,-0.19,7.94,7.94,7.95
21.44,5.89,-2.03,5.90,-2.03,2.03,1.04,-0.19,7.93,7.93,7.93
21.66,5.97,-1.93,5.97,-1.93,1.94,0.99,-0.20,7.91,7.91,7.91
21.87,6.06,-1.84,6.05,-1.84,1.84,0.94,-0.20,7.90,7.89,7.89
22.09,6.12,-1.75,6.13,-1.75,1.75,0.90,-0.20,7.87,7.88,7.87
22.31,6.21,-1.66,6.21,-1.66,1.66,0.85,-0.21,7.86,7.86,7.86
22.54,6.28,-1.57,6.28,-1.57,1.57,0.80,-0.21,7.85,7.85,7.85
22.76,6.36,-1.48,6.36,-1.48,1.48,0.75,-0.21,7.84,7.84,7.84
22.99,6.44,-1.39,6.44,-1.39,1.39,0.70,-0.22,7.83,7.83,7.83
23.22,6.51,-1.31,6.52,-1.30,1.30,0.66,-0.22,7.82,7.82,7.82
23.45,6.59,-1.22,6.60,-1.22,1.22,0.61,-0.22,7.81,7.81,7.81
23.69,6.67,-1.13,6.67,-1.13,1.13,0.56,-0.23,7.80,7.80,7.80
23.92,6.75,-1.04,6.75,-1.04,1.05,0.51,-0.23,7.80,7.80,7.80
24.16,6.82,-0.96,6.83,-0.96,0.96,0.46,-0.24,7.79,7.79,7.79
24.40,6.91,-0.88,6.91,-0.88,0.88,0.41,-0.24,7.78,7.78,7.79
24.65,6.98,-0.79,6.98,-0.80,0.79,0.36,-0.25,7.78,7.78,7.78
24.89,7.07,-0.71,7.06,-0.71,0.71,0.31,-0.25,7.78,7.77,7.77
25.14,7.13,-0.63,7.14,-0.63,0.63,0.26,-0.26,7.76,7.77,7.76
25.39,7.22,-0.54,7.21,-0.55,0.55,0.21,-0.26,7.76,7.76,7.75
25.65,7.28,-0.47,7.28,-0.46,0.47,0.16,-0.27,7.75,7.75,7.75
25.91,7.35,-0.39,7.36,-0.39,0.39,0.11,-0.27,7.74,7.74,7.74
26.16,7.44,-0.30,7.43,-0.31,0.30,0.06,-0.28,7.74,7.73,7.74
26.43,7.50,-0.24,7.51,-0.23,0.22,0.01,-0.29,7.73,7.73,7.74
26.69,7.58,-0.14,7.58,-0.15,0.15,-0.04,-0.29,7.73,7.73,7.73
26.96,7.66,-0.06,7.66,-0.06,0.07,-0.10,-0.30,7.73,7.73,7.73
27.23,7.73,0.02,7.73,0.02,-0.01,-0.15,-0.31,7.72,7.72,7.72
27.50,7.80,0.09,7.80,0.09,-0.09,-0.20,-0.32,7.71,7.72,7.71
27.77,7.87,0.16,7.87,0.17,-0.17,-0.25,-0.33,7.71,7.71,7.71
28.05,7.94,0.24,7.94,0.24,-0.24,-0.30,-0.34,7.70,7.70,7.70
28.33,8.01,0.32,8.02,0.32,-0.32,-0.36,-0.35,7.70,7.70,7.70
28.62,8.08,0.39,8.09,0.39,-0.39,-0.41,-0.36,7.69,7.69,7.70
28.90,8.16,0.48,8.16,0.47,-0.47,-0.46,-0.38,7.70,7.69,7.69
29.19,8.22,0.54,8.23,0.54,-0.54,-0.52,-0.39,7.68,7.69,7.68
29.48,8.29,0.61,8.30,0.61,-0.61,-0.57,-0.41,7.68,7.68,7.68
29.78,8.36,0.68,8.36,0.68,-0.68,-0.62,-0.42,7.68,7.68,7.68
30.08,8.43,0.75,8.43,0.75,-0.75,-0.68,-0.44,7.68,7.67,7.68
30.38,8.49,0.83,8.49,0.82,-0.82,-0.73,-0.46,7.67,7.67,7.67
30.68,8.55,0.89,8.56,0.89,-0.89,-0.79,-0.48,7.66,7.66,7.67
30.99,8.62,0.96,8.62,0.96,-0.96,-0.84,-0.50,7.66,7.66,7.66
31.30,8.68,1.02,8.68,1.03,-1.02,-0.90,-0.52,7.66,7.66,7.66
31.61,8.74,1.10,8.74,1.09,-1.09,-0.95,-0.54,7.66,7.66,7.65
31.93,8.80,1.16,8.80,1.15,-1.15,-1.01,-0.57,7.65,7.65,7.65
32.24,8.85,1.21,8.85,1.21,-1.21,-1.06,-0.59,7.64,7.64,7.64
32.57,8.90,1.27,8.91,1.27,-1.27,-1.12,-0.62,7.63,7.63,7.63
32.89,8.95,1.33,8.96,1.33,-1.33,-1.18,-0.65,7.62,7.63,7.63
33.22,9.01,1.39,9.01,1.39,-1.39,-1.23,-0.68,7.62,7.62,7.63
33.55,9.06,1.45,9.06,1.45,-1.45,-1.29,-0.71,7.61,7.61,7.61
33.89,9.11,1.50,9.12,1.51,-1.51,-1.35,-0.74,7.60,7.61,7.61
34.23,9.17,1.57,9.17,1.57,-1.57,-1.40,-0.77,7.60,7.60,7.61
34.57,9.22,1.63,9.23,1.63,-1.63,-1.46,-0.81,7.59,7.60,7.59
34.92,9.28,1.69,9.28,1.69,-1.69,-1.52,-0.84,7.59,7.59,7.59
35.27,9.33,1.75,9.33,1.75,-1.75,-1.58,-0.88,7.59,7.59,7.59
35.62,9.38,1.81,9.39,1.81,-1.80,-1.63,-0.92,7.58,7.58,7.57
35.97,9.43,1.86,9.43,1.86,-1.86,-1.69,-0.96,7.58,7.57,7.57
36.33,9.47,1.91,9.48,1.91,-1.91,-1.75,-1.00,7.57,7.57,7.57
36.70,9.51,1.95,9.52,1.96,-1.96,-1.81,-1.04,7.56,7.56,7.56
37.06,9.56,2.01,9.56,2.01,-2.01,-1.87,-1.08,7.56,7.55,7.56
37.43,9.60,2.06,9.60,2.05,-2.06,-1.92,-1.13,7.55,7.55,7.54
37.81,9.64,2.10,9.64,2.10,-2.11,-1.98,-1.17,7.54,7.54,7.54
38.19,9.68,2.15,9.68,2.15,-2.16,-2.04,-1.22,7.53,7.53,7.54
38.57,9.72,2.20,9.73,2.20,-2.21,-2.10,-1.27,7.52,7.52,7.52
38.95,9.77,2.26,9.77,2.26,-2.26,-2.15,-1.32,7.51,7.51,7.52
39.34,9.81,2.31,9.82,2.31,-2.31,-2.21,-1.37,7.50,7.50,7.50
39.74,9.86,2.37,9.86,2.37,-2.37,-2.27,-1.42,7.50,7.50,7.50
40.14,9.90,2.42,9.90,2.42,-2.42,-2.32,-1.47,7.49,7.49,7.48
40.54,9.94,2.47,9.95,2.47,-2.47,-2.38,-1.53,7.48,7.48,7.47
40.94,9.98,2.51,9.98,2.52,-2.51,-2.43,-1.58,7.47,7.47,7.47
41.35,10.02,2.56,10.02,2.56,-2.56,-2.49,-1.64,7.47,7.46,7.46
41.76,10.05,2.60,10.06,2.60,-2.60,-2.54,-1.70,7.46,7.46,7.46
42.18,10.08,2.63,10.09,2.64,-2.64,-2.59,-1.76,7.45,7.45,7.45
42.60,10.12,2.68,10.12,2.67,-2.67,-2.64,-1.82,7.45,7.45,7.44
43.03,10.15,2.71,10.15,2.71,-2.71,-2.69,-1.89,7.44,7.44,7.45
43.46,10.18,2.74,10.18,2.75,-2.75,-2.74,-1.95,7.43,7.43,7.44
43.90,10.21,2.78,10.22,2.78,-2.79,-2.79,-2.02,7.42,7.43,7.43
44.33,10.25,2.83,10.25,2.83,-2.83,-2.84,-2.08,7.42,7.42,7.42
44.78,10.29,2.88,10.29,2.88,-2.87,-2.88,-2.15,7.42,7.42,7.42
45.23,10.33,2.93,10.33,2.92,-2.92,-2.92,-2.22,7.41,7.41,7.41
45.68,10.36,2.96,10.36,2.97,-2.96,-2.97,-2.29,7.40,7.40,7.40
46.13,10.39,3.00,10.40,3.01,-3.01,-3.01,-2.37,7.38,7.39,7.39
46.60,10.43,3.05,10.43,3.05,-3.05,-3.05,-2.44,7.38,7.38,7.38
47.06,10.46,3.09,10.47,3.10,-3.10,-3.09,-2.52,7.37,7.37,7.37
47.53,10.50,3.15,10.50,3.15,-3.14,-3.13,-2.60,7.36,7.36,7.35
48.01,10.53,3.19,10.53,3.19,-3.19,-3.17,-2.67,7.35,7.34,7.34
48.49,10.55,3.22,10.56,3.23,-3.23,-3.20,-2.75,7.33,7.33,7.33
48.97,10.58,3.26,10.58,3.27,-3.27,-3.24,-2.84,7.31,7.31,7.32
49.46,10.61,3.31,10.61,3.30,-3.31,-3.27,-2.92,7.30,7.30,7.31
49.96,10.64,3.35,10.65,3.35,-3.35,-3.31,-3.00,7.30,7.30,7.30
50.46,10.67,3.39,10.67,3.39,-3.38,-3.35,-3.08,7.29,7.29,7.28
50.96,10.70,3.43,10.70,3.42,-3.42,-3.38,-3.17,7.29,7.28,7.27
51.47,10.71,3.45,10.72,3.45,-3.45,-3.41,-3.25,7.26,7.27,7.27
51.99,10.73,3.48,10.73,3.48,-3.48,-3.45,-3.34,7.25,7.25,7.25
52.51,10.75,3.51,10.75,3.51,-3.51,-3.48,-3.42,7.24,7.24,7.24
53.03,10.76,3.54,10.77,3.54,-3.54,-3.52,-3.51,7.22,7.23,7.23
53.56,10.78,3.57,10.78,3.57,-3.57,-3.55,-3.59,7.22,7.22,7.21
54.10,10.79,3.59,10.80,3.59,-3.59,-3.58,-3.67,7.20,7.20,7.21
54.64,10.81,3.62,10.81,3.62,-3.62,-3.62,-3.76,7.19,7.19,7.19
55.18,10.82,3.65,10.82,3.65,-3.65,-3.65,-3.84,7.17,7.17,7.17
55.74,10.83,3.68,10.84,3.68,-3.68,-3.69,-3.92,7.15,7.16,7.16
56.29,10.85,3.70,10.85,3.71,-3.71,-3.72,-3.99,7.14,7.14,7.15
56.86,10.87,3.74,10.87,3.74,-3.74,-3.76,-4.07,7.13,7.13,7.13
57.42,10.89,3.78,10.89,3.78,-3.78,-3.79,-4.14,7.12,7.12,7.11
58.00,10.91,3.81,10.91,3.82,-3.81,-3.83,-4.21,7.10,7.10,7.10
58.58,10.93,3.85,10.93,3.85,-3.85,-3.86,-4.28,7.08,7.08,7.08
59.16,10.95,3.89,10.95,3.89,-3.89,-3.90,-4.34,7.07,7.07,7.06
59.76,10.97,3.92,10.97,3.93,-3.92,-3.94,-4.40,7.05,7.05,7.05
60.35,10.99,3.96,10.99,3.96,-3.96,-3.97,-4.45,7.03,7.03,7.03
60.96,11.01,4.01,11.01,4.00,-4.00,-4.01,-4.50,7.01,7.01,7.01
61.57,11.02,4.04,11.03,4.04,-4.04,-4.05,-4.55,6.98,6.98,6.98
62.18,11.04,4.08,11.04,4.08,-4.08,-4.09,-4.59,6.96,6.96,6.96
62.80,11.05,4.12,11.06,4.12,-4.13,-4.12,-4.63,6.93,6.93,6.94
63.43,11.08,4.17,11.08,4.17,-4.17,-4.16,-4.66,6.91,6.91,6.91
64.07,11.10,4.22,11.10,4.22,-4.22,-4.20,-4.69,6.89,6.88,6.88
64.71,11.12,4.27,11.13,4.27,-4.26,-4.24,-4.72,6.86,6.86,6.86
65.35,11.14,4.31,11.14,4.31,-4.31,-4.28,-4.74,6.83,6.83,6.83
66.01,11.16,4.36,11.16,4.36,-4.36,-4.32,-4.76,6.81,6.80,6.80
66.67,11.17,4.40,11.18,4.40,-4.40,-4.36,-4.77,6.77,6.77,6.77
67.33,11.19,4.45,11.19,4.45,-4.45,-4.40,-4.78,6.75,6.74,6.74
68.01,11.20,4.49,11.20,4.49,-4.49,-4.44,-4.79,6.71,6.71,6.71
68.69,11.21,4.53,11.21,4.53,-4.53,-4.48,-4.80,6.68,6.68,6.68
69.37,11.21,4.56,11.22,4.57,-4.57,-4.52,-4.80,6.65,6.65,6.65
70.07,11.22,4.61,11.22,4.60,-4.60,-4.56,-4.81,6.62,6.62,6.62
70.77,11.22,4.64,11.22,4.64,-4.63,-4.60,-4.81,6.59,6.59,6.58
71.48,11.22,4.66,11.22,4.67,-4.66,-4.64,-4.81,6.56,6.56,6.56
72.19,11.21,4.69,11.21,4.69,-4.69,-4.68,-4.81,6.52,6.52,6.52
72.91,11.20,4.72,11.20,4.71,-4.72,-4.72,-4.81,6.49,6.49,6.49
73.64,11.19,4.74,11.20,4.74,-4.75,-4.76,-4.81,6.45,6.45,6.45
74.38,11.19,4.77,11.19,4.77,-4.78,-4.80,-4.82,6.42,6.42,6.42
75.12,11.19,4.81,11.19,4.81,-4.81,-4.84,-4.82,6.39,6.38,6.38
75.87,11.19,4.84,11.19,4.84,-4.84,-4.88,-4.82,6.35,6.35,6.36
76.63,11.19,4.88,11.19,4.88,-4.88,-4.92,-4.83,6.32,6.32,6.32
77.40,11.19,4.92,11.19,4.92,-4.91,-4.96,-4.84,6.28,6.28,6.27
78.17,11.19,4.95,11.19,4.96,-4.95,-5.00,-4.85,6.24,6.24,6.24
78.95,11.19,4.99,11.19,4.99,-4.99,-5.04,-4.86,6.20,6.20,6.20
79.74,11.19,5.04,11.19,5.03,-5.03,-5.08,-4.88,6.16,6.16,6.16
80.54,11.19,5.07,11.19,5.07,-5.08,-5.12,-4.89,6.12,6.12,6.12
81.35,11.19,5.12,11.19,5.12,-5.12,-5.16,-4.91,6.08,6.08,6.08
82.16,11.19,5.16,11.19,5.16,-5.16,-5.20,-4.94,6.03,6.03,6.03
82.98,11.19,5.21,11.19,5.21,-5.21,-5.25,-4.97,5.99,5.99,5.99
83.81,11.19,5.26,11.19,5.25,-5.25,-5.29,-5.00,5.94,5.94,5.94
84.65,11.19,5.29,11.19,5.30,-5.30,-5.33,-5.03,5.90,5.90,5.90
85.50,11.19,5.34,11.19,5.34,-5.34,-5.37,-5.07,5.85,5.85,5.85
86.35,11.19,5.39,11.19,5.39,-5.39,-5.41,-5.11,5.80,5.80,5.80
87.22,11.19,5.44,11.19,5.44,-5.44,-5.45,-5.16,5.75,5.75,5.75
88.09,11.19,5.49,11.19,5.49,-5.49,-5.50,-5.21,5.70,5.70,5.70
88.97,11.19,5.54,11.19,5.54,-5.54,-5.54,-5.27,5.65,5.65,5.65
89.86,11.19,5.59,11.19,5.59,-5.59,-5.59,-5.32,5.60,5.60,5.60
90.76,11.19,5.65,11.19,5.65,-5.65,-5.63,-5.38,5.55,5.55,5.55
91.66,11.19,5.70,11.19,5.70,-5.70,-5.68,-5.45,5.49,5.49,5.50
92.58,11.19,5.75,11.19,5.75,-5.75,-5.73,-5.52,5.44,5.44,5.44
93.51,11.19,5.81,11.19,5.81,-5.80,-5.78,-5.59,5.39,5.39,5.39
94.44,11.19,5.86,11.19,5.86,-5.86,-5.83,-5.67,5.34,5.34,5.33
95.39,11.19,5.91,11.19,5.91,-5.91,-5.88,-5.75,5.28,5.28,5.28
96.34,11.19,5.97,11.19,5.96,-5.96,-5.93,-5.84,5.23,5.23,5.23
97.30,11.19,6.01,11.19,6.02,-6.02,-5.98,-5.92,5.18,5.18,5.18
98.28,11.19,6.07,11.19,6.07,-6.07,-6.04,-6.01,5.12,5.12,5.13
99.26,11.19,6.12,11.19,6.12,-6.13,-6.09,-6.11,5.07,5.07,5.07
100.25,11.19,6.18,11.19,6.18,-6.18,-6.15,-6.20,5.01,5.01,5.01
101.25,11.19,6.24,11.19,6.24,-6.23,-6.21,-6.30,4.96,4.96,4.96
102.27,11.19,6.29,11.19,6.29,-6.29,-6.26,-6.40,4.90,4.90,4.90
103.29,11.19,6.35,11.19,6.35,-6.34,-6.32,-6.51,4.85,4.85,4.85
104.32,11.19,6.39,11.19,6.40,-6.40,-6.38,-6.61,4.80,4.80,4.80
105.37,11.19,6.45,11.19,6.45,-6.45,-6.44,-6.71,4.74,4.74,4.74
106.42,11.19,6.51,11.19,6.50,-6.51,-6.49,-6.82,4.69,4.69,4.69
107.48,11.19,6.55,11.19,6.56,-6.56,-6.55,-6.92,4.64,4.64,4.64
108.56,11.19,6.61,11.19,6.61,-6.61,-6.61,-7.03,4.58,4.58,4.58
109.64,11.19,6.67,11.19,6.67,-6.66,-6.66,-7.13,4.53,4.53,4.53
110.74,11.19,6.72,11.19,6.72,-6.72,-6.72,-7.23,4.47,4.47,4.47
111.85,11.19,6.78,11.19,6.77,-6.77,-6.77,-7.33,4.42,4.42,4.42
112.97,11.19,6.82,11.19,6.83,-6.83,-6.83,-7.42,4.36,4.36,4.37
114.10,11.19,6.88,11.20,6.88,-6.89,-6.88,-7.51,4.31,4.31,4.32
115.24,11.20,6.94,11.20,6.94,-6.94,-6.93,-7.59,4.26,4.26,4.26
116.39,11.20,7.00,11.21,7.00,-7.00,-6.98,-7.68,4.20,4.21,4.21
117.55,11.21,7.05,11.21,7.06,-7.06,-7.03,-7.75,4.16,4.16,4.16
118.73,11.22,7.12,11.22,7.11,-7.11,-7.08,-7.82,4.11,4.11,4.11
119.92,11.21,7.16,11.22,7.16,-7.16,-7.13,-7.87,4.06,4.06,4.06
121.12,11.21,7.21,11.21,7.21,-7.20,-7.17,-7.92,4.02,4.02,4.00
122.33,11.20,7.24,11.20,7.25,-7.23,-7.21,-7.96,3.97,3.97,3.96
123.55,11.18,7.28,11.18,7.27,-7.26,-7.26,-8.00,3.92,3.92,3.91
124.79,11.15,7.29,11.15,7.29,-7.29,-7.30,-8.02,3.87,3.86,3.87
126.03,11.11,7.30,11.12,7.30,-7.31,-7.34,-8.04,3.81,3.82,3.82
127.29,11.09,7.32,11.09,7.32,-7.32,-7.38,-8.04,3.77,3.77,3.78
128.57,11.06,7.34,11.06,7.33,-7.33,-7.41,-8.04,3.73,3.72,3.73
129.85,11.02,7.35,11.03,7.35,-7.34,-7.45,-8.03,3.68,3.68,3.68
131.15,10.98,7.35,10.99,7.36,-7.35,-7.48,-8.01,3.63,3.64,3.63
132.46,10.96,7.37,10.96,7.37,-7.37,-7.51,-7.98,3.60,3.59,3.59
133.79,10.93,7.39,10.93,7.38,-7.38,-7.54,-7.95,3.55,3.54,3.55
135.12,10.89,7.39,10.90,7.40,-7.41,-7.57,-7.91,3.49,3.50,3.50
136.48,10.88,7.43,10.88,7.42,-7.43,-7.60,-7.87,3.45,3.45,3.46
137.84,10.86,7.45,10.86,7.45,-7.47,-7.63,-7.81,3.40,3.40,3.41
139.22,10.85,7.49,10.86,7.49,-7.50,-7.65,-7.76,3.35,3.36,3.37
140.61,10.86,7.54,10.86,7.53,-7.54,-7.68,-7.70,3.32,3.32,3.32
142.02,10.87,7.58,10.87,7.59,-7.58,-7.70,-7.64,3.29,3.29,3.29
143.44,10.88,7.63,10.89,7.63,-7.62,-7.72,-7.58,3.26,3.26,3.25
144.87,10.89,7.68,10.89,7.67,-7.66,-7.74,-7.51,3.23,3.23,3.21
146.32,10.88,7.70,10.88,7.71,-7.69,-7.75,-7.45,3.19,3.19,3.18
147.78,10.86,7.72,10.87,7.73,-7.72,-7.77,-7.39,3.14,3.15,3.14
149.26,10.85,7.75,10.85,7.74,-7.74,-7.78,-7.32,3.12,3.11,3.10
150.75,10.82,7.75,10.82,7.75,-7.75,-7.80,-7.26,3.08,3.08,3.08
152.26,10.79,7.75,10.80,7.75,-7.75,-7.81,-7.20,3.04,3.04,3.04
153.78,10.76,7.76,10.76,7.75,-7.75,-7.82,-7.14,3.01,3.01,3.01
155.32,10.72,7.74,10.73,7.75,-7.75,-7.83,-7.09,2.97,2.98,2.98
156.88,10.68,7.74,10.69,7.74,-7.75,-7.84,-7.03,2.94,2.94,2.95
158.44,10.66,7.75,10.66,7.74,-7.75,-7.84,-6.98,2.92,2.91,2.91
160.03,10.62,7.74,10.63,7.75,-7.75,-7.85,-6.94,2.88,2.88,2.88
161.63,10.60,7.75,10.60,7.75,-7.75,-7.85,-6.90,2.85,2.85,2.85
163.24,10.58,7.75,10.58,7.75,-7.76,-7.85,-6.86,2.82,2.82,2.83
164.88,10.55,7.75,10.56,7.77,-7.77,-7.85,-6.83,2.78,2.79,2.80
166.53,10.55,7.78,10.55,7.78,-7.79,-7.85,-6.80,2.76,2.76,2.77
168.19,10.55,7.81,10.55,7.80,-7.81,-7.85,-6.77,2.75,2.74,2.74
169.87,10.54,7.82,10.55,7.83,-7.82,-7.85,-6.75,2.72,2.73,2.72
171.57,10.54,7.85,10.54,7.85,-7.84,-7.84,-6.74,2.71,2.71,2.70
173.29,10.53,7.86,10.53,7.86,-7.85,-7.84,-6.73,2.69,2.68,2.67
175.02,10.51,7.87,10.51,7.86,-7.86,-7.83,-6.73,2.66,2.66,2.65
176.77,10.48,7.85,10.49,7.86,-7.86,-7.82,-6.72,2.63,2.63,2.63
178.54,10.46,7.86,10.46,7.86,-7.85,-7.82,-6.73,2.61,2.61,2.61
180.32,10.43,7.85,10.43,7.85,-7.85,-7.81,-6.74,2.59,2.59,2.58
182.13,10.40,7.84,10.40,7.84,-7.84,-7.79,-6.76,2.57,2.56,2.56
183.95,10.35,7.81,10.36,7.82,-7.83,-7.78,-6.78,2.53,2.53,2.54
185.79,10.32,7.81,10.33,7.81,-7.82,-7.77,-6.80,2.50,2.51,2.52
187.65,10.30,7.81,10.30,7.81,-7.81,-7.75,-6.83,2.49,2.49,2.50
189.52,10.28,7.81,10.29,7.81,-7.81,-7.74,-6.87,2.47,2.48,2.48
191.42,10.27,7.82,10.27,7.81,-7.81,-7.72,-6.91,2.47,2.46,2.46
193.33,10.24,7.80,10.25,7.81,-7.80,-7.71,-6.95,2.44,2.44,2.44
195.27,10.22,7.80,10.23,7.81,-7.80,-7.69,-7.00,2.42,2.42,2.42
197.22,10.20,7.80,10.20,7.80,-7.80,-7.67,-7.05,2.41,2.41,2.40
199.19,10.18,7.80,10.18,7.80,-7.79,-7.65,-7.11,2.39,2.39,2.39
201.18,10.16,7.78,10.16,7.78,-7.78,-7.63,-7.17,2.38,2.38,2.38
203.19,10.13,7.77,10.13,7.77,-7.77,-7.60,-7.23,2.36,2.36,2.36
205.23,10.10,7.75,10.11,7.75,-7.76,-7.58,-7.30,2.35,2.35,2.36
207.28,10.07,7.73,10.08,7.73,-7.74,-7.56,-7.36,2.34,2.34,2.34
209.35,10.05,7.73,10.05,7.72,-7.72,-7.53,-7.43,2.33,2.33,2.33
211.44,10.02,7.70,10.02,7.70,-7.70,-7.51,-7.50,2.33,2.33,2.32
213.56,9.99,7.68,9.99,7.68,-7.67,-7.48,-7.57,2.32,2.32,2.31
215.69,9.95,7.66,9.95,7.65,-7.65,-7.45,-7.64,2.30,2.30,2.30
217.85,9.90,7.62,9.91,7.62,-7.63,-7.43,-7.71,2.28,2.29,2.28
220.03,9.87,7.59,9.87,7.59,-7.60,-7.40,-7.78,2.27,2.27,2.28
222.23,9.84,7.57,9.84,7.57,-7.58,-7.37,-7.84,2.26,2.26,2.27
224.45,9.80,7.55,9.81,7.55,-7.56,-7.34,-7.91,2.25,2.25,2.26
226.70,9.77,7.53,9.78,7.53,-7.53,-7.31,-7.97,2.24,2.24,2.25
228.96,9.75,7.51,9.75,7.51,-7.51,-7.28,-8.02,2.24,2.24,2.25
231.25,9.73,7.50,9.73,7.49,-7.48,-7.24,-8.07,2.25,2.25,2.24
233.57,9.70,7.48,9.70,7.47,-7.46,-7.21,-8.12,2.25,2.24,2.23
235.90,9.65,7.43,9.66,7.44,-7.42,-7.18,-8.15,2.23,2.24,2.23
238.26,9.61,7.40,9.61,7.39,-7.39,-7.15,-8.18,2.23,2.22,2.22
240.64,9.56,7.35,9.57,7.35,-7.35,-7.11,-8.20,2.21,2.22,2.22
243.05,9.52,7.30,9.52,7.30,-7.31,-7.08,-8.21,2.21,2.21,2.22
245.48,9.48,7.26,9.48,7.26,-7.28,-7.04,-8.22,2.21,2.20,2.22
247.93,9.43,7.22,9.44,7.23,-7.24,-7.00,-8.21,2.20,2.21,2.21
250.41,9.41,7.20,9.41,7.20,-7.20,-6.97,-8.19,2.21,2.21,2.22
252.92,9.38,7.17,9.39,7.17,-7.16,-6.93,-8.17,2.22,2.22,2.22
255.45,9.36,7.14,9.36,7.14,-7.13,-6.89,-8.13,2.24,2.23,2.22
258.00,9.32,7.11,9.32,7.10,-7.09,-6.85,-8.09,2.23,2.23,2.21
260.58,9.27,7.06,9.27,7.06,-7.06,-6.81,-8.03,2.22,2.21,2.22
263.19,9.22,7.01,9.23,7.02,-7.02,-6.77,-7.97,2.20,2.20,2.21
265.82,9.17,6.97,9.18,6.98,-6.99,-6.73,-7.90,2.19,2.20,2.20
268.48,9.15,6.95,9.15,6.94,-6.95,-6.69,-7.82,2.20,2.20,2.21
271.16,9.11,6.91,9.11,6.91,-6.91,-6.65,-7.73,2.20,2.20,2.20
273.87,9.07,6.88,9.08,6.88,-6.87,-6.61,-7.64,2.20,2.21,2.20
276.61,9.04,6.84,9.04,6.84,-6.83,-6.57,-7.54,2.21,2.20,2.20
279.38,8.99,6.80,9.00,6.80,-6.80,-6.53,-7.44,2.20,2.20,2.19
282.17,8.95,6.75,8.96,6.76,-6.75,-6.49,-7.34,2.20,2.20,2.20
284.99,8.91,6.72,8.91,6.71,-6.71,-6.44,-7.23,2.20,2.19,2.19
287.84,8.85,6.66,8.86,6.67,-6.67,-6.40,-7.12,2.18,2.19,2.19
290.72,8.80,6.62,8.80,6.62,-6.63,-6.36,-7.00,2.18,2.18,2.19
293.63,8.75,6.57,8.76,6.57,-6.58,-6.31,-6.89,2.17,2.17,2.18
296.57,8.71,6.54,8.72,6.54,-6.54,-6.27,-6.78,2.18,2.18,2.18
299.53,8.67,6.49,8.67,6.50,-6.49,-6.22,-6.66,2.19,2.19,2.18
302.53,8.63,6.45,8.63,6.45,-6.44,-6.18,-6.55,2.20,2.19,2.18
305.55,8.57,6.40,8.57,6.39,-6.39,-6.13,-6.44,2.19,2.19,2.18
308.61,8.51,6.33,8.51,6.33,-6.33,-6.09,-6.33,2.18,2.18,2.18
311.69,8.44,6.27,8.45,6.27,-6.28,-6.04,-6.22,2.17,2.17,2.18
314.81,8.39,6.21,8.40,6.21,-6.22,-6.00,-6.11,2.17,2.18,2.18
317.96,8.34,6.16,8.34,6.15,-6.16,-5.95,-6.01,2.19,2.18,2.18
321.14,8.28,6.10,8.28,6.10,-6.09,-5.90,-5.91,2.19,2.19,2.19
324.35,8.21,6.03,8.22,6.03,-6.03,-5.85,-5.81,2.19,2.19,2.19
327.59,8.15,5.97,8.16,5.97,-5.96,-5.81,-5.72,2.19,2.19,2.18
330.87,8.09,5.90,8.09,5.90,-5.90,-5.76,-5.63,2.20,2.19,2.19
334.18,8.02,5.83,8.02,5.83,-5.83,-5.71,-5.54,2.19,2.19,2.20
337.52,7.94,5.75,7.95,5.76,-5.77,-5.66,-5.46,2.18,2.19,2.19
340.90,7.89,5.69,7.89,5.69,-5.70,-5.61,-5.38,2.19,2.19,2.20
344.30,7.83,5.63,7.83,5.64,-5.63,-5.56,-5.30,2.20,2.20,2.20
347.75,7.78,5.59,7.78,5.58,-5.57,-5.51,-5.23,2.22,2.21,2.20
351.23,7.70,5.51,7.71,5.51,-5.50,-5.46,-5.16,2.20,2.20,2.19
354.74,7.63,5.43,7.63,5.44,-5.44,-5.41,-5.10,2.20,2.20,2.20
358.28,7.55,5.35,7.56,5.36,-5.37,-5.36,-5.04,2.19,2.19,2.20
361.87,7.49,5.30,7.49,5.29,-5.29,-5.31,-4.99,2.20,2.19,2.20
365.49,7.41,5.22,7.42,5.22,-5.22,-5.26,-4.93,2.19,2.20,2.20
369.14,7.34,5.15,7.34,5.15,-5.14,-5.21,-4.88,2.20,2.20,2.19
372.83,7.27,5.08,7.26,5.06,-5.06,-5.16,-4.84,2.21,2.20,2.19
376.56,7.16,4.96,7.18,4.98,-4.98,-5.11,-4.80,2.18,2.19,2.20
380.33,7.08,4.88,7.09,4.89,-4.90,-5.06,-4.76,2.19,2.19,2.20
384.13,7.01,4.82,7.01,4.81,-4.81,-5.00,-4.73,2.21,2.20,2.20
387.97,6.92,4.73,6.92,4.73,-4.72,-4.95,-4.70,2.21,2.21,2.20
391.85,6.83,4.63,6.83,4.63,-4.62,-4.90,-4.67,2.21,2.21,2.20
395.77,6.73,4.53,6.74,4.53,-4.53,-4.85,-4.64,2.21,2.21,2.20
399.73,6.64,4.43,6.64,4.43,-4.43,-4.79,-4.62,2.21,2.21,2.21
403.72,6.54,4.33,6.54,4.33,-4.33,-4.74,-4.60,2.21,2.21,2.21
407.76,6.45,4.24,6.45,4.24,-4.24,-4.69,-4.58,2.21,2.21,2.22
411.84,6.36,4.15,6.37,4.15,-4.15,-4.63,-4.56,2.21,2.22,2.22
415.96,6.29,4.07,6.29,4.07,-4.07,-4.58,-4.55,2.22,2.22,2.23
420.12,6.22,4.00,6.22,3.99,-4.00,-4.52,-4.53,2.23,2.22,2.23
424.32,6.15,3.93,6.16,3.93,-3.94,-4.47,-4.52,2.22,2.22,2.22
428.56,6.10,3.87,6.10,3.87,-3.88,-4.41,-4.51,2.22,2.22,2.23
432.85,6.06,3.83,6.06,3.83,-3.84,-4.36,-4.49,2.22,2.22,2.23
437.18,6.03,3.80,6.04,3.81,-3.81,-4.30,-4.48,2.23,2.23,2.23
441.55,6.02,3.79,6.02,3.79,-3.79,-4.24,-4.47,2.24,2.23,2.23
445.96,6.00,3.77,6.00,3.78,-3.77,-4.19,-4.45,2.23,2.23,2.23
450.42,5.99,3.77,5.99,3.76,-3.76,-4.13,-4.43,2.23,2.23,2.23
454.93,5.98,3.76,5.99,3.76,-3.76,-4.07,-4.42,2.22,2.22,2.23
459.48,5.98,3.76,5.99,3.76,-3.76,-4.01,-4.40,2.22,2.22,2.23
464.07,5.99,3.77,5.99,3.77,-3.77,-3.96,-4.37,2.23,2.23,2.23
468.71,6.00,3.78,6.00,3.78,-3.77,-3.90,-4.35,2.23,2.23,2.22
473.40,6.01,3.79,6.01,3.78,-3.78,-3.84,-4.32,2.24,2.24,2.22
478.13,6.01,3.78,6.01,3.78,-3.78,-3.78,-4.28,2.23,2.23,2.23
482.91,6.01,3.78,6.01,3.78,-3.79,-3.72,-4.25,2.23,2.23,2.23
487.74,6.01,3.78,6.02,3.78,-3.79,-3.66,-4.20,2.22,2.23,2.23
492.62,6.02,3.79,6.02,3.79,-3.80,-3.60,-4.16,2.23,2.23,2.23
497.55,6.03,3.79,6.03,3.79,-3.80,-3.54,-4.11,2.24,2.23,2.24
502.52,6.03,3.79,6.04,3.80,-3.80,-3.48,-4.05,2.24,2.24,2.24
507.55,6.03,3.79,6.04,3.79,-3.79,-3.42,-3.99,2.24,2.24,2.24
512.62,6.03,3.80,6.03,3.79,-3.79,-3.36,-3.93,2.25,2.24,2.24
517.75,6.01,3.77,6.02,3.77,-3.77,-3.29,-3.85,2.24,2.25,2.25
