frequency,raw,error,smoothed,error_smoothed,equalization,parametric_eq,fixed_band_eq,equalized_raw,equalized_smoothed,target
20.00,10.33,7.08,10.33,7.07,-7.06,-7.50,-3.59,3.27,3.27,3.25
20.20,10.35,7.11,10.35,7.11,-7.11,-7.51,-3.69,3.24,3.24,3.24
20.40,10.37,7.15,10.37,7.14,-7.15,-7.51,-3.79,3.22,3.22,3.22
20.61,10.39,7.18,10.39,7.18,-7.19,-7.52,-3.90,3.20,3.20,3.21
20.81,10.41,7.22,10.41,7.21,-7.22,-7.52,-4.00,3.19,3.19,3.19
21.02,10.43,7.25,10.43,7.24,-7.26,-7.52,-4.11,3.17,3.17,3.18
21.23,10.45,7.28,10.45,7.28,-7.29,-7.53,-4.23,3.16,3.16,3.17
21.44,10.47,7.31,10.47,7.31,-7.31,-7.53,-4.34,3.16,3.16,3.16
21.66,10.50,7.36,10.50,7.35,-7.34,-7.54,-4.46,3.16,3.16,3.14
21.87,10.52,7.38,10.52,7.38,-7.36,-7.54,-4.59,3.16,3.16,3.14
22.09,10.53,7.40,10.52,7.39,-7.37,-7.55,-4.71,3.15,3.15,3.13
22.31,10.52,7.40,10.52,7.40,-7.39,-7.55,-4.84,3.13,3.13,3.12
22.54,10.51,7.40,10.51,7.40,-7.40,-7.56,-4.97,3.11,3.11,3.11
22.76,10.51,7.41,10.50,7.40,-7.42,-7.56,-5.11,3.09,3.09,3.10
22.99,10.50,7.40,10.51,7.41,-7.43,-7.57,-5.25,3.07,3.08,3.10
23.22,10.53,7.44,10.53,7.43,-7.45,-7.57,-5.39,3.08,3.08,3.09
23.45,10.56,7.47,10.56,7.46,-7.46,-7.58,-5.54,3.10,3.09,3.09
23.69,10.59,7.50,10.59,7.50,-7.48,-7.59,-5.69,3.11,3.11,3.09
23.92,10.62,7.53,10.61,7.52,-7.50,-7.59,-5.84,3.12,3.11,3.09
24.16,10.63,7.54,10.63,7.54,-7.52,-7.60,-6.00,3.11,3.11,3.09
24.40,10.64,7.55,10.64,7.55,-7.54,-7.60,-6.16,3.10,3.10,3.09
24.65,10.65,7.56,10.65,7.55,-7.57,-7.61,-6.32,3.08,3.08,3.09
24.89,10.66,7.57,10.66,7.57,-7.59,-7.61,-6.48,3.07,3.07,3.09
25.14,10.68,7.59,10.69,7.60,-7.62,-7.62,-6.65,3.06,3.07,3.09
25.39,10.73,7.64,10.73,7.64,-7.65,-7.63,-6.82,3.08,3.08,3.09
25.65,10.77,7.69,10.77,7.68,-7.68,-7.63,-6.99,3.09,3.09,3.08
25.91,10.81,7.73,10.81,7.72,-7.70,-7.64,-7.16,3.11,3.10,3.08
26.16,10.83,7.76,10.82,7.75,-7.73,-7.64,-7.33,3.10,3.10,3.07
26.43,10.83,7.76,10.83,7.76,-7.75,-7.65,-7.50,3.08,3.08,3.07
26.69,10.83,7.77,10.83,7.77,-7.76,-7.66,-7.68,3.07,3.07,3.06
26.96,10.83,7.78,10.83,7.77,-7.77,-7.66,-7.85,3.06,3.06,3.05
27.23,10.83,7.78,10.82,7.77,-7.78,-7.67,-8.01,3.05,3.05,3.05
27.50,10.82,7.78,10.82,7.78,-7.79,-7.68,-8.18,3.03,3.03,3.04
27.77,10.81,7.78,10.82,7.78,-7.80,-7.68,-8.34,3.01,3.01,3.03
28.05,10.82,7.80,10.82,7.80,-7.82,-7.69,-8.50,3.00,3.01,3.02
28.33,10.85,7.83,10.85,7.83,-7.84,-7.70,-8.64,3.01,3.01,3.02
28.62,10.88,7.86,10.88,7.86,-7.85,-7.71,-8.79,3.03,3.03,3.02
28.90,10.92,7.91,10.91,7.89,-7.87,-7.71,-8.92,3.05,3.04,3.01
29.19,10.93,7.91,10.93,7.91,-7.89,-7.72,-9.05,3.04,3.04,3.02
29.48,10.93,7.91,10.93,7.91,-7.90,-7.73,-9.16,3.03,3.03,3.02
29.78,10.93,7.91,10.93,7.91,-7.91,-7.73,-9.27,3.02,3.02,3.02
30.08,10.93,7.91,10.93,7.91,-7.91,-7.74,-9.36,3.02,3.02,3.02
30.38,10.93,7.91,10.93,7.91,-7.91,-7.75,-9.45,3.02,3.02,3.02
30.68,10.93,7.91,10.93,7.91,-7.90,-7.76,-9.51,3.03,3.03,3.02
30.99,10.93,7.91,10.93,7.91,-7.90,-7.77,-9.57,3.03,3.03,3.02
31.30,10.93,7.91,10.93,7.90,-7.91,-7.77,-9.60,3.02,3.02,3.02
31.61,10.93,7.91,10.93,7.90,-7.92,-7.78,-9.63,3.01,3.01,3.02
31.93,10.93,7.91,10.94,7.92,-7.93,-7.79,-9.64,3.00,3.00,3.02
32.24,10.95,7.94,10.96,7.94,-7.95,-7.80,-9.64,3.00,3.01,3.01
32.57,10.99,7.98,10.99,7.97,-7.97,-7.81,-9.62,3.02,3.02,3.01
32.89,11.02,8.01,11.01,8.00,-7.98,-7.81,-9.60,3.04,3.03,3.01
33.22,11.03,8.02,11.03,8.02,-8.00,-7.82,-9.55,3.03,3.03,3.01
33.55,11.03,8.02,11.03,8.02,-8.01,-7.83,-9.51,3.02,3.02,3.01
33.89,11.03,8.03,11.03,8.02,-8.02,-7.84,-9.45,3.01,3.01,3.00
34.23,11.03,8.03,11.03,8.03,-8.03,-7.85,-9.38,3.00,3.00,3.00
34.57,11.03,8.03,11.03,8.03,-8.03,-7.86,-9.31,3.00,3.00,3.00
34.92,11.03,8.03,11.03,8.02,-8.03,-7.87,-9.23,3.00,3.00,3.00
35.27,11.03,8.03,11.03,8.03,-8.03,-7.87,-9.14,3.00,3.00,3.00
35.62,11.03,8.03,11.03,8.03,-8.03,-7.88,-9.05,3.00,3.00,3.00
35.97,11.03,8.04,11.03,8.03,-8.03,-7.89,-8.96,3.00,3.00,2.99
36.33,11.03,8.04,11.03,8.03,-8.03,-7.90,-8.87,3.00,2.99,2.99
36.70,11.03,8.04,11.03,8.04,-8.04,-7.91,-8.78,2.99,2.99,2.99
37.06,11.03,8.04,11.04,8.04,-8.06,-7.92,-8.68,2.97,2.98,2.99
37.43,11.05,8.07,11.05,8.06,-8.07,-7.93,-8.59,2.98,2.97,2.98
37.81,11.07,8.09,11.07,8.09,-8.09,-7.94,-8.50,2.98,2.97,2.98
38.19,11.09,8.12,11.09,8.12,-8.11,-7.95,-8.41,2.98,2.98,2.97
38.57,11.11,8.15,11.11,8.15,-8.14,-7.96,-8.32,2.97,2.97,2.96
38.95,11.13,8.18,11.12,8.17,-8.16,-7.97,-8.24,2.97,2.97,2.95
39.34,11.13,8.18,11.13,8.18,-8.17,-7.97,-8.16,2.96,2.96,2.95
39.74,11.13,8.19,11.13,8.19,-8.19,-7.98,-8.08,2.94,2.94,2.94
40.14,11.13,8.20,11.13,8.20,-8.20,-7.99,-8.01,2.93,2.93,2.93
40.54,11.13,8.21,11.13,8.20,-8.20,-8.00,-7.94,2.93,2.93,2.92
40.94,11.13,8.21,11.13,8.21,-8.21,-8.01,-7.88,2.92,2.92,2.92
41.35,11.13,8.21,11.13,8.21,-8.21,-8.02,-7.82,2.92,2.92,2.92
41.76,11.13,8.21,11.13,8.21,-8.21,-8.03,-7.77,2.92,2.92,2.92
42.18,11.13,8.21,11.13,8.21,-8.21,-8.04,-7.72,2.92,2.92,2.92
42.60,11.13,8.21,11.13,8.21,-8.21,-8.05,-7.68,2.92,2.92,2.92
43.03,11.13,8.21,11.13,8.21,-8.20,-8.06,-7.64,2.93,2.93,2.92
43.46,11.13,8.21,11.13,8.20,-8.20,-8.07,-7.61,2.93,2.93,2.92
43.90,11.13,8.20,11.13,8.20,-8.20,-8.08,-7.59,2.93,2.93,2.93
44.33,11.13,8.20,11.13,8.20,-8.20,-8.09,-7.57,2.93,2.93,2.93
44.78,11.13,8.20,11.13,8.19,-8.20,-8.09,-7.55,2.93,2.93,2.93
45.23,11.13,8.20,11.13,8.20,-8.20,-8.10,-7.54,2.93,2.93,2.93
45.68,11.13,8.20,11.13,8.20,-8.19,-8.11,-7.54,2.93,2.93,2.93
46.13,11.13,8.20,11.13,8.20,-8.19,-8.12,-7.54,2.93,2.93,2.93
46.60,11.13,8.20,11.13,8.19,-8.20,-8.13,-7.55,2.93,2.93,2.93
47.06,11.13,8.20,11.13,8.20,-8.20,-8.14,-7.56,2.93,2.93,2.93
47.53,11.13,8.20,11.13,8.20,-8.20,-8.15,-7.58,2.93,2.93,2.93
48.01,11.13,8.21,11.13,8.20,-8.21,-8.16,-7.60,2.92,2.92,2.92
48.49,11.13,8.21,11.13,8.21,-8.21,-8.16,-7.63,2.92,2.92,2.92
48.97,11.13,8.22,11.13,8.21,-8.21,-8.17,-7.66,2.92,2.92,2.91
49.46,11.13,8.22,11.13,8.22,-8.21,-8.18,-7.70,2.92,2.92,2.91
49.96,11.13,8.22,11.13,8.22,-8.21,-8.19,-7.74,2.92,2.92,2.91
50.46,11.13,8.22,11.13,8.21,-8.21,-8.20,-7.78,2.92,2.92,2.91
50.96,11.13,8.21,11.13,8.21,-8.21,-8.20,-7.83,2.92,2.92,2.92
51.47,11.13,8.21,11.13,8.21,-8.21,-8.21,-7.88,2.92,2.92,2.92
51.99,11.13,8.21,11.13,8.21,-8.21,-8.22,-7.94,2.92,2.92,2.92
52.51,11.13,8.22,11.13,8.21,-8.21,-8.22,-7.99,2.92,2.92,2.91
53.03,11.13,8.22,11.13,8.22,-8.21,-8.23,-8.05,2.92,2.92,2.91
53.56,11.13,8.22,11.13,8.22,-8.21,-8.24,-8.11,2.92,2.92,2.91
54.10,11.13,8.22,11.13,8.22,-8.21,-8.24,-8.16,2.91,2.91,2.91
54.64,11.13,8.22,11.13,8.22,-8.22,-8.25,-8.22,2.91,2.91,2.91
55.18,11.13,8.22,11.13,8.22,-8.22,-8.25,-8.28,2.91,2.91,2.91
55.74,11.13,8.22,11.13,8.22,-8.22,-8.26,-8.34,2.91,2.91,2.91
56.29,11.13,8.22,11.13,8.22,-8.22,-8.26,-8.39,2.91,2.91,2.91
56.86,11.13,8.22,11.13,8.22,-8.22,-8.27,-8.44,2.91,2.91,2.91
57.42,11.13,8.22,11.13,8.22,-8.21,-8.27,-8.49,2.92,2.92,2.91
58.00,11.13,8.22,11.13,8.22,-8.20,-8.27,-8.53,2.93,2.93,2.91
58.58,11.13,8.22,11.12,8.21,-8.19,-8.28,-8.57,2.94,2.93,2.91
59.16,11.11,8.20,11.10,8.18,-8.17,-8.28,-8.61,2.94,2.92,2.91
59.76,11.05,8.14,11.06,8.15,-8.15,-8.28,-8.63,2.90,2.91,2.91
60.35,11.03,8.12,11.04,8.12,-8.14,-8.28,-8.66,2.89,2.90,2.91
60.96,11.03,8.11,11.02,8.10,-8.13,-8.28,-8.67,2.90,2.90,2.92
61.57,11.03,8.11,11.03,8.10,-8.11,-8.29,-8.68,2.91,2.91,2.92
62.18,11.03,8.11,11.03,8.11,-8.11,-8.29,-8.67,2.92,2.92,2.92
62.80,11.03,8.12,11.03,8.11,-8.11,-8.29,-8.67,2.92,2.92,2.91
63.43,11.03,8.12,11.03,8.12,-8.12,-8.29,-8.65,2.91,2.91,2.91
64.07,11.03,8.13,11.03,8.12,-8.13,-8.28,-8.62,2.90,2.90,2.90
64.71,11.03,8.13,11.03,8.13,-8.13,-8.28,-8.59,2.90,2.90,2.90
65.35,11.03,8.14,11.03,8.14,-8.13,-8.28,-8.55,2.90,2.91,2.89
66.01,11.03,8.14,11.03,8.14,-8.12,-8.28,-8.51,2.91,2.91,2.89
66.67,11.03,8.15,11.02,8.13,-8.11,-8.27,-8.46,2.92,2.90,2.88
67.33,11.00,8.12,10.99,8.10,-8.10,-8.27,-8.40,2.90,2.88,2.88
68.01,10.93,8.06,10.95,8.08,-8.09,-8.27,-8.34,2.84,2.86,2.87
68.69,10.93,8.06,10.93,8.06,-8.08,-8.26,-8.27,2.85,2.85,2.87
69.37,10.93,8.07,10.92,8.06,-8.08,-8.26,-8.20,2.85,2.84,2.86
70.07,10.93,8.07,10.93,8.07,-8.08,-8.25,-8.13,2.85,2.85,2.86
70.77,10.93,8.08,10.93,8.07,-8.07,-8.24,-8.05,2.85,2.85,2.85
71.48,10.93,8.08,10.93,8.08,-8.07,-8.23,-7.98,2.86,2.86,2.85
72.19,10.93,8.09,10.93,8.09,-8.07,-8.23,-7.90,2.86,2.86,2.84
72.91,10.93,8.09,10.93,8.09,-8.06,-8.22,-7.82,2.87,2.87,2.84
73.64,10.93,8.09,10.92,8.07,-8.05,-8.21,-7.74,2.87,2.86,2.84
74.38,10.90,8.06,10.89,8.04,-8.04,-8.20,-7.67,2.86,2.84,2.84
75.12,10.84,8.00,10.85,8.01,-8.03,-8.19,-7.59,2.81,2.83,2.84
75.87,10.82,7.99,10.83,7.99,-8.02,-8.18,-7.52,2.80,2.81,2.83
76.63,10.83,8.00,10.82,7.99,-8.01,-8.16,-7.45,2.82,2.81,2.83
77.40,10.83,8.00,10.83,7.99,-8.00,-8.15,-7.38,2.83,2.82,2.83
78.17,10.83,8.00,10.83,8.00,-8.00,-8.14,-7.31,2.83,2.83,2.83
78.95,10.83,8.00,10.83,8.00,-8.00,-8.12,-7.25,2.83,2.83,2.83
79.74,10.83,8.00,10.83,8.00,-7.99,-8.11,-7.19,2.84,2.84,2.83
80.54,10.83,8.00,10.83,8.00,-7.97,-8.09,-7.14,2.86,2.86,2.83
81.35,10.82,7.99,10.82,7.98,-7.95,-8.08,-7.09,2.87,2.87,2.83
82.16,10.79,7.96,10.78,7.95,-7.93,-8.06,-7.04,2.86,2.85,2.83
82.98,10.73,7.91,10.72,7.89,-7.91,-8.04,-7.00,2.82,2.82,2.82
83.81,10.65,7.83,10.67,7.85,-7.88,-8.03,-6.96,2.77,2.79,2.82
84.65,10.63,7.81,10.63,7.81,-7.85,-8.01,-6.93,2.78,2.78,2.82
85.50,10.63,7.82,10.62,7.81,-7.82,-7.99,-6.91,2.81,2.80,2.81
86.35,10.63,7.82,10.64,7.83,-7.79,-7.97,-6.88,2.83,2.84,2.81
87.22,10.63,7.83,10.61,7.81,-7.78,-7.95,-6.87,2.85,2.84,2.80
88.09,10.61,7.81,10.58,7.78,-7.77,-7.93,-6.85,2.84,2.81,2.80
88.97,10.49,7.70,10.54,7.75,-7.77,-7.91,-6.85,2.72,2.77,2.79
89.86,10.52,7.74,10.52,7.73,-7.77,-7.89,-6.84,2.75,2.75,2.78
90.76,10.53,7.75,10.52,7.74,-7.76,-7.86,-6.85,2.77,2.75,2.78
91.66,10.54,7.77,10.54,7.77,-7.75,-7.84,-6.86,2.79,2.79,2.77
92.58,10.54,7.78,10.55,7.78,-7.74,-7.82,-6.87,2.80,2.80,2.76
93.51,10.54,7.79,10.53,7.78,-7.74,-7.79,-6.89,2.80,2.79,2.75
94.44,10.51,7.77,10.49,7.74,-7.74,-7.77,-6.91,2.77,2.75,2.74
95.39,10.43,7.70,10.45,7.71,-7.74,-7.75,-6.94,2.69,2.71,2.73
96.34,10.39,7.67,10.42,7.69,-7.73,-7.72,-6.97,2.66,2.68,2.72
97.30,10.42,7.72,10.41,7.70,-7.72,-7.70,-7.00,2.70,2.69,2.70
98.28,10.42,7.73,10.41,7.72,-7.70,-7.67,-7.04,2.72,2.71,2.69
99.26,10.40,7.73,10.40,7.73,-7.69,-7.65,-7.09,2.71,2.72,2.67
100.25,10.37,7.72,10.35,7.69,-7.68,-7.62,-7.14,2.69,2.67,2.65
101.25,10.29,7.66,10.29,7.65,-7.66,-7.60,-7.18,2.63,2.62,2.63
102.27,10.19,7.58,10.24,7.62,-7.64,-7.57,-7.24,2.55,2.59,2.61
103.29,10.21,7.62,10.19,7.60,-7.61,-7.55,-7.29,2.60,2.58,2.59
104.32,10.18,7.61,10.16,7.59,-7.57,-7.52,-7.35,2.60,2.58,2.57
105.37,10.10,7.56,10.13,7.58,-7.54,-7.49,-7.41,2.56,2.59,2.54
106.42,10.07,7.55,10.05,7.52,-7.51,-7.47,-7.47,2.56,2.54,2.52
107.48,9.99,7.49,9.97,7.47,-7.49,-7.44,-7.53,2.50,2.48,2.50
108.56,9.87,7.39,9.91,7.43,-7.47,-7.42,-7.59,2.40,2.44,2.48
109.64,9.87,7.41,9.87,7.41,-7.44,-7.39,-7.65,2.43,2.43,2.46
110.74,9.88,7.43,9.86,7.41,-7.42,-7.36,-7.70,2.46,2.45,2.45
111.85,9.87,7.44,9.88,7.44,-7.40,-7.34,-7.76,2.47,2.48,2.43
112.97,9.86,7.44,9.85,7.43,-7.39,-7.31,-7.81,2.47,2.46,2.42
114.10,9.84,7.43,9.80,7.39,-7.39,-7.29,-7.86,2.45,2.41,2.41
115.24,9.71,7.31,9.76,7.35,-7.39,-7.26,-7.91,2.32,2.36,2.40
116.39,9.72,7.33,9.72,7.32,-7.39,-7.24,-7.95,2.33,2.34,2.39
117.55,9.74,7.35,9.74,7.35,-7.37,-7.21,-7.98,2.37,2.37,2.39
118.73,9.76,7.38,9.79,7.40,-7.35,-7.18,-8.01,2.41,2.43,2.38
119.92,9.84,7.46,9.78,7.40,-7.33,-7.16,-8.02,2.51,2.45,2.38
121.12,9.74,7.37,9.72,7.34,-7.31,-7.13,-8.04,2.43,2.41,2.37
122.33,9.60,7.23,9.65,7.27,-7.27,-7.11,-8.04,2.33,2.37,2.37
123.55,9.56,7.18,9.59,7.22,-7.24,-7.08,-8.04,2.32,2.35,2.38
124.79,9.59,7.21,9.57,7.19,-7.21,-7.06,-8.03,2.38,2.36,2.38
126.03,9.60,7.23,9.54,7.16,-7.17,-7.04,-8.01,2.43,2.37,2.37
127.29,9.47,7.09,9.50,7.12,-7.14,-7.01,-7.98,2.33,2.36,2.38
128.57,9.41,7.03,9.47,7.09,-7.11,-6.99,-7.94,2.30,2.35,2.38
129.85,9.49,7.11,9.47,7.08,-7.10,-6.96,-7.89,2.39,2.36,2.38
131.15,9.52,7.14,9.49,7.11,-7.09,-6.94,-7.85,2.43,2.40,2.38
132.46,9.48,7.10,9.49,7.11,-7.07,-6.92,-7.78,2.41,2.42,2.38
133.79,9.44,7.07,9.44,7.06,-7.04,-6.89,-7.72,2.40,2.40,2.37
135.12,9.39,7.02,9.40,7.02,-7.01,-6.87,-7.64,2.38,2.39,2.37
136.48,9.35,6.98,9.37,7.00,-6.97,-6.85,-7.57,2.37,2.39,2.37
137.84,9.34,6.98,9.31,6.94,-6.95,-6.83,-7.48,2.39,2.37,2.36
139.22,9.27,6.91,9.24,6.88,-6.92,-6.80,-7.39,2.35,2.32,2.36
140.61,9.15,6.80,9.19,6.84,-6.90,-6.78,-7.30,2.25,2.29,2.35
142.02,9.14,6.80,9.18,6.83,-6.88,-6.76,-7.21,2.26,2.30,2.34
143.44,9.22,6.89,9.19,6.86,-6.86,-6.74,-7.11,2.36,2.33,2.33
144.87,9.25,6.92,9.21,6.88,-6.84,-6.71,-7.01,2.41,2.38,2.33
146.32,9.18,6.86,9.19,6.87,-6.81,-6.69,-6.92,2.37,2.38,2.32
147.78,9.12,6.82,9.14,6.83,-6.77,-6.67,-6.82,2.34,2.37,2.30
149.26,9.07,6.78,9.07,6.78,-6.75,-6.65,-6.72,2.32,2.32,2.29
150.75,9.04,6.76,8.98,6.70,-6.72,-6.63,-6.62,2.31,2.26,2.28
152.26,8.88,6.61,8.90,6.62,-6.70,-6.60,-6.52,2.18,2.20,2.27
153.78,8.80,6.53,8.86,6.59,-6.68,-6.58,-6.43,2.12,2.18,2.27
155.32,8.89,6.63,8.87,6.61,-6.66,-6.56,-6.34,2.23,2.21,2.26
156.88,8.95,6.70,8.92,6.66,-6.63,-6.54,-6.25,2.32,2.29,2.25
158.44,8.95,6.70,8.95,6.70,-6.61,-6.51,-6.16,2.34,2.34,2.25
160.03,8.92,6.68,8.92,6.67,-6.59,-6.49,-6.07,2.33,2.32,2.24
161.63,8.85,6.62,8.86,6.63,-6.58,-6.47,-5.99,2.27,2.28,2.23
163.24,8.78,6.56,8.75,6.53,-6.57,-6.44,-5.91,2.21,2.18,2.22
164.88,8.68,6.47,8.64,6.43,-6.54,-6.42,-5.84,2.14,2.10,2.21
166.53,8.50,6.30,8.62,6.42,-6.49,-6.40,-5.77,2.01,2.14,2.20
168.19,8.62,6.43,8.65,6.46,-6.43,-6.37,-5.70,2.19,2.23,2.19
169.87,8.79,6.61,8.64,6.46,-6.36,-6.35,-5.64,2.43,2.28,2.18
171.57,8.60,6.43,8.56,6.39,-6.30,-6.32,-5.58,2.30,2.26,2.17
173.29,8.34,6.18,8.46,6.29,-6.26,-6.30,-5.52,2.08,2.20,2.16
175.02,8.27,6.12,8.32,6.16,-6.23,-6.27,-5.47,2.04,2.09,2.15
176.77,8.39,6.24,8.24,6.09,-6.20,-6.24,-5.43,2.19,2.04,2.15
178.54,8.16,6.02,8.21,6.07,-6.17,-6.22,-5.39,1.99,2.05,2.14
180.32,8.16,6.02,8.24,6.10,-6.12,-6.19,-5.34,2.04,2.12,2.14
182.13,8.27,6.13,8.29,6.14,-6.08,-6.16,-5.31,2.19,2.21,2.14
183.95,8.44,6.30,8.31,6.17,-6.05,-6.13,-5.28,2.39,2.26,2.14
185.79,8.29,6.16,8.27,6.13,-6.03,-6.10,-5.25,2.26,2.23,2.13
187.65,8.02,5.88,8.17,6.03,-6.02,-6.07,-5.23,2.00,2.14,2.14
189.52,8.11,5.97,8.02,5.88,-6.00,-6.04,-5.21,2.11,2.02,2.14
191.42,8.00,5.86,7.98,5.83,-5.96,-6.01,-5.19,2.04,2.02,2.14
193.33,7.91,5.77,8.06,5.91,-5.90,-5.98,-5.18,2.01,2.16,2.14
195.27,8.13,5.98,8.08,5.93,-5.85,-5.94,-5.17,2.28,2.23,2.15
197.22,8.22,6.07,8.05,5.89,-5.81,-5.91,-5.17,2.40,2.23,2.15
199.19,7.90,5.75,7.96,5.81,-5.78,-5.87,-5.16,2.12,2.19,2.15
201.18,7.72,5.57,7.84,5.69,-5.74,-5.84,-5.16,1.98,2.10,2.15
203.19,7.82,5.67,7.77,5.62,-5.70,-5.80,-5.16,2.12,2.07,2.15
205.23,7.85,5.70,7.80,5.65,-5.65,-5.77,-5.17,2.20,2.15,2.15
207.28,7.78,5.63,7.82,5.67,-5.59,-5.73,-5.17,2.19,2.23,2.15
209.35,7.74,5.60,7.73,5.58,-5.55,-5.69,-5.18,2.19,2.18,2.14
211.44,7.68,5.54,7.58,5.44,-5.50,-5.65,-5.19,2.17,2.08,2.14
213.56,7.44,5.30,7.57,5.43,-5.46,-5.61,-5.20,1.98,2.11,2.14
215.69,7.46,5.33,7.57,5.44,-5.43,-5.57,-5.21,2.03,2.14,2.13
217.85,7.80,5.67,7.53,5.40,-5.39,-5.53,-5.21,2.41,2.14,2.13
220.03,7.46,5.34,7.50,5.38,-5.35,-5.49,-5.22,2.11,2.16,2.12
222.23,7.28,5.16,7.42,5.30,-5.29,-5.44,-5.23,1.99,2.13,2.12
224.45,7.37,5.25,7.31,5.19,-5.24,-5.40,-5.24,2.13,2.07,2.12
226.70,7.35,5.23,7.33,5.20,-5.18,-5.35,-5.24,2.17,2.15,2.12
228.96,7.31,5.19,7.33,5.20,-5.11,-5.31,-5.25,2.20,2.22,2.12
231.25,7.24,5.11,7.21,5.08,-5.05,-5.26,-5.25,2.19,2.16,2.13
233.57,7.15,5.02,7.08,4.95,-5.00,-5.21,-5.24,2.15,2.09,2.13
235.90,6.89,4.75,7.00,4.86,-4.95,-5.17,-5.24,1.94,2.06,2.14
238.26,6.96,4.82,6.99,4.84,-4.91,-5.12,-5.23,2.05,2.08,2.14
240.64,7.10,4.94,7.03,4.87,-4.88,-5.07,-5.21,2.22,2.15,2.16
243.05,7.10,4.93,7.09,4.92,-4.84,-5.02,-5.19,2.26,2.25,2.17
245.48,7.04,4.86,7.01,4.82,-4.81,-4.97,-5.17,2.23,2.20,2.18
247.93,6.96,4.77,6.97,4.78,-4.77,-4.92,-5.14,2.19,2.20,2.19
250.41,6.81,4.61,6.98,4.78,-4.74,-4.86,-5.11,2.07,2.25,2.20
252.92,7.12,4.91,6.94,4.73,-4.70,-4.81,-5.07,2.42,2.24,2.21
255.45,6.94,4.72,6.86,4.64,-4.65,-4.76,-5.03,2.29,2.21,2.22
258.00,6.64,4.42,6.78,4.56,-4.59,-4.70,-4.98,2.05,2.20,2.22
260.58,6.63,4.41,6.68,4.45,-4.53,-4.65,-4.93,2.10,2.14,2.22
263.19,6.75,4.53,6.67,4.45,-4.48,-4.59,-4.87,2.27,2.19,2.22
265.82,6.72,4.51,6.72,4.51,-4.43,-4.54,-4.81,2.29,2.29,2.21
268.48,6.65,4.44,6.64,4.43,-4.38,-4.48,-4.75,2.27,2.25,2.21
271.16,6.59,4.39,6.50,4.30,-4.34,-4.42,-4.68,2.25,2.17,2.20
273.87,6.30,4.11,6.49,4.29,-4.30,-4.36,-4.61,2.00,2.19,2.19
276.61,6.46,4.27,6.45,4.26,-4.26,-4.31,-4.53,2.20,2.19,2.19
279.38,6.63,4.44,6.38,4.19,-4.22,-4.25,-4.46,2.41,2.16,2.19
282.17,6.22,4.04,6.38,4.19,-4.17,-4.19,-4.37,2.05,2.21,2.18
284.99,6.20,4.02,6.30,4.12,-4.13,-4.13,-4.29,2.07,2.17,2.18
287.84,6.37,4.19,6.23,4.05,-4.09,-4.07,-4.21,2.28,2.13,2.18
290.72,6.23,4.06,6.23,4.06,-4.04,-4.01,-4.13,2.19,2.20,2.17
293.63,6.12,3.95,6.17,4.00,-3.96,-3.94,-4.04,2.16,2.22,2.17
296.57,6.09,3.92,6.09,3.91,-3.87,-3.88,-3.95,2.22,2.21,2.17
299.53,6.05,3.87,6.06,3.88,-3.79,-3.82,-3.87,2.26,2.26,2.18
302.53,5.98,3.80,5.94,3.76,-3.72,-3.76,-3.78,2.26,2.22,2.18
305.55,5.85,3.68,5.76,3.58,-3.66,-3.70,-3.70,2.18,2.09,2.17
308.61,5.52,3.35,5.65,3.47,-3.62,-3.63,-3.61,1.90,2.03,2.17
311.69,5.53,3.36,5.63,3.46,-3.56,-3.57,-3.53,1.97,2.06,2.17
314.81,5.79,3.63,5.67,3.50,-3.52,-3.51,-3.44,2.27,2.15,2.16
317.96,5.78,3.62,5.74,3.58,-3.48,-3.44,-3.36,2.30,2.26,2.16
321.14,5.68,3.52,5.72,3.56,-3.44,-3.38,-3.28,2.24,2.28,2.16
324.35,5.61,3.46,5.64,3.49,-3.40,-3.31,-3.20,2.21,2.24,2.15
327.59,5.55,3.41,5.50,3.36,-3.36,-3.25,-3.13,2.19,2.15,2.14
330.87,5.46,3.32,5.39,3.24,-3.30,-3.18,-3.05,2.16,2.09,2.14
334.18,5.15,3.01,5.33,3.19,-3.22,-3.12,-2.98,1.93,2.11,2.14
337.52,5.30,3.16,5.25,3.10,-3.14,-3.05,-2.91,2.16,2.11,2.14
340.90,5.31,3.18,5.15,3.02,-3.06,-2.99,-2.84,2.25,2.10,2.13
344.30,5.00,2.87,5.13,2.99,-2.99,-2.92,-2.77,2.01,2.14,2.13
347.75,4.99,2.86,5.07,2.94,-2.93,-2.86,-2.70,2.06,2.14,2.13
351.23,5.12,3.00,5.00,2.88,-2.88,-2.79,-2.64,2.24,2.12,2.12
354.74,5.03,2.91,4.94,2.82,-2.81,-2.73,-2.58,2.22,2.14,2.12
358.28,4.76,2.64,4.93,2.81,-2.73,-2.66,-2.52,2.03,2.19,2.12
361.87,4.78,2.66,4.83,2.70,-2.67,-2.59,-2.46,2.11,2.16,2.12
365.49,4.98,2.86,4.71,2.59,-2.61,-2.53,-2.40,2.37,2.11,2.12
369.14,4.50,2.38,4.64,2.51,-2.55,-2.46,-2.35,1.95,2.09,2.12
372.83,4.45,2.33,4.54,2.42,-2.51,-2.40,-2.30,1.94,2.04,2.12
376.56,4.54,2.42,4.47,2.35,-2.45,-2.33,-2.24,2.09,2.02,2.12
380.33,4.54,2.43,4.52,2.41,-2.38,-2.26,-2.20,2.16,2.15,2.11
384.13,4.51,2.40,4.52,2.40,-2.30,-2.20,-2.15,2.21,2.21,2.11
387.97,4.45,2.35,4.47,2.37,-2.24,-2.13,-2.10,2.21,2.23,2.10
391.85,4.38,2.29,4.36,2.27,-2.20,-2.07,-2.06,2.18,2.16,2.09
395.77,4.27,2.19,4.16,2.08,-2.14,-2.00,-2.02,2.13,2.02,2.08
399.73,3.93,1.86,4.01,1.94,-2.08,-1.94,-1.97,1.85,1.94,2.07
403.72,3.82,1.76,3.95,1.89,-2.00,-1.87,-1.93,1.82,1.95,2.06
407.76,4.05,2.01,3.98,1.93,-1.91,-1.81,-1.89,2.14,2.07,2.04
411.84,4.10,2.07,4.04,2.01,-1.85,-1.74,-1.86,2.25,2.19,2.03
415.96,3.97,1.95,3.91,1.88,-1.81,-1.68,-1.82,2.16,2.09,2.02
420.12,3.73,1.72,3.69,1.68,-1.78,-1.61,-1.78,1.95,1.92,2.01
424.32,3.39,1.38,3.67,1.66,-1.74,-1.55,-1.75,1.65,1.93,2.01
428.56,3.71,1.70,3.67,1.65,-1.69,-1.49,-1.71,2.02,1.97,2.01
432.85,4.00,1.98,3.67,1.65,-1.62,-1.42,-1.68,2.38,2.05,2.02
437.18,3.50,1.46,3.74,1.70,-1.53,-1.36,-1.64,1.97,2.21,2.04
441.55,3.52,1.46,3.61,1.54,-1.46,-1.30,-1.61,2.06,2.15,2.06
445.96,3.72,1.63,3.45,1.35,-1.41,-1.24,-1.57,2.31,2.03,2.09
450.42,3.29,1.16,3.43,1.30,-1.37,-1.18,-1.54,1.92,2.07,2.13
454.93,3.30,1.13,3.39,1.21,-1.31,-1.12,-1.50,1.99,2.08,2.17
459.48,3.46,1.24,3.38,1.16,-1.25,-1.06,-1.46,2.21,2.13,2.22
464.07,3.50,1.24,3.49,1.22,-1.18,-1.00,-1.43,2.32,2.31,2.26
468.71,3.52,1.21,3.53,1.22,-1.13,-0.94,-1.39,2.39,2.40,2.31
473.40,3.52,1.16,3.52,1.15,-1.10,-0.88,-1.35,2.42,2.42,2.36
478.13,3.50,1.09,3.50,1.08,-1.06,-0.83,-1.31,2.44,2.44,2.41
482.91,3.44,0.99,3.45,1.00,-1.01,-0.78,-1.27,2.43,2.45,2.45
487.74,3.40,0.91,3.34,0.85,-0.93,-0.72,-1.22,2.47,2.41,2.49
492.62,3.30,0.78,3.34,0.82,-0.84,-0.67,-1.18,2.46,2.51,2.52
497.55,3.19,0.65,3.38,0.84,-0.74,-0.62,-1.13,2.45,2.64,2.54
502.52,3.57,1.01,3.29,0.73,-0.67,-0.58,-1.09,2.90,2.62,2.56
507.55,3.24,0.67,3.15,0.58,-0.61,-0.53,-1.04,2.63,2.54,2.57
512.62,2.76,0.20,3.05,0.48,-0.56,-0.49,-0.99,2.20,2.48,2.56
517.75,2.92,0.36,2.92,0.36,-0.50,-0.45,-0.93,2.42,2.42,2.56
