frequency,raw,error,smoothed,error_smoothed,equalization,parametric_eq,fixed_band_eq,equalized_raw,equalized_smoothed,target
20.00,-13.75,-11.47,-13.77,-11.48,6.00,4.30,2.50,-7.75,-7.77,-2.29
20.20,-13.70,-11.42,-13.68,-11.40,6.00,4.45,2.57,-7.70,-7.68,-2.28
20.40,-13.60,-11.32,-13.58,-11.30,6.00,4.59,2.64,-7.60,-7.58,-2.28
20.61,-13.45,-11.17,-13.46,-11.18,6.00,4.74,2.71,-7.45,-7.46,-2.28
20.81,-13.32,-11.04,-13.33,-11.05,6.00,4.89,2.79,-7.32,-7.33,-2.28
21.02,-13.19,-10.91,-13.19,-10.91,6.00,5.04,2.87,-7.19,-7.19,-2.28
21.23,-13.05,-10.77,-13.05,-10.77,6.00,5.19,2.95,-7.05,-7.05,-2.28
21.44,-12.91,-10.63,-12.91,-10.64,6.00,5.35,3.04,-6.91,-6.91,-2.28
21.66,-12.77,-10.50,-12.77,-10.50,6.00,5.50,3.13,-6.77,-6.77,-2.27
21.87,-12.63,-10.36,-12.63,-10.36,6.00,5.65,3.22,-6.63,-6.63,-2.27
22.09,-12.50,-10.23,-12.49,-10.22,6.00,5.80,3.31,-6.50,-6.49,-2.27
22.31,-12.34,-10.07,-12.35,-10.08,6.00,5.95,3.40,-6.34,-6.35,-2.27
22.54,-12.21,-9.94,-12.21,-9.94,6.00,6.09,3.50,-6.21,-6.21,-2.27
22.76,-12.08,-9.81,-12.07,-9.80,6.00,6.23,3.60,-6.08,-6.07,-2.27
22.99,-11.93,-9.67,-11.93,-9.67,6.00,6.36,3.70,-5.93,-5.93,-2.27
23.22,-11.79,-9.53,-11.79,-9.53,6.00,6.48,3.81,-5.79,-5.79,-2.26
23.45,-11.65,-9.39,-11.65,-9.39,6.00,6.59,3.91,-5.65,-5.65,-2.26
23.69,-11.51,-9.25,-11.51,-9.25,6.00,6.69,4.02,-5.51,-5.51,-2.26
23.92,-11.37,-9.11,-11.37,-9.11,6.00,6.77,4.13,-5.37,-5.37,-2.26
24.16,-11.24,-8.98,-11.23,-8.97,6.00,6.84,4.25,-5.24,-5.23,-2.26
24.40,-11.09,-8.83,-11.09,-8.84,6.00,6.90,4.36,-5.09,-5.09,-2.26
24.65,-10.95,-8.70,-10.95,-8.70,6.00,6.94,4.48,-4.95,-4.95,-2.26
24.89,-10.82,-8.56,-10.81,-8.56,6.00,6.97,4.59,-4.82,-4.81,-2.25
25.14,-10.67,-8.42,-10.67,-8.42,6.00,6.98,4.71,-4.67,-4.67,-2.25
25.39,-10.53,-8.28,-10.54,-8.28,6.00,6.97,4.83,-4.53,-4.54,-2.25
25.65,-10.40,-8.15,-10.40,-8.15,6.00,6.95,4.95,-4.40,-4.40,-2.25
25.91,-10.26,-8.01,-10.26,-8.01,6.00,6.91,5.07,-4.26,-4.26,-2.25
26.16,-10.11,-7.86,-10.11,-7.87,6.00,6.85,5.19,-4.11,-4.11,-2.25
26.43,-9.97,-7.73,-9.97,-7.72,6.00,6.79,5.31,-3.97,-3.97,-2.25
26.69,-9.82,-7.58,-9.83,-7.58,6.00,6.71,5.42,-3.82,-3.83,-2.25
26.96,-9.69,-7.45,-9.69,-7.45,6.00,6.62,5.54,-3.69,-3.69,-2.24
27.23,-9.55,-7.31,-9.55,-7.31,6.00,6.52,5.65,-3.55,-3.55,-2.24
27.50,-9.42,-7.18,-9.41,-7.17,6.00,6.41,5.76,-3.42,-3.41,-2.24
27.77,-9.27,-7.03,-9.27,-7.03,6.00,6.30,5.86,-3.27,-3.27,-2.24
28.05,-9.13,-6.89,-9.14,-6.90,6.00,6.18,5.96,-3.13,-3.13,-2.24
28.33,-9.00,-6.76,-8.99,-6.76,6.01,6.06,6.05,-2.98,-2.98,-2.24
28.62,-8.86,-6.63,-8.86,-6.62,6.02,5.94,6.13,-2.84,-2.83,-2.24
28.90,-8.71,-6.48,-8.72,-6.49,6.02,5.82,6.21,-2.69,-2.69,-2.23
29.19,-8.58,-6.35,-8.58,-6.34,6.01,5.70,6.27,-2.57,-2.56,-2.23
29.48,-8.44,-6.21,-8.44,-6.20,5.98,5.58,6.33,-2.45,-2.45,-2.23
29.78,-8.29,-6.06,-8.30,-6.07,5.94,5.46,6.38,-2.35,-2.36,-2.23
30.08,-8.16,-5.93,-8.16,-5.93,5.87,5.35,6.41,-2.29,-2.29,-2.23
30.38,-8.03,-5.81,-8.03,-5.80,5.78,5.24,6.43,-2.25,-2.25,-2.23
30.68,-7.89,-5.67,-7.89,-5.67,5.68,5.13,6.45,-2.22,-2.22,-2.23
30.99,-7.75,-5.53,-7.75,-5.53,5.55,5.03,6.44,-2.20,-2.20,-2.22
31.30,-7.61,-5.39,-7.61,-5.39,5.42,4.93,6.43,-2.20,-2.20,-2.22
31.61,-7.47,-5.25,-7.48,-5.25,5.27,4.83,6.40,-2.20,-2.21,-2.22
31.93,-7.34,-5.12,-7.34,-5.12,5.12,4.74,6.36,-2.22,-2.22,-2.22
32.24,-7.21,-4.99,-7.20,-4.98,4.98,4.64,6.31,-2.23,-2.22,-2.22
32.57,-7.06,-4.84,-7.07,-4.85,4.85,4.55,6.24,-2.21,-2.22,-2.22
32.89,-6.92,-4.70,-6.93,-4.71,4.71,4.46,6.17,-2.21,-2.22,-2.22
33.22,-6.80,-4.59,-6.79,-4.58,4.58,4.37,6.08,-2.22,-2.21,-2.21
33.55,-6.66,-4.45,-6.66,-4.44,4.45,4.28,5.98,-2.21,-2.21,-2.21
33.89,-6.52,-4.31,-6.53,-4.32,4.31,4.18,5.87,-2.21,-2.21,-2.21
34.23,-6.39,-4.18,-6.39,-4.18,4.18,4.08,5.76,-2.21,-2.21,-2.21
34.57,-6.27,-4.06,-6.26,-4.05,4.05,3.97,5.63,-2.22,-2.21,-2.21
34.92,-6.12,-3.91,-6.13,-3.92,3.92,3.86,5.50,-2.20,-2.21,-2.21
35.27,-5.99,-3.79,-6.00,-3.79,3.79,3.74,5.37,-2.20,-2.21,-2.21
35.62,-5.87,-3.67,-5.86,-3.66,3.66,3.61,5.22,-2.21,-2.20,-2.21
35.97,-5.73,-3.53,-5.74,-3.53,3.53,3.49,5.08,-2.20,-2.21,-2.20
36.33,-5.60,-3.40,-5.60,-3.40,3.40,3.35,4.93,-2.20,-2.20,-2.20
36.70,-5.48,-3.28,-5.47,-3.27,3.27,3.22,4.77,-2.21,-2.20,-2.20
37.06,-5.33,-3.13,-5.34,-3.14,3.14,3.08,4.62,-2.19,-2.20,-2.20
37.43,-5.23,-3.03,-5.22,-3.02,3.02,2.94,4.46,-2.21,-2.20,-2.20
37.81,-5.08,-2.88,-5.09,-2.89,2.89,2.81,4.30,-2.19,-2.20,-2.20
38.19,-4.97,-2.78,-4.97,-2.77,2.77,2.67,4.14,-2.20,-2.20,-2.20
38.57,-4.83,-2.64,-4.83,-2.64,2.64,2.53,3.98,-2.19,-2.19,-2.19
38.95,-4.72,-2.53,-4.71,-2.52,2.52,2.40,3.82,-2.20,-2.19,-2.19
39.34,-4.58,-2.39,-4.59,-2.40,2.40,2.27,3.66,-2.18,-2.19,-2.19
39.74,-4.48,-2.29,-4.47,-2.28,2.28,2.14,3.50,-2.20,-2.19,-2.19
40.14,-4.35,-2.16,-4.35,-2.16,2.16,2.02,3.34,-2.19,-2.19,-2.19
40.54,-4.23,-2.04,-4.23,-2.04,2.04,1.90,3.18,-2.19,-2.19,-2.19
40.94,-4.10,-1.91,-4.11,-1.92,1.92,1.78,3.02,-2.18,-2.19,-2.19
41.35,-3.99,-1.81,-3.99,-1.80,1.81,1.66,2.87,-2.19,-2.18,-2.18
41.76,-3.88,-1.70,-3.87,-1.69,1.69,1.55,2.71,-2.19,-2.18,-2.18
42.18,-3.75,-1.57,-3.76,-1.58,1.58,1.44,2.56,-2.17,-2.18,-2.18
42.60,-3.65,-1.47,-3.65,-1.47,1.47,1.34,2.40,-2.18,-2.17,-2.18
43.03,-3.54,-1.36,-3.54,-1.36,1.37,1.23,2.25,-2.17,-2.17,-2.18
43.46,-3.44,-1.26,-3.44,-1.26,1.26,1.13,2.10,-2.18,-2.18,-2.18
43.90,-3.34,-1.17,-3.34,-1.16,1.16,1.03,1.95,-2.18,-2.18,-2.18
44.33,-3.24,-1.06,-3.24,-1.07,1.05,0.94,1.81,-2.19,-2.19,-2.17
44.78,-3.13,-0.96,-3.13,-0.96,0.95,0.84,1.66,-2.19,-2.19,-2.17
45.23,-3.03,-0.86,-3.01,-0.84,0.84,0.75,1.52,-2.19,-2.17,-2.17
45.68,-2.88,-0.71,-2.90,-0.73,0.74,0.66,1.37,-2.14,-2.16,-2.17
46.13,-2.79,-0.62,-2.79,-0.62,0.64,0.57,1.23,-2.15,-2.16,-2.17
46.60,-2.70,-0.53,-2.69,-0.52,0.53,0.48,1.09,-2.17,-2.16,-2.17
47.06,-2.60,-0.43,-2.60,-0.44,0.44,0.39,0.95,-2.16,-2.17,-2.17
47.53,-2.51,-0.35,-2.51,-0.35,0.34,0.31,0.81,-2.17,-2.17,-2.17
48.01,-2.42,-0.26,-2.42,-0.25,0.25,0.22,0.68,-2.17,-2.16,-2.16
48.49,-2.33,-0.17,-2.33,-0.17,0.16,0.14,0.54,-2.17,-2.17,-2.16
48.97,-2.23,-0.07,-2.24,-0.08,0.08,0.05,0.41,-2.15,-2.17,-2.16
49.46,-2.17,-0.01,-2.15,0.01,-0.01,-0.03,0.28,-2.18,-2.16,-2.16
49.96,-2.06,0.10,-2.07,0.09,-0.09,-0.11,0.15,-2.15,-2.16,-2.16
50.46,-1.97,0.19,-1.98,0.18,-0.18,-0.19,0.02,-2.15,-2.16,-2.16
50.96,-1.90,0.25,-1.89,0.26,-0.26,-0.28,-0.11,-2.16,-2.15,-2.16
51.47,-1.80,0.35,-1.81,0.34,-0.34,-0.36,-0.23,-2.14,-2.15,-2.15
51.99,-1.74,0.41,-1.73,0.42,-0.42,-0.44,-0.35,-2.16,-2.15,-2.15
52.51,-1.65,0.50,-1.65,0.50,-0.50,-0.52,-0.47,-2.15,-2.15,-2.15
53.03,-1.57,0.58,-1.57,0.58,-0.58,-0.60,-0.59,-2.15,-2.15,-2.15
53.56,-1.50,0.65,-1.49,0.66,-0.65,-0.68,-0.70,-2.15,-2.15,-2.15
54.10,-1.41,0.74,-1.42,0.73,-0.73,-0.75,-0.82,-2.14,-2.15,-2.15
54.64,-1.35,0.79,-1.35,0.80,-0.80,-0.83,-0.92,-2.15,-2.14,-2.15
55.18,-1.28,0.86,-1.28,0.87,-0.86,-0.91,-1.03,-2.14,-2.14,-2.14
55.74,-1.21,0.93,-1.21,0.93,-0.93,-0.98,-1.13,-2.14,-2.14,-2.14
56.29,-1.15,0.99,-1.15,0.99,-0.99,-1.05,-1.23,-2.14,-2.14,-2.14
56.86,-1.08,1.06,-1.09,1.05,-1.05,-1.12,-1.32,-2.14,-2.14,-2.14
57.42,-1.03,1.11,-1.03,1.11,-1.11,-1.19,-1.41,-2.14,-2.14,-2.14
58.00,-0.97,1.17,-0.97,1.17,-1.17,-1.25,-1.49,-2.14,-2.14,-2.14
58.58,-0.91,1.23,-0.91,1.22,-1.23,-1.32,-1.57,-2.14,-2.14,-2.14
59.16,-0.85,1.28,-0.85,1.29,-1.29,-1.37,-1.64,-2.14,-2.14,-2.13
59.76,-0.79,1.34,-0.79,1.34,-1.34,-1.43,-1.71,-2.13,-2.13,-2.13
60.35,-0.73,1.40,-0.74,1.40,-1.39,-1.48,-1.77,-2.12,-2.13,-2.13
60.96,-0.69,1.44,-0.69,1.44,-1.44,-1.53,-1.82,-2.13,-2.13,-2.13
61.57,-0.64,1.49,-0.64,1.49,-1.49,-1.57,-1.87,-2.13,-2.13,-2.13
62.18,-0.60,1.53,-0.60,1.53,-1.53,-1.60,-1.91,-2.13,-2.13,-2.13
62.80,-0.56,1.57,-0.56,1.57,-1.57,-1.64,-1.95,-2.13,-2.13,-2.13
63.43,-0.52,1.60,-0.52,1.60,-1.61,-1.66,-1.97,-2.13,-2.13,-2.13
64.07,-0.49,1.63,-0.48,1.64,-1.64,-1.68,-2.00,-2.13,-2.12,-2.12
64.71,-0.45,1.67,-0.45,1.67,-1.67,-1.70,-2.01,-2.12,-2.12,-2.12
65.35,-0.41,1.71,-0.42,1.70,-1.70,-1.71,-2.03,-2.11,-2.12,-2.12
66.01,-0.40,1.72,-0.39,1.73,-1.73,-1.71,-2.03,-2.13,-2.12,-2.12
66.67,-0.36,1.76,-0.37,1.75,-1.75,-1.71,-2.03,-2.11,-2.12,-2.12
67.33,-0.36,1.76,-0.35,1.76,-1.77,-1.71,-2.03,-2.13,-2.12,-2.12
68.01,-0.34,1.77,-0.34,1.78,-1.78,-1.70,-2.02,-2.12,-2.12,-2.12
68.69,-0.32,1.79,-0.33,1.79,-1.79,-1.68,-2.00,-2.11,-2.11,-2.11
69.37,-0.32,1.79,-0.32,1.79,-1.79,-1.67,-1.99,-2.11,-2.11,-2.11
70.07,-0.32,1.79,-0.32,1.79,-1.79,-1.64,-1.96,-2.11,-2.10,-2.11
70.77,-0.32,1.79,-0.33,1.78,-1.78,-1.62,-1.94,-2.10,-2.11,-2.11
71.48,-0.33,1.78,-0.34,1.77,-1.77,-1.59,-1.91,-2.10,-2.11,-2.11
72.19,-0.36,1.75,-0.35,1.76,-1.76,-1.56,-1.88,-2.12,-2.11,-2.11
72.91,-0.36,1.75,-0.36,1.74,-1.75,-1.52,-1.85,-2.11,-2.11,-2.11
73.64,-0.36,1.74,-0.38,1.73,-1.73,-1.49,-1.81,-2.09,-2.11,-2.10
74.38,-0.40,1.70,-0.39,1.71,-1.71,-1.45,-1.78,-2.11,-2.10,-2.10
75.12,-0.41,1.69,-0.41,1.69,-1.69,-1.41,-1.74,-2.11,-2.10,-2.10
75.87,-0.42,1.68,-0.43,1.67,-1.67,-1.37,-1.70,-2.10,-2.10,-2.10
76.63,-0.45,1.65,-0.44,1.66,-1.65,-1.33,-1.66,-2.10,-2.10,-2.10
77.40,-0.46,1.64,-0.47,1.63,-1.63,-1.29,-1.62,-2.09,-2.10,-2.10
78.17,-0.49,1.61,-0.49,1.61,-1.61,-1.25,-1.58,-2.10,-2.10,-2.10
78.95,-0.52,1.57,-0.52,1.58,-1.58,-1.21,-1.54,-2.10,-2.10,-2.09
79.74,-0.54,1.55,-0.55,1.55,-1.55,-1.17,-1.50,-2.09,-2.10,-2.09
80.54,-0.58,1.51,-0.58,1.52,-1.52,-1.13,-1.46,-2.10,-2.09,-2.09
81.35,-0.61,1.48,-0.61,1.48,-1.48,-1.09,-1.42,-2.09,-2.09,-2.09
82.16,-0.64,1.45,-0.65,1.44,-1.44,-1.05,-1.38,-2.08,-2.09,-2.09
82.98,-0.69,1.40,-0.69,1.40,-1.39,-1.01,-1.35,-2.09,-2.08,-2.09
83.81,-0.73,1.36,-0.74,1.35,-1.34,-0.98,-1.31,-2.07,-2.08,-2.09
84.65,-0.79,1.29,-0.79,1.29,-1.29,-0.94,-1.27,-2.08,-2.08,-2.09
85.50,-0.86,1.22,-0.86,1.23,-1.23,-0.90,-1.23,-2.09,-2.09,-2.08
86.35,-0.92,1.16,-0.92,1.16,-1.17,-0.87,-1.20,-2.09,-2.09,-2.08
87.22,-0.99,1.09,-0.98,1.10,-1.10,-0.84,-1.17,-2.09,-2.09,-2.08
88.09,-1.04,1.04,-1.05,1.03,-1.03,-0.80,-1.13,-2.07,-2.08,-2.08
88.97,-1.12,0.96,-1.12,0.96,-0.96,-0.77,-1.10,-2.08,-2.07,-2.08
89.86,-1.19,0.89,-1.19,0.89,-0.88,-0.74,-1.07,-2.07,-2.07,-2.08
90.76,-1.26,0.82,-1.27,0.81,-0.80,-0.71,-1.04,-2.06,-2.07,-2.08
91.66,-1.36,0.71,-1.35,0.73,-0.72,-0.69,-1.01,-2.08,-2.07,-2.07
92.58,-1.43,0.64,-1.44,0.63,-0.63,-0.66,-0.98,-2.06,-2.07,-2.07
93.51,-1.52,0.55,-1.52,0.55,-0.55,-0.63,-0.95,-2.07,-2.07,-2.07
94.44,-1.62,0.45,-1.61,0.46,-0.46,-0.61,-0.93,-2.08,-2.07,-2.07
95.39,-1.68,0.39,-1.69,0.38,-0.37,-0.58,-0.90,-2.05,-2.06,-2.07
96.34,-1.78,0.29,-1.78,0.29,-0.29,-0.56,-0.88,-2.07,-2.07,-2.07
97.30,-1.84,0.22,-1.85,0.22,-0.22,-0.54,-0.86,-2.06,-2.07,-2.07
98.28,-1.93,0.13,-1.92,0.14,-0.16,-0.52,-0.83,-2.09,-2.08,-2.06
99.26,-1.96,0.10,-1.97,0.09,-0.11,-0.50,-0.81,-2.07,-2.08,-2.06
100.25,-2.01,0.05,-2.00,0.06,-0.07,-0.48,-0.79,-2.08,-2.08,-2.06
101.25,-2.01,0.05,-2.01,0.05,-0.06,-0.46,-0.77,-2.07,-2.07,-2.06
102.27,-2.01,0.05,-2.02,0.04,-0.05,-0.44,-0.75,-2.06,-2.07,-2.06
103.29,-2.00,0.06,-1.99,0.06,-0.07,-0.42,-0.73,-2.07,-2.06,-2.06
104.32,-1.97,0.09,-1.97,0.09,-0.09,-0.40,-0.71,-2.06,-2.06,-2.06
105.37,-1.92,0.13,-1.93,0.13,-0.12,-0.39,-0.70,-2.04,-2.05,-2.05
106.42,-1.89,0.16,-1.89,0.17,-0.16,-0.37,-0.68,-2.05,-2.05,-2.05
107.48,-1.84,0.21,-1.84,0.21,-0.21,-0.36,-0.66,-2.05,-2.05,-2.05
108.56,-1.80,0.25,-1.80,0.25,-0.25,-0.34,-0.65,-2.05,-2.05,-2.05
109.64,-1.75,0.30,-1.75,0.30,-0.29,-0.33,-0.63,-2.04,-2.05,-2.05
110.74,-1.71,0.34,-1.71,0.34,-0.33,-0.31,-0.61,-2.04,-2.04,-2.05
111.85,-1.67,0.38,-1.67,0.37,-0.37,-0.30,-0.60,-2.04,-2.04,-2.05
112.97,-1.64,0.40,-1.64,0.40,-0.40,-0.29,-0.58,-2.04,-2.04,-2.05
114.10,-1.62,0.42,-1.61,0.43,-0.42,-0.28,-0.57,-2.05,-2.04,-2.04
115.24,-1.59,0.45,-1.60,0.44,-0.45,-0.26,-0.55,-2.04,-2.05,-2.04
116.39,-1.58,0.46,-1.58,0.46,-0.46,-0.25,-0.54,-2.04,-2.05,-2.04
117.55,-1.58,0.46,-1.56,0.48,-0.48,-0.24,-0.52,-2.06,-2.04,-2.04
118.73,-1.53,0.51,-1.55,0.49,-0.49,-0.23,-0.51,-2.02,-2.04,-2.04
119.92,-1.53,0.51,-1.54,0.50,-0.50,-0.22,-0.49,-2.03,-2.03,-2.04
121.12,-1.53,0.50,-1.53,0.51,-0.51,-0.21,-0.48,-2.04,-2.03,-2.04
122.33,-1.53,0.50,-1.53,0.51,-0.52,-0.20,-0.46,-2.05,-2.04,-2.03
123.55,-1.51,0.52,-1.52,0.52,-0.52,-0.19,-0.44,-2.04,-2.04,-2.03
124.79,-1.51,0.52,-1.51,0.53,-0.53,-0.18,-0.43,-2.04,-2.03,-2.03
126.03,-1.49,0.54,-1.49,0.54,-0.53,-0.17,-0.41,-2.02,-2.02,-2.03
127.29,-1.49,0.54,-1.49,0.54,-0.53,-0.17,-0.39,-2.02,-2.02,-2.03
128.57,-1.49,0.54,-1.50,0.53,-0.53,-0.16,-0.38,-2.02,-2.02,-2.03
129.85,-1.51,0.52,-1.51,0.52,-0.52,-0.15,-0.36,-2.03,-2.03,-2.03
131.15,-1.52,0.50,-1.52,0.50,-0.51,-0.14,-0.34,-2.03,-2.03,-2.02
132.46,-1.53,0.49,-1.52,0.50,-0.50,-0.13,-0.32,-2.03,-2.02,-2.02
133.79,-1.53,0.49,-1.53,0.49,-0.49,-0.13,-0.31,-2.02,-2.02,-2.02
135.12,-1.53,0.49,-1.55,0.47,-0.47,-0.12,-0.29,-2.00,-2.02,-2.02
136.48,-1.58,0.44,-1.56,0.46,-0.46,-0.11,-0.27,-2.04,-2.02,-2.02
137.84,-1.58,0.44,-1.58,0.44,-0.44,-0.10,-0.25,-2.02,-2.02,-2.02
139.22,-1.58,0.44,-1.60,0.42,-0.42,-0.10,-0.23,-2.00,-2.02,-2.02
140.61,-1.62,0.39,-1.61,0.41,-0.41,-0.09,-0.21,-2.03,-2.01,-2.01
142.02,-1.62,0.39,-1.63,0.39,-0.39,-0.08,-0.19,-2.01,-2.01,-2.01
143.44,-1.64,0.37,-1.64,0.37,-0.37,-0.08,-0.17,-2.01,-2.01,-2.01
144.87,-1.66,0.35,-1.66,0.36,-0.35,-0.07,-0.14,-2.01,-2.01,-2.01
146.32,-1.66,0.35,-1.68,0.33,-0.33,-0.06,-0.12,-1.99,-2.01,-2.01
147.78,-1.71,0.30,-1.69,0.32,-0.32,-0.06,-0.10,-2.03,-2.01,-2.01
149.26,-1.71,0.30,-1.71,0.30,-0.30,-0.05,-0.08,-2.01,-2.01,-2.01
150.75,-1.71,0.29,-1.73,0.28,-0.29,-0.04,-0.06,-2.00,-2.01,-2.01
152.26,-1.75,0.25,-1.74,0.27,-0.27,-0.04,-0.03,-2.02,-2.01,-2.00
153.78,-1.75,0.25,-1.75,0.26,-0.26,-0.03,-0.01,-2.01,-2.00,-2.00
155.32,-1.75,0.25,-1.76,0.24,-0.24,-0.03,0.01,-1.99,-2.00,-2.00
156.88,-1.76,0.24,-1.76,0.24,-0.23,-0.02,0.03,-1.99,-1.99,-2.00
158.44,-1.79,0.21,-1.78,0.21,-0.21,-0.01,0.06,-2.00,-1.99,-2.00
160.03,-1.80,0.20,-1.81,0.19,-0.18,-0.01,0.08,-1.99,-1.99,-2.00
161.63,-1.84,0.15,-1.84,0.16,-0.16,-0.00,0.10,-2.00,-1.99,-2.00
163.24,-1.86,0.13,-1.86,0.13,-0.13,0.01,0.13,-1.99,-1.99,-1.99
164.88,-1.89,0.10,-1.89,0.10,-0.10,0.01,0.15,-1.99,-1.99,-1.99
166.53,-1.92,0.07,-1.92,0.07,-0.07,0.02,0.18,-1.99,-1.99,-1.99
168.19,-1.95,0.04,-1.95,0.04,-0.04,0.02,0.20,-1.99,-1.99,-1.99
169.87,-1.98,0.01,-1.98,0.01,-0.01,0.03,0.23,-1.99,-1.99,-1.99
171.57,-2.01,-0.02,-2.00,-0.02,0.01,0.04,0.25,-2.00,-1.99,-1.99
173.29,-2.01,-0.02,-2.03,-0.04,0.03,0.04,0.28,-1.98,-1.99,-1.99
175.02,-2.05,-0.07,-2.04,-0.06,0.05,0.05,0.31,-2.00,-1.99,-1.98
176.77,-2.05,-0.07,-2.05,-0.07,0.06,0.06,0.33,-1.99,-1.99,-1.98
178.54,-2.05,-0.07,-2.05,-0.07,0.07,0.07,0.36,-1.98,-1.98,-1.98
180.32,-2.05,-0.07,-2.05,-0.07,0.08,0.07,0.38,-1.97,-1.97,-1.98
182.13,-2.05,-0.07,-2.06,-0.08,0.09,0.08,0.41,-1.96,-1.97,-1.98
183.95,-2.06,-0.08,-2.07,-0.09,0.10,0.09,0.44,-1.96,-1.97,-1.98
185.79,-2.10,-0.12,-2.09,-0.11,0.11,0.10,0.47,-1.99,-1.98,-1.98
187.65,-2.10,-0.13,-2.10,-0.12,0.12,0.10,0.49,-1.98,-1.98,-1.98
189.52,-2.10,-0.13,-2.11,-0.14,0.13,0.11,0.52,-1.97,-1.98,-1.97
191.42,-2.12,-0.15,-2.12,-0.14,0.15,0.12,0.55,-1.97,-1.97,-1.97
193.33,-2.14,-0.17,-2.14,-0.16,0.17,0.13,0.58,-1.97,-1.97,-1.97
195.27,-2.14,-0.17,-2.16,-0.19,0.18,0.14,0.61,-1.96,-1.97,-1.97
197.22,-2.18,-0.21,-2.17,-0.20,0.20,0.15,0.64,-1.98,-1.97,-1.97
199.19,-2.18,-0.21,-2.18,-0.21,0.21,0.16,0.66,-1.97,-1.97,-1.97
201.18,-2.18,-0.22,-2.19,-0.23,0.23,0.17,0.69,-1.95,-1.97,-1.97
203.19,-2.20,-0.24,-2.20,-0.24,0.24,0.18,0.72,-1.96,-1.96,-1.96
205.23,-2.23,-0.27,-2.22,-0.25,0.26,0.19,0.75,-1.97,-1.96,-1.96
207.28,-2.23,-0.27,-2.23,-0.27,0.28,0.20,0.78,-1.96,-1.96,-1.96
209.35,-2.23,-0.27,-2.25,-0.29,0.29,0.21,0.80,-1.94,-1.96,-1.96
211.44,-2.27,-0.31,-2.26,-0.30,0.30,0.22,0.83,-1.97,-1.96,-1.96
213.56,-2.27,-0.31,-2.27,-0.31,0.30,0.24,0.86,-1.97,-1.96,-1.96
215.69,-2.27,-0.32,-2.28,-0.32,0.31,0.25,0.88,-1.96,-1.97,-1.96
217.85,-2.27,-0.32,-2.27,-0.31,0.30,0.27,0.91,-1.97,-1.96,-1.95
220.03,-2.27,-0.32,-2.26,-0.30,0.30,0.28,0.93,-1.97,-1.96,-1.95
222.23,-2.23,-0.28,-2.24,-0.29,0.29,0.30,0.95,-1.94,-1.95,-1.95
224.45,-2.23,-0.28,-2.23,-0.28,0.29,0.31,0.97,-1.94,-1.94,-1.95
226.70,-2.23,-0.28,-2.23,-0.28,0.28,0.33,0.99,-1.95,-1.94,-1.95
228.96,-2.23,-0.28,-2.23,-0.28,0.28,0.35,1.01,-1.95,-1.94,-1.95
231.25,-2.23,-0.28,-2.23,-0.29,0.29,0.36,1.03,-1.94,-1.94,-1.95
233.57,-2.24,-0.30,-2.25,-0.30,0.31,0.38,1.04,-1.93,-1.94,-1.94
235.90,-2.27,-0.33,-2.27,-0.32,0.33,0.40,1.05,-1.94,-1.94,-1.94
238.26,-2.30,-0.36,-2.30,-0.36,0.36,0.43,1.06,-1.94,-1.94,-1.94
240.64,-2.33,-0.39,-2.34,-0.40,0.40,0.45,1.07,-1.93,-1.94,-1.94
243.05,-2.38,-0.44,-2.38,-0.44,0.44,0.47,1.08,-1.95,-1.94,-1.94
245.48,-2.42,-0.48,-2.42,-0.48,0.48,0.50,1.08,-1.94,-1.94,-1.94
247.93,-2.46,-0.52,-2.46,-0.53,0.52,0.52,1.08,-1.94,-1.94,-1.94
250.41,-2.51,-0.58,-2.51,-0.57,0.57,0.55,1.08,-1.94,-1.94,-1.94
252.92,-2.54,-0.61,-2.54,-0.61,0.61,0.58,1.08,-1.93,-1.93,-1.93
255.45,-2.59,-0.66,-2.59,-0.66,0.66,0.61,1.07,-1.93,-1.93,-1.93
258.00,-2.62,-0.69,-2.63,-0.70,0.70,0.65,1.06,-1.92,-1.93,-1.93
260.58,-2.68,-0.75,-2.67,-0.74,0.74,0.68,1.05,-1.94,-1.93,-1.93
263.19,-2.71,-0.78,-2.71,-0.79,0.79,0.72,1.04,-1.93,-1.93,-1.93
265.82,-2.76,-0.83,-2.76,-0.83,0.83,0.75,1.02,-1.93,-1.93,-1.93
268.48,-2.79,-0.87,-2.79,-0.87,0.87,0.79,1.01,-1.92,-1.92,-1.93
271.16,-2.84,-0.92,-2.84,-0.91,0.91,0.83,0.99,-1.93,-1.92,-1.92
273.87,-2.87,-0.95,-2.87,-0.95,0.95,0.88,0.97,-1.92,-1.92,-1.92
276.61,-2.92,-1.00,-2.92,-1.00,0.99,0.92,0.94,-1.93,-1.92,-1.92
279.38,-2.95,-1.03,-2.95,-1.03,1.04,0.97,0.92,-1.92,-1.92,-1.92
282.17,-3.00,-1.08,-3.00,-1.08,1.08,1.02,0.89,-1.92,-1.92,-1.92
284.99,-3.03,-1.11,-3.03,-1.12,1.12,1.07,0.87,-1.91,-1.91,-1.92
287.84,-3.08,-1.17,-3.07,-1.16,1.16,1.12,0.84,-1.92,-1.91,-1.92
290.72,-3.11,-1.20,-3.12,-1.20,1.21,1.17,0.81,-1.90,-1.91,-1.91
293.63,-3.16,-1.25,-3.17,-1.25,1.25,1.22,0.78,-1.91,-1.91,-1.91
296.57,-3.22,-1.31,-3.21,-1.30,1.29,1.28,0.75,-1.93,-1.91,-1.91
299.53,-3.25,-1.34,-3.25,-1.34,1.34,1.33,0.72,-1.91,-1.91,-1.91
302.53,-3.29,-1.38,-3.29,-1.38,1.38,1.38,0.68,-1.91,-1.91,-1.91
305.55,-3.33,-1.42,-3.33,-1.42,1.43,1.44,0.65,-1.90,-1.90,-1.91
308.61,-3.37,-1.46,-3.37,-1.47,1.47,1.49,0.62,-1.90,-1.90,-1.91
311.69,-3.41,-1.51,-3.41,-1.51,1.51,1.53,0.58,-1.90,-1.90,-1.90
314.81,-3.46,-1.56,-3.45,-1.55,1.55,1.58,0.55,-1.91,-1.90,-1.90
317.96,-3.49,-1.59,-3.49,-1.59,1.59,1.62,0.52,-1.90,-1.90,-1.90
321.14,-3.52,-1.62,-3.52,-1.62,1.62,1.66,0.48,-1.90,-1.90,-1.90
324.35,-3.55,-1.65,-3.55,-1.65,1.65,1.68,0.45,-1.90,-1.90,-1.90
327.59,-3.57,-1.67,-3.58,-1.68,1.68,1.71,0.41,-1.89,-1.90,-1.90
330.87,-3.61,-1.71,-3.60,-1.70,1.70,1.72,0.38,-1.91,-1.90,-1.90
334.18,-3.61,-1.72,-3.61,-1.72,1.71,1.73,0.35,-1.90,-1.90,-1.90
337.52,-3.61,-1.72,-3.61,-1.72,1.72,1.73,0.31,-1.89,-1.89,-1.89
340.90,-3.61,-1.72,-3.61,-1.72,1.73,1.72,0.28,-1.88,-1.88,-1.89
344.30,-3.61,-1.72,-3.61,-1.72,1.73,1.70,0.25,-1.89,-1.89,-1.89
347.75,-3.61,-1.72,-3.61,-1.72,1.72,1.67,0.21,-1.90,-1.89,-1.89
351.23,-3.59,-1.70,-3.59,-1.70,1.70,1.63,0.18,-1.89,-1.89,-1.89
354.74,-3.56,-1.67,-3.56,-1.68,1.67,1.59,0.15,-1.89,-1.89,-1.89
358.28,-3.53,-1.65,-3.52,-1.64,1.64,1.54,0.11,-1.89,-1.89,-1.89
361.87,-3.47,-1.59,-3.48,-1.59,1.59,1.48,0.08,-1.88,-1.88,-1.88
365.49,-3.42,-1.54,-3.42,-1.54,1.54,1.41,0.05,-1.88,-1.88,-1.88
369.14,-3.35,-1.47,-3.35,-1.47,1.47,1.34,0.01,-1.88,-1.88,-1.88
372.83,-3.29,-1.41,-3.28,-1.40,1.40,1.26,-0.02,-1.89,-1.88,-1.88
376.56,-3.18,-1.30,-3.19,-1.32,1.31,1.17,-0.05,-1.87,-1.88,-1.88
380.33,-3.10,-1.22,-3.10,-1.22,1.22,1.09,-0.08,-1.88,-1.88,-1.88
384.13,-3.00,-1.13,-2.99,-1.12,1.12,1.00,-0.11,-1.88,-1.88,-1.88
387.97,-2.87,-1.00,-2.88,-1.01,1.00,0.91,-0.15,-1.87,-1.88,-1.87
391.85,-2.76,-0.89,-2.76,-0.89,0.88,0.81,-0.18,-1.88,-1.88,-1.87
395.77,-2.63,-0.76,-2.63,-0.76,0.76,0.71,-0.21,-1.88,-1.87,-1.87
399.73,-2.50,-0.63,-2.50,-0.63,0.62,0.61,-0.24,-1.88,-1.88,-1.87
403.72,-2.35,-0.48,-2.35,-0.49,0.48,0.51,-0.27,-1.87,-1.87,-1.87
407.76,-2.21,-0.34,-2.21,-0.34,0.34,0.41,-0.30,-1.87,-1.86,-1.87
411.84,-2.06,-0.19,-2.06,-0.20,0.20,0.30,-0.33,-1.86,-1.86,-1.87
415.96,-1.92,-0.06,-1.92,-0.06,0.06,0.19,-0.36,-1.86,-1.86,-1.86
420.12,-1.79,0.07,-1.78,0.08,-0.08,0.08,-0.39,-1.87,-1.86,-1.86
424.32,-1.64,0.22,-1.65,0.22,-0.22,-0.04,-0.42,-1.86,-1.86,-1.86
428.56,-1.50,0.36,-1.51,0.35,-0.35,-0.15,-0.45,-1.85,-1.86,-1.86
