frequency,raw,error,smoothed,error_smoothed,equalization,parametric_eq,fixed_band_eq,equalized_raw,equalized_smoothed,target
20.00,2.11,-0.07,2.10,-0.07,0.05,0.02,-0.01,2.16,2.16,2.17
20.20,2.13,-0.08,2.13,-0.08,0.08,0.02,-0.01,2.20,2.21,2.21
20.40,2.15,-0.10,2.15,-0.10,0.10,0.02,-0.01,2.25,2.25,2.25
20.61,2.17,-0.10,2.17,-0.11,0.12,0.02,-0.01,2.29,2.29,2.27
20.81,2.19,-0.12,2.19,-0.12,0.14,0.02,-0.01,2.32,2.33,2.31
21.02,2.21,-0.14,2.20,-0.14,0.15,0.02,-0.01,2.36,2.35,2.35
21.23,2.21,-0.15,2.21,-0.16,0.16,0.02,-0.01,2.37,2.37,2.36
21.44,2.21,-0.17,2.21,-0.17,0.17,0.02,-0.01,2.37,2.38,2.38
21.66,2.21,-0.18,2.21,-0.18,0.17,0.02,-0.01,2.38,2.38,2.39
21.87,2.21,-0.18,2.21,-0.18,0.18,0.01,-0.01,2.38,2.38,2.39
22.09,2.22,-0.18,2.21,-0.18,0.17,0.01,-0.01,2.39,2.39,2.40
22.31,2.23,-0.17,2.23,-0.17,0.16,0.01,-0.01,2.39,2.39,2.40
22.54,2.24,-0.16,2.24,-0.15,0.15,0.01,-0.01,2.39,2.39,2.40
22.76,2.26,-0.13,2.25,-0.13,0.14,0.01,-0.01,2.39,2.39,2.39
22.99,2.27,-0.11,2.26,-0.11,0.12,0.01,-0.01,2.39,2.39,2.38
23.22,2.28,-0.10,2.27,-0.10,0.11,0.01,-0.01,2.38,2.38,2.38
23.45,2.28,-0.09,2.28,-0.09,0.09,0.01,-0.01,2.37,2.37,2.36
23.69,2.29,-0.08,2.29,-0.08,0.08,0.01,-0.01,2.37,2.37,2.36
23.92,2.30,-0.07,2.29,-0.08,0.08,0.01,-0.01,2.37,2.37,2.36
24.16,2.30,-0.08,2.30,-0.07,0.07,0.00,-0.01,2.37,2.37,2.37
24.40,2.30,-0.08,2.30,-0.07,0.07,0.00,-0.01,2.37,2.37,2.37
24.65,2.30,-0.07,2.30,-0.07,0.07,0.00,-0.01,2.36,2.36,2.36
24.89,2.30,-0.07,2.30,-0.07,0.06,0.00,-0.01,2.36,2.36,2.36
25.14,2.30,-0.07,2.30,-0.06,0.06,-0.00,-0.01,2.36,2.36,2.36
25.39,2.30,-0.06,2.30,-0.06,0.06,-0.00,-0.01,2.35,2.35,2.36
25.65,2.30,-0.05,2.30,-0.05,0.05,-0.00,-0.01,2.35,2.35,2.35
25.91,2.30,-0.04,2.30,-0.05,0.05,-0.01,-0.01,2.35,2.35,2.34
26.16,2.30,-0.04,2.30,-0.04,0.05,-0.01,-0.01,2.34,2.34,2.34
26.43,2.30,-0.04,2.30,-0.04,0.04,-0.01,-0.01,2.34,2.34,2.34
26.69,2.30,-0.04,2.30,-0.04,0.04,-0.01,-0.01,2.33,2.33,2.34
26.96,2.30,-0.03,2.30,-0.03,0.03,-0.01,-0.01,2.33,2.33,2.33
27.23,2.30,-0.03,2.30,-0.03,0.03,-0.01,-0.01,2.32,2.32,2.33
27.50,2.30,-0.03,2.30,-0.03,0.02,-0.02,-0.01,2.32,2.32,2.32
27.77,2.30,-0.02,2.30,-0.02,0.02,-0.02,-0.01,2.31,2.31,2.31
28.05,2.30,-0.02,2.30,-0.01,0.01,-0.02,-0.01,2.31,2.31,2.31
28.33,2.30,-0.01,2.30,-0.01,0.01,-0.02,-0.01,2.31,2.31,2.30
28.62,2.30,-0.00,2.30,-0.00,0.01,-0.03,-0.01,2.31,2.31,2.30
28.90,2.30,-0.00,2.30,-0.00,0.01,-0.03,-0.01,2.30,2.30,2.30
29.19,2.30,-0.00,2.30,-0.00,0.01,-0.03,-0.01,2.30,2.30,2.30
29.48,2.30,-0.01,2.30,-0.01,0.00,-0.03,-0.01,2.30,2.30,2.31
29.78,2.30,-0.00,2.30,-0.01,0.00,-0.04,-0.01,2.30,2.30,2.30
30.08,2.30,-0.01,2.30,-0.00,-0.00,-0.04,-0.01,2.29,2.29,2.30
30.38,2.30,0.01,2.30,0.01,-0.01,-0.04,-0.02,2.29,2.29,2.28
30.68,2.30,0.01,2.30,0.01,-0.01,-0.04,-0.02,2.28,2.28,2.28
30.99,2.30,0.02,2.30,0.02,-0.02,-0.05,-0.02,2.28,2.28,2.27
31.30,2.30,0.03,2.30,0.03,-0.03,-0.05,-0.02,2.27,2.27,2.27
31.61,2.30,0.03,2.30,0.04,-0.04,-0.05,-0.02,2.26,2.26,2.27
31.93,2.30,0.05,2.30,0.04,-0.05,-0.06,-0.02,2.25,2.25,2.25
32.24,2.30,0.06,2.30,0.05,-0.06,-0.06,-0.02,2.24,2.24,2.24
32.57,2.30,0.06,2.30,0.07,-0.07,-0.07,-0.02,2.23,2.23,2.23
32.89,2.30,0.07,2.30,0.08,-0.08,-0.07,-0.02,2.22,2.22,2.22
33.22,2.30,0.10,2.30,0.09,-0.09,-0.07,-0.02,2.21,2.21,2.20
33.55,2.30,0.10,2.30,0.10,-0.10,-0.08,-0.02,2.19,2.19,2.20
33.89,2.30,0.12,2.30,0.11,-0.11,-0.08,-0.02,2.18,2.18,2.18
34.23,2.30,0.12,2.30,0.13,-0.13,-0.09,-0.02,2.17,2.17,2.17
34.57,2.30,0.14,2.30,0.14,-0.14,-0.09,-0.02,2.16,2.16,2.15
34.92,2.30,0.16,2.30,0.15,-0.15,-0.10,-0.02,2.14,2.14,2.14
35.27,2.30,0.16,2.30,0.17,-0.17,-0.10,-0.02,2.13,2.13,2.14
35.62,2.30,0.18,2.30,0.18,-0.18,-0.11,-0.02,2.12,2.12,2.12
35.97,2.30,0.19,2.30,0.19,-0.19,-0.11,-0.02,2.11,2.11,2.10
36.33,2.30,0.19,2.30,0.20,-0.20,-0.12,-0.03,2.10,2.10,2.10
36.70,2.30,0.21,2.30,0.21,-0.20,-0.13,-0.03,2.09,2.09,2.09
37.06,2.30,0.22,2.30,0.21,-0.21,-0.13,-0.03,2.08,2.08,2.08
37.43,2.30,0.21,2.30,0.22,-0.22,-0.14,-0.03,2.07,2.07,2.08
37.81,2.30,0.22,2.30,0.23,-0.24,-0.15,-0.03,2.06,2.06,2.07
38.19,2.30,0.24,2.30,0.23,-0.24,-0.15,-0.03,2.05,2.05,2.06
38.57,2.30,0.23,2.30,0.24,-0.24,-0.16,-0.03,2.05,2.05,2.06
38.95,2.30,0.24,2.30,0.25,-0.23,-0.17,-0.03,2.06,2.07,2.05
39.34,2.30,0.25,2.30,0.26,-0.21,-0.18,-0.03,2.08,2.09,2.05
39.74,2.30,0.26,2.29,0.25,-0.20,-0.18,-0.03,2.10,2.10,2.04
40.14,2.27,0.23,2.24,0.20,-0.18,-0.19,-0.03,2.08,2.05,2.03
40.54,2.18,0.15,2.17,0.14,-0.18,-0.20,-0.04,2.00,1.99,2.03
40.94,2.08,0.05,2.12,0.10,-0.18,-0.21,-0.04,1.90,1.94,2.02
41.35,2.12,0.11,2.12,0.11,-0.19,-0.22,-0.04,1.93,1.93,2.01
41.76,2.18,0.18,2.16,0.16,-0.19,-0.23,-0.04,1.98,1.97,2.00
42.18,2.23,0.23,2.23,0.24,-0.20,-0.23,-0.04,2.03,2.03,1.99
42.60,2.27,0.29,2.27,0.29,-0.21,-0.24,-0.04,2.05,2.06,1.98
43.03,2.30,0.32,2.26,0.29,-0.23,-0.25,-0.04,2.07,2.03,1.97
43.46,2.22,0.27,2.21,0.26,-0.24,-0.26,-0.04,1.97,1.97,1.95
43.90,2.13,0.20,2.16,0.23,-0.25,-0.26,-0.05,1.87,1.90,1.92
44.33,2.11,0.20,2.11,0.20,-0.25,-0.27,-0.05,1.85,1.86,1.91
44.78,2.11,0.22,2.10,0.21,-0.25,-0.28,-0.05,1.86,1.85,1.88
45.23,2.11,0.24,2.10,0.24,-0.24,-0.28,-0.05,1.87,1.87,1.87
45.68,2.11,0.25,2.11,0.25,-0.24,-0.29,-0.05,1.87,1.87,1.85
46.13,2.11,0.27,2.11,0.27,-0.25,-0.29,-0.05,1.85,1.85,1.84
46.60,2.11,0.27,2.11,0.28,-0.28,-0.30,-0.05,1.83,1.83,1.83
47.06,2.11,0.28,2.10,0.28,-0.30,-0.30,-0.06,1.81,1.80,1.82
47.53,2.11,0.29,2.10,0.28,-0.31,-0.30,-0.06,1.79,1.79,1.82
48.01,2.11,0.29,2.13,0.32,-0.32,-0.30,-0.06,1.79,1.81,1.81
48.49,2.15,0.35,2.15,0.36,-0.32,-0.30,-0.06,1.83,1.84,1.79
48.97,2.20,0.42,2.14,0.36,-0.31,-0.30,-0.06,1.88,1.83,1.78
49.46,2.11,0.34,2.11,0.34,-0.31,-0.30,-0.06,1.80,1.80,1.77
49.96,2.02,0.26,2.05,0.29,-0.31,-0.30,-0.07,1.71,1.74,1.75
50.46,2.01,0.24,2.00,0.25,-0.30,-0.29,-0.07,1.70,1.70,1.76
50.96,2.01,0.25,1.99,0.24,-0.30,-0.29,-0.07,1.71,1.70,1.76
51.47,2.01,0.26,2.00,0.25,-0.28,-0.28,-0.07,1.73,1.73,1.75
51.99,2.01,0.27,2.04,0.29,-0.26,-0.27,-0.07,1.75,1.78,1.74
52.51,2.06,0.32,2.05,0.31,-0.24,-0.26,-0.07,1.81,1.81,1.74
53.03,2.09,0.34,2.02,0.28,-0.23,-0.25,-0.07,1.85,1.79,1.74
53.56,1.95,0.21,1.96,0.23,-0.22,-0.24,-0.08,1.72,1.74,1.73
54.10,1.85,0.13,1.90,0.17,-0.22,-0.23,-0.08,1.63,1.68,1.72
54.64,1.88,0.15,1.86,0.15,-0.21,-0.22,-0.08,1.66,1.65,1.72
55.18,1.90,0.19,1.88,0.17,-0.21,-0.21,-0.08,1.69,1.67,1.71
55.74,1.91,0.21,1.91,0.21,-0.21,-0.20,-0.08,1.70,1.70,1.70
56.29,1.92,0.22,1.91,0.22,-0.21,-0.18,-0.08,1.71,1.71,1.70
56.86,1.92,0.24,1.92,0.24,-0.21,-0.17,-0.08,1.70,1.71,1.68
57.42,1.91,0.24,1.91,0.24,-0.21,-0.15,-0.08,1.69,1.69,1.66
58.00,1.90,0.24,1.88,0.23,-0.21,-0.14,-0.08,1.69,1.67,1.65
58.58,1.84,0.20,1.84,0.20,-0.20,-0.12,-0.08,1.64,1.65,1.64
59.16,1.79,0.16,1.79,0.17,-0.17,-0.11,-0.08,1.61,1.62,1.62
59.76,1.74,0.14,1.73,0.13,-0.15,-0.09,-0.08,1.59,1.58,1.60
60.35,1.68,0.10,1.67,0.10,-0.12,-0.07,-0.08,1.56,1.56,1.58
60.96,1.61,0.05,1.61,0.07,-0.08,-0.06,-0.08,1.53,1.53,1.55
61.57,1.56,0.05,1.56,0.05,-0.04,-0.04,-0.08,1.52,1.52,1.51
62.18,1.50,0.02,1.50,0.03,-0.00,-0.02,-0.08,1.49,1.50,1.47
62.80,1.45,0.01,1.44,0.00,0.03,0.00,-0.07,1.47,1.47,1.43
63.43,1.36,-0.04,1.34,-0.05,0.05,0.02,-0.07,1.41,1.40,1.40
64.07,1.26,-0.11,1.24,-0.12,0.07,0.04,-0.07,1.33,1.32,1.36
64.71,1.14,-0.19,1.18,-0.15,0.09,0.07,-0.07,1.23,1.27,1.32
65.35,1.13,-0.17,1.15,-0.14,0.12,0.09,-0.06,1.24,1.26,1.30
66.01,1.19,-0.07,1.13,-0.13,0.14,0.12,-0.06,1.33,1.27,1.26
66.67,1.10,-0.12,1.10,-0.12,0.17,0.14,-0.06,1.27,1.27,1.22
67.33,1.02,-0.17,1.03,-0.15,0.21,0.17,-0.05,1.23,1.25,1.19
68.01,0.94,-0.21,0.94,-0.21,0.25,0.20,-0.05,1.18,1.19,1.15
68.69,0.86,-0.25,0.82,-0.28,0.28,0.23,-0.04,1.14,1.11,1.11
69.37,0.72,-0.34,0.72,-0.34,0.32,0.26,-0.04,1.05,1.04,1.07
70.07,0.57,-0.46,0.63,-0.39,0.35,0.29,-0.03,0.92,0.99,1.02
70.77,0.61,-0.39,0.54,-0.45,0.38,0.33,-0.03,0.99,0.92,0.99
71.48,0.52,-0.43,0.52,-0.43,0.40,0.36,-0.02,0.91,0.92,0.95
72.19,0.45,-0.46,0.52,-0.39,0.40,0.39,-0.02,0.85,0.92,0.91
72.91,0.56,-0.30,0.48,-0.38,0.40,0.42,-0.01,0.95,0.87,0.85
73.64,0.45,-0.36,0.45,-0.36,0.38,0.44,-0.01,0.83,0.84,0.81
74.38,0.38,-0.39,0.41,-0.35,0.37,0.46,-0.00,0.75,0.78,0.76
75.12,0.36,-0.36,0.34,-0.38,0.36,0.48,0.00,0.72,0.70,0.72
75.87,0.30,-0.38,0.31,-0.37,0.37,0.49,0.01,0.66,0.68,0.68
76.63,0.28,-0.37,0.27,-0.37,0.39,0.50,0.02,0.66,0.66,0.64
77.40,0.23,-0.38,0.21,-0.39,0.42,0.49,0.02,0.65,0.63,0.61
78.17,0.14,-0.43,0.15,-0.42,0.45,0.49,0.03,0.59,0.61,0.57
78.95,0.08,-0.46,0.07,-0.47,0.49,0.47,0.04,0.56,0.56,0.54
79.74,0.01,-0.51,-0.01,-0.52,0.51,0.46,0.05,0.52,0.50,0.51
80.54,-0.09,-0.58,-0.09,-0.57,0.53,0.43,0.05,0.44,0.44,0.48
81.35,-0.16,-0.61,-0.14,-0.59,0.54,0.41,0.06,0.38,0.40,0.45
82.16,-0.16,-0.58,-0.15,-0.58,0.55,0.38,0.07,0.38,0.39,0.42
82.98,-0.11,-0.51,-0.14,-0.53,0.54,0.36,0.07,0.42,0.40,0.40
83.81,-0.11,-0.47,-0.12,-0.48,0.51,0.33,0.08,0.39,0.39,0.36
84.65,-0.11,-0.44,-0.11,-0.44,0.46,0.30,0.09,0.35,0.35,0.33
85.50,-0.11,-0.42,-0.12,-0.42,0.40,0.27,0.10,0.29,0.28,0.30
86.35,-0.11,-0.38,-0.12,-0.38,0.35,0.25,0.11,0.23,0.23,0.27
87.22,-0.09,-0.33,-0.06,-0.30,0.29,0.23,0.11,0.20,0.23,0.24
88.09,-0.01,-0.22,-0.00,-0.21,0.24,0.20,0.12,0.22,0.23,0.20
88.97,0.11,-0.07,0.03,-0.15,0.18,0.18,0.13,0.29,0.21,0.18
89.86,0.02,-0.13,0.04,-0.10,0.12,0.16,0.14,0.14,0.16,0.14
90.76,-0.01,-0.12,0.03,-0.08,0.05,0.15,0.15,0.04,0.09,0.11
91.66,0.06,-0.03,0.03,-0.04,-0.01,0.13,0.16,0.04,0.02,0.08
92.58,0.09,0.04,0.09,0.04,-0.07,0.11,0.17,0.01,0.02,0.05
93.51,0.14,0.12,0.14,0.12,-0.12,0.10,0.18,0.02,0.02,0.02
94.44,0.19,0.19,0.17,0.18,-0.16,0.09,0.18,0.03,0.02,-0.01
95.39,0.19,0.22,0.19,0.23,-0.18,0.07,0.19,0.00,0.01,-0.03
96.34,0.18,0.25,0.18,0.25,-0.20,0.06,0.20,-0.02,-0.01,-0.07
97.30,0.16,0.25,0.12,0.22,-0.20,0.05,0.21,-0.04,-0.08,-0.10
98.28,0.06,0.18,0.05,0.18,-0.18,0.04,0.22,-0.13,-0.13,-0.13
99.26,-0.06,0.08,0.01,0.16,-0.17,0.04,0.23,-0.23,-0.16,-0.15
100.25,-0.01,0.16,-0.06,0.12,-0.16,0.03,0.24,-0.17,-0.21,-0.17
101.25,-0.04,0.17,-0.10,0.10,-0.15,0.02,0.25,-0.18,-0.25,-0.20
102.27,-0.21,0.02,-0.13,0.11,-0.14,0.02,0.26,-0.36,-0.27,-0.23
103.29,-0.15,0.12,-0.16,0.11,-0.14,0.01,0.27,-0.29,-0.30,-0.28
104.32,-0.12,0.17,-0.13,0.17,-0.14,0.00,0.27,-0.26,-0.27,-0.30
105.37,-0.11,0.22,-0.10,0.23,-0.16,-0.00,0.28,-0.27,-0.26,-0.33
106.42,-0.09,0.27,-0.17,0.19,-0.17,-0.00,0.29,-0.27,-0.35,-0.36
107.48,-0.27,0.13,-0.26,0.14,-0.18,-0.01,0.30,-0.45,-0.44,-0.40
108.56,-0.42,0.02,-0.33,0.11,-0.16,-0.01,0.31,-0.59,-0.49,-0.44
109.64,-0.33,0.14,-0.36,0.11,-0.13,-0.01,0.31,-0.46,-0.49,-0.48
110.74,-0.32,0.18,-0.35,0.15,-0.08,-0.02,0.32,-0.41,-0.43,-0.51
111.85,-0.38,0.15,-0.39,0.15,-0.03,-0.02,0.32,-0.42,-0.43,-0.53
112.97,-0.52,0.06,-0.56,0.01,0.01,-0.02,0.33,-0.51,-0.55,-0.58
114.10,-0.73,-0.14,-0.73,-0.13,0.05,-0.02,0.33,-0.69,-0.69,-0.60
115.24,-0.94,-0.31,-0.82,-0.18,0.09,-0.02,0.34,-0.86,-0.73,-0.64
116.39,-0.82,-0.16,-0.86,-0.20,0.13,-0.02,0.34,-0.70,-0.73,-0.66
117.55,-0.75,-0.07,-0.84,-0.15,0.17,-0.01,0.34,-0.59,-0.67,-0.69
118.73,-0.90,-0.19,-0.83,-0.12,0.21,-0.01,0.34,-0.69,-0.62,-0.72
119.92,-0.88,-0.16,-0.92,-0.19,0.24,-0.01,0.34,-0.64,-0.67,-0.72
121.12,-0.98,-0.24,-1.01,-0.26,0.26,-0.00,0.34,-0.72,-0.74,-0.75
122.33,-1.10,-0.34,-1.04,-0.28,0.29,0.00,0.34,-0.82,-0.75,-0.76
123.55,-1.10,-0.34,-1.11,-0.33,0.32,0.01,0.34,-0.79,-0.79,-0.77
124.79,-1.07,-0.28,-1.16,-0.37,0.35,0.02,0.33,-0.73,-0.81,-0.79
126.03,-1.24,-0.44,-1.19,-0.39,0.37,0.03,0.33,-0.88,-0.83,-0.81
127.29,-1.25,-0.43,-1.23,-0.40,0.37,0.04,0.32,-0.88,-0.86,-0.82
128.57,-1.22,-0.38,-1.24,-0.40,0.36,0.06,0.31,-0.86,-0.88,-0.84
129.85,-1.18,-0.33,-1.20,-0.34,0.34,0.07,0.30,-0.84,-0.86,-0.86
131.15,-1.18,-0.31,-1.18,-0.31,0.32,0.09,0.29,-0.86,-0.86,-0.87
132.46,-1.17,-0.29,-1.16,-0.28,0.30,0.12,0.28,-0.87,-0.86,-0.88
133.79,-1.14,-0.26,-1.16,-0.27,0.29,0.14,0.27,-0.85,-0.87,-0.88
135.12,-1.15,-0.24,-1.17,-0.27,0.29,0.18,0.26,-0.86,-0.88,-0.91
136.48,-1.21,-0.30,-1.20,-0.28,0.31,0.21,0.24,-0.91,-0.90,-0.91
137.84,-1.25,-0.32,-1.26,-0.32,0.33,0.25,0.23,-0.93,-0.93,-0.93
139.22,-1.31,-0.35,-1.32,-0.36,0.36,0.30,0.21,-0.95,-0.96,-0.96
140.61,-1.38,-0.40,-1.38,-0.41,0.40,0.35,0.20,-0.99,-0.99,-0.98
142.02,-1.44,-0.46,-1.45,-0.46,0.43,0.40,0.18,-1.01,-1.02,-0.98
143.44,-1.51,-0.52,-1.50,-0.50,0.47,0.47,0.16,-1.04,-1.03,-1.00
144.87,-1.54,-0.52,-1.53,-0.51,0.50,0.53,0.14,-1.04,-1.03,-1.02
146.32,-1.54,-0.49,-1.56,-0.51,0.53,0.60,0.13,-1.02,-1.03,-1.05
147.78,-1.58,-0.51,-1.61,-0.53,0.55,0.66,0.11,-1.04,-1.07,-1.08
149.26,-1.68,-0.57,-1.69,-0.57,0.56,0.71,0.09,-1.12,-1.13,-1.11
150.75,-1.80,-0.64,-1.76,-0.60,0.58,0.76,0.07,-1.22,-1.18,-1.17
152.26,-1.83,-0.62,-1.83,-0.62,0.61,0.78,0.04,-1.22,-1.22,-1.21
153.78,-1.85,-0.59,-1.88,-0.62,0.66,0.79,0.02,-1.20,-1.23,-1.26
155.32,-1.96,-0.64,-1.95,-0.63,0.71,0.77,0.00,-1.25,-1.24,-1.33
156.88,-2.05,-0.67,-2.08,-0.69,0.77,0.74,-0.02,-1.29,-1.31,-1.38
158.44,-2.22,-0.77,-2.23,-0.78,0.81,0.67,-0.04,-1.42,-1.42,-1.45
160.03,-2.37,-0.86,-2.36,-0.85,0.83,0.60,-0.06,-1.55,-1.54,-1.51
161.63,-2.47,-0.91,-2.46,-0.90,0.81,0.51,-0.09,-1.66,-1.66,-1.56
163.24,-2.47,-0.85,-2.48,-0.86,0.75,0.42,-0.11,-1.72,-1.73,-1.62
164.88,-2.42,-0.77,-2.40,-0.74,0.64,0.33,-0.13,-1.78,-1.76,-1.65
166.53,-2.24,-0.55,-2.25,-0.56,0.49,0.23,-0.16,-1.75,-1.76,-1.69
168.19,-2.05,-0.33,-2.06,-0.34,0.30,0.15,-0.18,-1.75,-1.76,-1.72
169.87,-1.83,-0.08,-1.83,-0.08,0.10,0.06,-0.21,-1.74,-1.73,-1.75
171.57,-1.61,0.15,-1.59,0.17,-0.10,-0.02,-0.23,-1.72,-1.69,-1.77
173.29,-1.37,0.40,-1.39,0.39,-0.28,-0.09,-0.25,-1.65,-1.67,-1.77
175.02,-1.20,0.58,-1.25,0.53,-0.42,-0.16,-0.28,-1.63,-1.67,-1.78
176.77,-1.20,0.58,-1.19,0.60,-0.53,-0.23,-0.30,-1.73,-1.71,-1.79
178.54,-1.20,0.59,-1.19,0.60,-0.59,-0.29,-0.33,-1.80,-1.78,-1.79
180.32,-1.19,0.58,-1.20,0.58,-0.63,-0.35,-0.36,-1.82,-1.82,-1.78
182.13,-1.19,0.58,-1.19,0.58,-0.64,-0.40,-0.38,-1.83,-1.83,-1.77
183.95,-1.18,0.59,-1.18,0.59,-0.63,-0.46,-0.41,-1.82,-1.82,-1.78
185.79,-1.17,0.61,-1.17,0.61,-0.63,-0.51,-0.43,-1.81,-1.80,-1.78
187.65,-1.15,0.64,-1.16,0.63,-0.64,-0.56,-0.46,-1.79,-1.79,-1.80
189.52,-1.14,0.65,-1.15,0.66,-0.65,-0.61,-0.49,-1.79,-1.80,-1.80
191.42,-1.13,0.68,-1.13,0.68,-0.68,-0.65,-0.51,-1.81,-1.81,-1.81
193.33,-1.11,0.71,-1.11,0.71,-0.71,-0.70,-0.54,-1.82,-1.82,-1.82
195.27,-1.09,0.74,-1.10,0.74,-0.75,-0.74,-0.57,-1.84,-1.85,-1.84
197.22,-1.08,0.77,-1.09,0.77,-0.78,-0.78,-0.59,-1.87,-1.87,-1.86
199.19,-1.07,0.80,-1.06,0.81,-0.82,-0.82,-0.62,-1.90,-1.89,-1.88
201.18,-1.03,0.85,-1.03,0.86,-0.86,-0.86,-0.65,-1.90,-1.89,-1.89
203.19,-0.98,0.92,-1.00,0.91,-0.90,-0.90,-0.67,-1.88,-1.90,-1.90
205.23,-0.96,0.97,-0.97,0.95,-0.93,-0.93,-0.70,-1.90,-1.90,-1.93
207.28,-0.96,0.97,-0.96,0.98,-0.96,-0.96,-0.73,-1.93,-1.92,-1.93
209.35,-0.96,0.99,-0.96,1.00,-0.99,-0.99,-0.75,-1.95,-1.95,-1.96
211.44,-0.96,1.01,-0.97,1.01,-1.01,-1.01,-0.78,-1.97,-1.98,-1.98
213.56,-0.97,1.01,-0.97,1.02,-1.02,-1.03,-0.81,-2.00,-1.99,-1.99
215.69,-0.97,1.02,-0.97,1.02,-1.03,-1.05,-0.83,-2.00,-2.00,-2.00
217.85,-0.97,1.03,-0.98,1.03,-1.03,-1.06,-0.86,-2.01,-2.01,-2.00
220.03,-0.98,1.04,-0.98,1.04,-1.03,-1.07,-0.88,-2.02,-2.01,-2.02
222.23,-0.98,1.05,-0.98,1.04,-1.03,-1.07,-0.90,-2.01,-2.01,-2.03
224.45,-0.98,1.03,-0.99,1.04,-1.02,-1.08,-0.92,-2.01,-2.01,-2.02
226.70,-0.98,1.03,-0.98,1.03,-1.02,-1.07,-0.95,-2.01,-2.01,-2.01
228.96,-0.98,1.03,-0.98,1.03,-1.03,-1.07,-0.97,-2.01,-2.01,-2.01
231.25,-0.97,1.02,-0.99,1.01,-1.04,-1.06,-0.98,-2.02,-2.03,-2.00
233.57,-0.96,1.02,-0.97,1.02,-1.06,-1.05,-1.00,-2.02,-2.03,-1.98
235.90,-0.95,1.02,-0.91,1.05,-1.08,-1.04,-1.02,-2.03,-1.99,-1.97
238.26,-0.83,1.11,-0.84,1.11,-1.10,-1.03,-1.03,-1.94,-1.94,-1.95
240.64,-0.73,1.19,-0.77,1.15,-1.13,-1.02,-1.05,-1.86,-1.89,-1.92
243.05,-0.71,1.17,-0.71,1.18,-1.15,-1.01,-1.06,-1.86,-1.86,-1.89
245.48,-0.69,1.17,-0.68,1.18,-1.16,-0.99,-1.07,-1.86,-1.85,-1.86
247.93,-0.66,1.17,-0.67,1.17,-1.17,-0.98,-1.08,-1.84,-1.84,-1.84
250.41,-0.64,1.18,-0.64,1.17,-1.17,-0.97,-1.09,-1.82,-1.82,-1.82
252.92,-0.62,1.16,-0.63,1.17,-1.17,-0.96,-1.09,-1.79,-1.79,-1.79
255.45,-0.61,1.15,-0.61,1.16,-1.15,-0.95,-1.10,-1.77,-1.77,-1.76
258.00,-0.60,1.14,-0.61,1.14,-1.14,-0.94,-1.10,-1.75,-1.75,-1.75
260.58,-0.60,1.13,-0.61,1.12,-1.14,-0.93,-1.10,-1.74,-1.75,-1.73
263.19,-0.60,1.10,-0.60,1.11,-1.13,-0.92,-1.10,-1.74,-1.73,-1.71
265.82,-0.60,1.09,-0.58,1.11,-1.13,-0.91,-1.10,-1.73,-1.71,-1.69
268.48,-0.53,1.13,-0.55,1.11,-1.12,-0.90,-1.09,-1.65,-1.67,-1.66
271.16,-0.51,1.12,-0.52,1.12,-1.10,-0.90,-1.09,-1.61,-1.62,-1.64
273.87,-0.51,1.11,-0.50,1.12,-1.08,-0.89,-1.09,-1.59,-1.58,-1.62
276.61,-0.51,1.08,-0.51,1.08,-1.05,-0.89,-1.08,-1.56,-1.56,-1.60
279.38,-0.51,1.05,-0.55,1.02,-1.02,-0.88,-1.07,-1.53,-1.56,-1.57
282.17,-0.60,0.95,-0.58,0.97,-0.98,-0.88,-1.06,-1.59,-1.56,-1.55
284.99,-0.62,0.89,-0.60,0.91,-0.95,-0.88,-1.06,-1.57,-1.55,-1.52
287.84,-0.59,0.89,-0.61,0.88,-0.91,-0.88,-1.05,-1.51,-1.52,-1.49
290.72,-0.58,0.87,-0.59,0.86,-0.88,-0.88,-1.04,-1.46,-1.47,-1.45
293.63,-0.57,0.85,-0.57,0.85,-0.84,-0.88,-1.03,-1.42,-1.41,-1.42
296.57,-0.56,0.82,-0.56,0.84,-0.81,-0.88,-1.02,-1.37,-1.36,-1.39
299.53,-0.55,0.82,-0.55,0.82,-0.77,-0.88,-1.01,-1.33,-1.32,-1.37
302.53,-0.53,0.81,-0.57,0.77,-0.75,-0.88,-1.00,-1.28,-1.31,-1.34
305.55,-0.60,0.70,-0.59,0.72,-0.72,-0.89,-0.99,-1.33,-1.32,-1.30
308.61,-0.64,0.64,-0.62,0.67,-0.71,-0.89,-0.98,-1.35,-1.33,-1.29
311.69,-0.61,0.66,-0.63,0.63,-0.69,-0.89,-0.97,-1.31,-1.32,-1.27
314.81,-0.60,0.63,-0.59,0.65,-0.68,-0.90,-0.96,-1.28,-1.27,-1.23
317.96,-0.55,0.67,-0.54,0.68,-0.67,-0.90,-0.95,-1.23,-1.21,-1.22
321.14,-0.47,0.73,-0.50,0.70,-0.67,-0.91,-0.94,-1.14,-1.17,-1.21
324.35,-0.47,0.72,-0.48,0.71,-0.67,-0.91,-0.93,-1.14,-1.15,-1.20
327.59,-0.50,0.68,-0.49,0.69,-0.67,-0.92,-0.92,-1.17,-1.15,-1.18
330.87,-0.50,0.67,-0.51,0.67,-0.66,-0.92,-0.92,-1.17,-1.17,-1.17
334.18,-0.51,0.65,-0.51,0.65,-0.65,-0.93,-0.91,-1.17,-1.17,-1.16
337.52,-0.51,0.64,-0.51,0.64,-0.65,-0.93,-0.90,-1.16,-1.16,-1.15
340.90,-0.51,0.62,-0.52,0.62,-0.65,-0.94,-0.90,-1.16,-1.17,-1.14
344.30,-0.51,0.61,-0.52,0.61,-0.65,-0.95,-0.89,-1.16,-1.17,-1.13
347.75,-0.51,0.61,-0.49,0.63,-0.65,-0.95,-0.89,-1.17,-1.14,-1.12
351.23,-0.44,0.67,-0.44,0.67,-0.66,-0.96,-0.89,-1.11,-1.10,-1.11
354.74,-0.36,0.75,-0.40,0.71,-0.68,-0.97,-0.88,-1.04,-1.08,-1.11
358.28,-0.37,0.73,-0.37,0.73,-0.69,-0.98,-0.88,-1.07,-1.07,-1.10
361.87,-0.39,0.71,-0.38,0.72,-0.71,-0.98,-0.88,-1.10,-1.09,-1.11
365.49,-0.39,0.70,-0.39,0.70,-0.72,-0.99,-0.88,-1.12,-1.12,-1.10
369.14,-0.39,0.70,-0.40,0.70,-0.74,-1.00,-0.88,-1.13,-1.13,-1.10
372.83,-0.38,0.71,-0.38,0.71,-0.74,-1.01,-0.88,-1.13,-1.12,-1.10
376.56,-0.37,0.73,-0.35,0.74,-0.74,-1.02,-0.88,-1.12,-1.09,-1.10
380.33,-0.30,0.78,-0.33,0.76,-0.74,-1.02,-0.88,-1.04,-1.07,-1.08
384.13,-0.30,0.79,-0.32,0.77,-0.73,-1.03,-0.89,-1.04,-1.06,-1.09
387.97,-0.35,0.74,-0.33,0.76,-0.73,-1.04,-0.89,-1.08,-1.06,-1.09
391.85,-0.36,0.73,-0.35,0.74,-0.72,-1.05,-0.89,-1.09,-1.08,-1.09
395.77,-0.35,0.73,-0.39,0.70,-0.73,-1.06,-0.90,-1.08,-1.11,-1.08
399.73,-0.39,0.69,-0.41,0.68,-0.73,-1.07,-0.90,-1.12,-1.14,-1.09
403.72,-0.45,0.64,-0.40,0.69,-0.74,-1.07,-0.91,-1.19,-1.14,-1.10
407.76,-0.37,0.72,-0.37,0.72,-0.75,-1.08,-0.92,-1.12,-1.12,-1.10
411.84,-0.28,0.80,-0.32,0.78,-0.76,-1.09,-0.92,-1.05,-1.08,-1.09
415.96,-0.26,0.83,-0.27,0.83,-0.78,-1.10,-0.93,-1.04,-1.05,-1.10
420.12,-0.26,0.84,-0.26,0.84,-0.79,-1.11,-0.94,-1.06,-1.05,-1.10
424.32,-0.26,0.83,-0.26,0.83,-0.81,-1.12,-0.94,-1.07,-1.07,-1.09
428.56,-0.25,0.84,-0.25,0.84,-0.83,-1.13,-0.95,-1.09,-1.08,-1.09
432.85,-0.23,0.84,-0.24,0.83,-0.86,-1.13,-0.96,-1.09,-1.10,-1.07
437.18,-0.20,0.85,-0.23,0.82,-0.89,-1.14,-0.97,-1.09,-1.11,-1.05
441.55,-0.20,0.81,-0.16,0.86,-0.92,-1.15,-0.97,-1.12,-1.07,-1.01
445.96,-0.07,0.91,-0.05,0.93,-0.95,-1.16,-0.98,-1.03,-1.00,-0.98
450.42,0.13,1.08,0.07,1.01,-0.99,-1.17,-0.99,-0.86,-0.92,-0.95
454.93,0.18,1.07,0.18,1.08,-1.03,-1.18,-0.99,-0.85,-0.85,-0.89
459.48,0.24,1.09,0.25,1.10,-1.06,-1.18,-1.00,-0.82,-0.81,-0.86
464.07,0.30,1.09,0.30,1.09,-1.08,-1.19,-1.01,-0.79,-0.79,-0.80
468.71,0.35,1.09,0.36,1.10,-1.09,-1.20,-1.01,-0.75,-0.74,-0.75
473.40,0.42,1.11,0.40,1.09,-1.09,-1.21,-1.02,-0.68,-0.70,-0.70
478.13,0.44,1.08,0.42,1.07,-1.08,-1.21,-1.02,-0.65,-0.66,-0.65
482.91,0.43,1.03,0.46,1.06,-1.07,-1.22,-1.03,-0.65,-0.61,-0.61
