frequency,raw,error,smoothed,error_smoothed,equalization,parametric_eq,fixed_band_eq,equalized_raw,equalized_smoothed,target
20.00,-2.95,-6.98,-2.96,-6.99,6.00,6.03,2.51,3.05,3.04,4.03
20.20,-2.90,-6.91,-2.90,-6.92,6.00,6.02,2.58,3.10,3.10,4.01
20.40,-2.86,-6.86,-2.85,-6.85,6.00,6.01,2.66,3.14,3.15,4.00
20.61,-2.81,-6.80,-2.81,-6.79,6.00,6.01,2.74,3.19,3.19,3.99
20.81,-2.76,-6.73,-2.76,-6.74,6.00,6.00,2.82,3.24,3.24,3.97
21.02,-2.72,-6.68,-2.73,-6.69,6.00,5.99,2.90,3.28,3.27,3.96
21.23,-2.72,-6.67,-2.72,-6.67,6.00,5.99,2.98,3.28,3.28,3.95
21.44,-2.72,-6.66,-2.72,-6.66,6.00,5.98,3.07,3.28,3.28,3.94
21.66,-2.72,-6.65,-2.73,-6.65,6.00,5.97,3.16,3.28,3.27,3.93
21.87,-2.72,-6.64,-2.72,-6.64,6.00,5.97,3.25,3.28,3.28,3.92
22.09,-2.70,-6.62,-2.69,-6.61,6.00,5.96,3.35,3.30,3.31,3.92
22.31,-2.65,-6.56,-2.65,-6.56,6.00,5.95,3.44,3.35,3.35,3.91
22.54,-2.60,-6.51,-2.60,-6.51,6.00,5.94,3.54,3.40,3.40,3.91
22.76,-2.55,-6.45,-2.55,-6.45,6.00,5.93,3.65,3.45,3.45,3.90
22.99,-2.50,-6.41,-2.50,-6.40,6.00,5.92,3.75,3.50,3.50,3.91
23.22,-2.45,-6.35,-2.45,-6.35,6.00,5.91,3.86,3.55,3.55,3.90
23.45,-2.39,-6.29,-2.39,-6.29,6.00,5.91,3.97,3.61,3.61,3.89
23.69,-2.34,-6.25,-2.34,-6.24,6.00,5.90,4.08,3.66,3.66,3.90
23.92,-2.29,-6.20,-2.30,-6.20,6.00,5.89,4.20,3.71,3.70,3.90
24.16,-2.27,-6.18,-2.28,-6.19,6.00,5.88,4.31,3.73,3.72,3.91
24.40,-2.27,-6.18,-2.27,-6.18,6.00,5.87,4.43,3.73,3.73,3.91
24.65,-2.27,-6.18,-2.27,-6.18,6.00,5.85,4.55,3.73,3.73,3.91
24.89,-2.27,-6.18,-2.27,-6.18,6.00,5.84,4.67,3.73,3.73,3.91
25.14,-2.26,-6.17,-2.26,-6.17,6.00,5.83,4.80,3.74,3.75,3.91
25.39,-2.23,-6.14,-2.24,-6.15,6.00,5.82,4.92,3.77,3.77,3.91
25.65,-2.21,-6.13,-2.21,-6.13,6.00,5.81,5.05,3.79,3.79,3.92
25.91,-2.19,-6.11,-2.19,-6.10,6.00,5.80,5.17,3.81,3.81,3.92
26.16,-2.16,-6.08,-2.16,-6.07,6.00,5.79,5.30,3.83,3.84,3.92
26.43,-2.12,-6.03,-2.12,-6.03,5.99,5.77,5.42,3.87,3.87,3.91
26.69,-2.08,-5.99,-2.08,-5.99,5.99,5.76,5.54,3.90,3.90,3.90
26.96,-2.05,-5.96,-2.06,-5.96,5.98,5.75,5.67,3.92,3.92,3.90
27.23,-2.04,-5.94,-2.04,-5.94,5.96,5.73,5.78,3.92,3.91,3.90
27.50,-2.04,-5.93,-2.05,-5.94,5.93,5.72,5.90,3.89,3.88,3.89
27.77,-2.04,-5.92,-2.04,-5.92,5.90,5.71,6.01,3.85,3.86,3.88
28.05,-2.03,-5.91,-2.02,-5.89,5.86,5.69,6.12,3.83,3.84,3.88
28.33,-1.96,-5.83,-1.96,-5.83,5.82,5.68,6.23,3.86,3.86,3.87
28.62,-1.90,-5.77,-1.90,-5.76,5.78,5.66,6.32,3.88,3.88,3.87
28.90,-1.83,-5.69,-1.84,-5.70,5.75,5.65,6.41,3.91,3.90,3.86
29.19,-1.81,-5.66,-1.82,-5.67,5.70,5.63,6.50,3.89,3.88,3.84
29.48,-1.81,-5.65,-1.81,-5.65,5.65,5.62,6.57,3.84,3.84,3.84
29.78,-1.81,-5.64,-1.81,-5.64,5.60,5.60,6.64,3.79,3.79,3.83
30.08,-1.79,-5.61,-1.78,-5.60,5.55,5.59,6.70,3.76,3.77,3.82
30.38,-1.72,-5.54,-1.72,-5.53,5.51,5.57,6.74,3.79,3.79,3.82
30.68,-1.65,-5.46,-1.65,-5.46,5.47,5.55,6.78,3.82,3.82,3.81
30.99,-1.58,-5.38,-1.60,-5.40,5.44,5.53,6.81,3.86,3.84,3.79
31.30,-1.58,-5.36,-1.58,-5.36,5.41,5.52,6.82,3.83,3.83,3.78
31.61,-1.58,-5.36,-1.57,-5.35,5.38,5.50,6.83,3.80,3.81,3.78
31.93,-1.58,-5.36,-1.58,-5.36,5.36,5.48,6.82,3.77,3.77,3.78
32.24,-1.58,-5.35,-1.59,-5.36,5.33,5.46,6.81,3.75,3.75,3.77
32.57,-1.58,-5.35,-1.59,-5.35,5.31,5.44,6.78,3.73,3.72,3.76
32.89,-1.58,-5.34,-1.57,-5.33,5.29,5.42,6.75,3.71,3.72,3.76
33.22,-1.53,-5.29,-1.52,-5.29,5.26,5.40,6.70,3.73,3.74,3.76
33.55,-1.46,-5.23,-1.46,-5.22,5.23,5.38,6.65,3.77,3.77,3.77
33.89,-1.38,-5.16,-1.40,-5.17,5.20,5.36,6.59,3.82,3.80,3.77
34.23,-1.36,-5.13,-1.37,-5.14,5.18,5.34,6.52,3.82,3.81,3.77
34.57,-1.36,-5.14,-1.36,-5.13,5.16,5.32,6.45,3.80,3.80,3.78
34.92,-1.36,-5.14,-1.36,-5.14,5.15,5.30,6.37,3.78,3.79,3.78
35.27,-1.36,-5.14,-1.36,-5.14,5.14,5.28,6.29,3.78,3.78,3.78
35.62,-1.36,-5.14,-1.36,-5.14,5.13,5.26,6.20,3.77,3.77,3.78
35.97,-1.36,-5.14,-1.36,-5.14,5.12,5.24,6.11,3.76,3.76,3.78
36.33,-1.35,-5.12,-1.36,-5.13,5.11,5.21,6.02,3.75,3.75,3.77
36.70,-1.34,-5.11,-1.34,-5.11,5.08,5.19,5.93,3.73,3.74,3.77
37.06,-1.32,-5.09,-1.30,-5.07,5.04,5.17,5.83,3.72,3.74,3.77
37.43,-1.24,-5.00,-1.24,-5.00,5.00,5.14,5.74,3.76,3.75,3.76
37.81,-1.17,-4.92,-1.18,-4.93,4.95,5.12,5.64,3.78,3.77,3.75
38.19,-1.13,-4.87,-1.14,-4.88,4.91,5.09,5.55,3.78,3.77,3.73
38.57,-1.13,-4.85,-1.13,-4.85,4.88,5.07,5.45,3.75,3.75,3.72
38.95,-1.13,-4.84,-1.13,-4.83,4.85,5.04,5.36,3.72,3.72,3.70
39.34,-1.13,-4.82,-1.13,-4.82,4.82,5.02,5.27,3.69,3.69,3.69
39.74,-1.13,-4.81,-1.13,-4.80,4.80,4.99,5.18,3.67,3.67,3.68
40.14,-1.13,-4.78,-1.14,-4.80,4.77,4.96,5.10,3.64,3.63,3.65
40.54,-1.13,-4.78,-1.14,-4.78,4.73,4.94,5.01,3.60,3.60,3.65
40.94,-1.13,-4.76,-1.10,-4.74,4.70,4.91,4.93,3.57,3.59,3.63
41.35,-1.05,-4.68,-1.04,-4.67,4.65,4.88,4.86,3.60,3.61,3.62
41.76,-0.95,-4.57,-0.97,-4.59,4.61,4.85,4.78,3.66,3.64,3.62
42.18,-0.90,-4.51,-0.92,-4.53,4.57,4.82,4.71,3.67,3.66,3.61
42.60,-0.90,-4.51,-0.89,-4.50,4.54,4.79,4.64,3.64,3.65,3.61
43.03,-0.90,-4.50,-0.90,-4.50,4.52,4.76,4.58,3.61,3.62,3.60
43.46,-0.90,-4.49,-0.90,-4.50,4.50,4.73,4.52,3.60,3.60,3.59
43.90,-0.90,-4.50,-0.90,-4.49,4.49,4.70,4.46,3.59,3.59,3.60
44.33,-0.90,-4.49,-0.90,-4.49,4.48,4.67,4.40,3.58,3.57,3.59
44.78,-0.90,-4.48,-0.90,-4.49,4.46,4.64,4.35,3.56,3.56,3.58
45.23,-0.89,-4.47,-0.89,-4.47,4.44,4.61,4.30,3.54,3.55,3.58
45.68,-0.86,-4.44,-0.86,-4.43,4.40,4.58,4.26,3.54,3.54,3.57
46.13,-0.82,-4.39,-0.81,-4.37,4.36,4.55,4.22,3.54,3.56,3.57
46.60,-0.74,-4.30,-0.74,-4.30,4.32,4.51,4.18,3.58,3.58,3.56
47.06,-0.67,-4.23,-0.69,-4.25,4.28,4.48,4.14,3.61,3.59,3.56
47.53,-0.67,-4.22,-0.67,-4.21,4.24,4.45,4.11,3.57,3.58,3.55
48.01,-0.67,-4.21,-0.66,-4.20,4.21,4.41,4.08,3.54,3.55,3.54
48.49,-0.67,-4.19,-0.67,-4.19,4.19,4.38,4.06,3.52,3.52,3.52
48.97,-0.67,-4.18,-0.67,-4.18,4.18,4.34,4.03,3.51,3.51,3.51
49.46,-0.67,-4.18,-0.67,-4.17,4.18,4.31,4.01,3.51,3.51,3.51
49.96,-0.67,-4.17,-0.67,-4.17,4.17,4.27,3.99,3.50,3.50,3.50
50.46,-0.67,-4.16,-0.67,-4.16,4.16,4.23,3.98,3.48,3.48,3.48
50.96,-0.67,-4.14,-0.68,-4.16,4.13,4.20,3.96,3.45,3.44,3.47
51.47,-0.67,-4.14,-0.68,-4.14,4.09,4.16,3.95,3.42,3.41,3.47
51.99,-0.67,-4.13,-0.63,-4.08,4.04,4.12,3.94,3.37,3.42,3.46
52.51,-0.55,-3.99,-0.56,-4.00,3.99,4.08,3.93,3.44,3.44,3.44
53.03,-0.44,-3.87,-0.48,-3.91,3.94,4.04,3.92,3.50,3.46,3.43
53.56,-0.44,-3.84,-0.44,-3.84,3.90,4.01,3.91,3.46,3.46,3.40
54.10,-0.44,-3.83,-0.43,-3.82,3.85,3.97,3.90,3.41,3.42,3.39
54.64,-0.44,-3.81,-0.44,-3.81,3.81,3.93,3.90,3.37,3.37,3.37
55.18,-0.44,-3.79,-0.44,-3.79,3.78,3.89,3.89,3.34,3.34,3.35
55.74,-0.44,-3.78,-0.44,-3.78,3.77,3.84,3.88,3.32,3.32,3.34
56.29,-0.44,-3.76,-0.44,-3.76,3.75,3.80,3.87,3.31,3.31,3.32
56.86,-0.44,-3.75,-0.44,-3.75,3.74,3.76,3.86,3.30,3.30,3.31
57.42,-0.44,-3.73,-0.44,-3.73,3.73,3.72,3.85,3.29,3.29,3.29
58.00,-0.44,-3.71,-0.44,-3.71,3.72,3.68,3.83,3.27,3.27,3.27
58.58,-0.44,-3.69,-0.44,-3.69,3.70,3.63,3.82,3.26,3.26,3.25
59.16,-0.44,-3.67,-0.44,-3.67,3.68,3.59,3.80,3.24,3.24,3.23
59.76,-0.44,-3.65,-0.44,-3.65,3.66,3.55,3.78,3.22,3.22,3.21
60.35,-0.44,-3.63,-0.45,-3.63,3.62,3.50,3.75,3.18,3.18,3.19
60.96,-0.44,-3.60,-0.45,-3.62,3.58,3.46,3.72,3.14,3.12,3.16
61.57,-0.44,-3.59,-0.43,-3.57,3.53,3.41,3.69,3.09,3.10,3.15
62.18,-0.40,-3.53,-0.37,-3.49,3.47,3.37,3.66,3.07,3.11,3.13
62.80,-0.26,-3.36,-0.30,-3.40,3.41,3.32,3.62,3.15,3.12,3.10
63.43,-0.22,-3.30,-0.24,-3.31,3.35,3.28,3.58,3.13,3.12,3.08
64.07,-0.22,-3.26,-0.21,-3.26,3.30,3.23,3.53,3.08,3.09,3.04
64.71,-0.22,-3.24,-0.22,-3.23,3.24,3.18,3.49,3.02,3.02,3.01
65.35,-0.22,-3.20,-0.22,-3.20,3.19,3.14,3.43,2.97,2.97,2.98
66.01,-0.22,-3.16,-0.22,-3.16,3.15,3.09,3.38,2.93,2.93,2.94
66.67,-0.22,-3.13,-0.22,-3.13,3.12,3.04,3.32,2.90,2.90,2.91
67.33,-0.22,-3.09,-0.22,-3.10,3.09,2.99,3.26,2.87,2.87,2.87
68.01,-0.22,-3.06,-0.22,-3.06,3.06,2.94,3.20,2.84,2.84,2.84
68.69,-0.22,-3.03,-0.22,-3.03,3.03,2.89,3.13,2.80,2.80,2.81
69.37,-0.22,-2.99,-0.22,-2.99,2.99,2.85,3.06,2.77,2.77,2.77
70.07,-0.22,-2.96,-0.22,-2.95,2.95,2.80,2.99,2.73,2.73,2.73
70.77,-0.22,-2.91,-0.22,-2.91,2.92,2.75,2.92,2.70,2.70,2.69
71.48,-0.22,-2.88,-0.22,-2.88,2.89,2.70,2.85,2.67,2.67,2.66
72.19,-0.22,-2.84,-0.22,-2.84,2.85,2.64,2.77,2.63,2.63,2.62
72.91,-0.22,-2.79,-0.22,-2.80,2.80,2.59,2.70,2.58,2.58,2.57
73.64,-0.22,-2.76,-0.23,-2.76,2.75,2.54,2.62,2.53,2.52,2.54
74.38,-0.22,-2.72,-0.23,-2.72,2.68,2.49,2.54,2.46,2.46,2.50
75.12,-0.21,-2.67,-0.20,-2.66,2.61,2.44,2.46,2.40,2.42,2.46
75.87,-0.16,-2.58,-0.14,-2.56,2.54,2.39,2.39,2.38,2.40,2.42
76.63,-0.05,-2.43,-0.07,-2.45,2.47,2.33,2.31,2.42,2.40,2.38
77.40,0.01,-2.34,-0.01,-2.36,2.40,2.28,2.23,2.41,2.39,2.35
78.17,0.01,-2.30,0.02,-2.29,2.33,2.23,2.15,2.34,2.35,2.30
78.95,0.01,-2.26,0.01,-2.25,2.27,2.18,2.07,2.28,2.29,2.27
79.74,0.01,-2.22,0.01,-2.22,2.22,2.12,2.00,2.22,2.22,2.23
80.54,0.01,-2.18,0.01,-2.18,2.17,2.07,1.92,2.18,2.18,2.19
81.35,0.01,-2.15,0.01,-2.14,2.13,2.01,1.85,2.14,2.14,2.16
82.16,0.01,-2.10,0.01,-2.10,2.09,1.96,1.77,2.10,2.10,2.11
82.98,0.01,-2.05,0.01,-2.06,2.05,1.91,1.70,2.06,2.06,2.06
83.81,0.01,-2.01,0.01,-2.01,2.01,1.85,1.62,2.01,2.01,2.01
84.65,0.01,-1.96,0.01,-1.96,1.95,1.80,1.55,1.96,1.96,1.97
85.50,0.01,-1.90,0.01,-1.90,1.90,1.74,1.48,1.91,1.91,1.91
86.35,0.01,-1.85,0.01,-1.85,1.85,1.69,1.41,1.86,1.86,1.86
87.22,0.01,-1.79,0.01,-1.79,1.79,1.63,1.34,1.80,1.80,1.80
88.09,0.01,-1.74,0.01,-1.73,1.73,1.58,1.27,1.74,1.74,1.74
88.97,0.01,-1.67,0.01,-1.68,1.68,1.52,1.20,1.68,1.68,1.68
89.86,0.01,-1.62,0.01,-1.62,1.62,1.47,1.13,1.63,1.63,1.63
90.76,0.01,-1.56,0.01,-1.56,1.56,1.41,1.07,1.57,1.57,1.57
91.66,0.01,-1.50,0.01,-1.50,1.50,1.36,1.00,1.51,1.51,1.51
92.58,0.01,-1.44,0.01,-1.44,1.44,1.30,0.94,1.45,1.45,1.45
93.51,0.01,-1.38,0.01,-1.38,1.38,1.25,0.87,1.39,1.39,1.39
94.44,0.01,-1.32,0.01,-1.32,1.32,1.19,0.81,1.33,1.33,1.33
95.39,0.01,-1.26,0.01,-1.26,1.26,1.13,0.75,1.27,1.27,1.27
96.34,0.01,-1.21,0.01,-1.20,1.21,1.08,0.69,1.21,1.21,1.21
97.30,0.01,-1.15,0.01,-1.15,1.15,1.02,0.63,1.16,1.16,1.16
98.28,0.01,-1.08,0.01,-1.09,1.10,0.97,0.57,1.11,1.11,1.09
99.26,0.01,-1.03,0.01,-1.03,1.04,0.91,0.51,1.05,1.05,1.03
100.25,0.01,-0.97,0.01,-0.97,0.97,0.86,0.45,0.98,0.98,0.98
101.25,0.01,-0.90,0.00,-0.91,0.89,0.80,0.40,0.90,0.90,0.91
102.27,0.01,-0.84,-0.00,-0.85,0.81,0.75,0.34,0.82,0.81,0.85
103.29,0.01,-0.78,0.03,-0.76,0.72,0.69,0.28,0.72,0.74,0.78
104.32,0.06,-0.67,0.08,-0.64,0.62,0.63,0.23,0.68,0.71,0.73
105.37,0.18,-0.49,0.16,-0.51,0.53,0.58,0.18,0.71,0.69,0.67
106.42,0.24,-0.37,0.22,-0.39,0.44,0.52,0.12,0.68,0.66,0.61
107.48,0.24,-0.31,0.25,-0.31,0.35,0.47,0.07,0.59,0.60,0.55
108.56,0.24,-0.27,0.24,-0.26,0.28,0.41,0.02,0.51,0.52,0.50
109.64,0.24,-0.21,0.24,-0.21,0.21,0.36,-0.03,0.45,0.45,0.45
110.74,0.24,-0.16,0.24,-0.16,0.15,0.31,-0.08,0.39,0.39,0.40
111.85,0.24,-0.11,0.24,-0.11,0.10,0.25,-0.12,0.34,0.34,0.35
112.97,0.24,-0.07,0.24,-0.06,0.05,0.20,-0.17,0.29,0.29,0.31
114.10,0.24,-0.01,0.24,-0.01,0.01,0.14,-0.21,0.24,0.24,0.25
115.24,0.24,0.05,0.24,0.04,-0.04,0.09,-0.26,0.19,0.19,0.19
116.39,0.24,0.10,0.24,0.10,-0.10,0.04,-0.30,0.14,0.14,0.14
117.55,0.24,0.16,0.24,0.16,-0.15,-0.02,-0.34,0.08,0.08,0.08
118.73,0.24,0.21,0.24,0.21,-0.21,-0.07,-0.38,0.03,0.03,0.03
119.92,0.24,0.27,0.24,0.27,-0.27,-0.12,-0.42,-0.03,-0.03,-0.03
121.12,0.24,0.32,0.24,0.32,-0.33,-0.17,-0.46,-0.09,-0.09,-0.08
122.33,0.24,0.38,0.24,0.38,-0.38,-0.23,-0.49,-0.14,-0.14,-0.15
123.55,0.24,0.44,0.24,0.44,-0.44,-0.28,-0.53,-0.20,-0.20,-0.20
124.79,0.24,0.50,0.24,0.50,-0.50,-0.33,-0.56,-0.26,-0.26,-0.26
126.03,0.24,0.56,0.24,0.56,-0.56,-0.38,-0.59,-0.32,-0.32,-0.32
127.29,0.24,0.61,0.24,0.62,-0.61,-0.43,-0.62,-0.38,-0.38,-0.37
128.57,0.24,0.67,0.24,0.67,-0.67,-0.48,-0.65,-0.43,-0.43,-0.43
129.85,0.24,0.72,0.24,0.73,-0.73,-0.53,-0.68,-0.49,-0.49,-0.48
131.15,0.24,0.78,0.24,0.78,-0.78,-0.58,-0.70,-0.54,-0.54,-0.54
132.46,0.24,0.84,0.24,0.84,-0.83,-0.63,-0.73,-0.59,-0.59,-0.60
133.79,0.24,0.89,0.24,0.89,-0.88,-0.68,-0.75,-0.65,-0.65,-0.65
135.12,0.24,0.93,0.24,0.93,-0.93,-0.72,-0.77,-0.70,-0.70,-0.70
136.48,0.24,0.98,0.24,0.98,-0.98,-0.77,-0.80,-0.74,-0.74,-0.74
137.84,0.24,1.03,0.24,1.03,-1.03,-0.82,-0.82,-0.79,-0.79,-0.79
139.22,0.24,1.08,0.24,1.08,-1.08,-0.87,-0.84,-0.84,-0.84,-0.84
140.61,0.24,1.12,0.24,1.12,-1.12,-0.91,-0.86,-0.88,-0.88,-0.88
142.02,0.24,1.17,0.24,1.17,-1.17,-0.96,-0.88,-0.93,-0.93,-0.93
143.44,0.24,1.21,0.24,1.21,-1.21,-1.00,-0.90,-0.97,-0.97,-0.97
144.87,0.24,1.26,0.24,1.26,-1.25,-1.05,-0.92,-1.02,-1.02,-1.02
146.32,0.24,1.30,0.24,1.30,-1.30,-1.09,-0.94,-1.06,-1.06,-1.06
147.78,0.24,1.34,0.24,1.34,-1.34,-1.13,-0.96,-1.10,-1.10,-1.10
149.26,0.24,1.38,0.24,1.38,-1.38,-1.18,-0.98,-1.14,-1.14,-1.14
150.75,0.24,1.41,0.24,1.41,-1.42,-1.22,-1.00,-1.18,-1.18,-1.18
152.26,0.24,1.45,0.24,1.45,-1.45,-1.26,-1.02,-1.22,-1.22,-1.21
153.78,0.24,1.50,0.24,1.49,-1.49,-1.30,-1.04,-1.25,-1.25,-1.26
155.32,0.24,1.53,0.24,1.53,-1.52,-1.34,-1.06,-1.29,-1.29,-1.29
156.88,0.24,1.56,0.24,1.56,-1.56,-1.38,-1.09,-1.32,-1.32,-1.32
158.44,0.24,1.59,0.24,1.59,-1.59,-1.42,-1.11,-1.35,-1.35,-1.35
160.03,0.24,1.62,0.24,1.62,-1.62,-1.46,-1.13,-1.38,-1.38,-1.38
161.63,0.24,1.65,0.24,1.65,-1.65,-1.50,-1.16,-1.41,-1.41,-1.41
163.24,0.24,1.68,0.24,1.68,-1.68,-1.54,-1.18,-1.44,-1.44,-1.44
164.88,0.24,1.71,0.24,1.71,-1.71,-1.57,-1.21,-1.47,-1.47,-1.47
166.53,0.24,1.74,0.24,1.74,-1.74,-1.61,-1.24,-1.50,-1.50,-1.50
168.19,0.24,1.76,0.24,1.76,-1.76,-1.64,-1.26,-1.53,-1.53,-1.52
169.87,0.24,1.79,0.24,1.79,-1.79,-1.68,-1.29,-1.55,-1.55,-1.55
171.57,0.24,1.82,0.24,1.81,-1.82,-1.71,-1.32,-1.58,-1.58,-1.58
173.29,0.24,1.84,0.24,1.84,-1.84,-1.75,-1.36,-1.60,-1.60,-1.60
175.02,0.24,1.87,0.24,1.87,-1.87,-1.78,-1.39,-1.63,-1.63,-1.63
176.77,0.24,1.89,0.24,1.89,-1.89,-1.81,-1.42,-1.65,-1.65,-1.65
178.54,0.24,1.91,0.24,1.92,-1.92,-1.84,-1.46,-1.68,-1.68,-1.68
180.32,0.24,1.95,0.24,1.95,-1.95,-1.87,-1.50,-1.71,-1.71,-1.71
182.13,0.24,1.97,0.24,1.97,-1.97,-1.90,-1.53,-1.73,-1.73,-1.73
183.95,0.24,2.00,0.24,2.00,-2.00,-1.93,-1.57,-1.76,-1.76,-1.76
185.79,0.24,2.02,0.24,2.02,-2.02,-1.96,-1.61,-1.79,-1.79,-1.78
187.65,0.24,2.04,0.24,2.05,-2.05,-1.99,-1.65,-1.81,-1.81,-1.81
189.52,0.24,2.07,0.24,2.07,-2.07,-2.01,-1.70,-1.83,-1.83,-1.84
191.42,0.24,2.09,0.24,2.09,-2.09,-2.04,-1.74,-1.85,-1.85,-1.85
193.33,0.24,2.11,0.24,2.11,-2.11,-2.07,-1.78,-1.87,-1.87,-1.87
195.27,0.24,2.13,0.24,2.13,-2.13,-2.09,-1.83,-1.89,-1.89,-1.89
197.22,0.24,2.15,0.24,2.14,-2.14,-2.11,-1.87,-1.90,-1.90,-1.91
199.19,0.24,2.15,0.24,2.16,-2.16,-2.14,-1.92,-1.92,-1.92,-1.91
201.18,0.24,2.17,0.24,2.17,-2.17,-2.16,-1.97,-1.93,-1.93,-1.93
203.19,0.24,2.19,0.24,2.18,-2.18,-2.18,-2.01,-1.94,-1.94,-1.95
205.23,0.24,2.19,0.24,2.19,-2.19,-2.20,-2.06,-1.96,-1.96,-1.95
207.28,0.24,2.21,0.24,2.21,-2.21,-2.22,-2.11,-1.97,-1.97,-1.97
209.35,0.24,2.22,0.24,2.22,-2.22,-2.24,-2.16,-1.98,-1.98,-1.98
211.44,0.24,2.23,0.24,2.23,-2.23,-2.26,-2.20,-1.99,-1.99,-1.99
213.56,0.24,2.25,0.24,2.25,-2.25,-2.28,-2.25,-2.01,-2.01,-2.01
215.69,0.24,2.26,0.24,2.26,-2.26,-2.30,-2.30,-2.02,-2.02,-2.02
217.85,0.24,2.27,0.24,2.27,-2.27,-2.31,-2.34,-2.03,-2.03,-2.03
220.03,0.24,2.28,0.24,2.29,-2.29,-2.33,-2.39,-2.05,-2.05,-2.04
222.23,0.24,2.30,0.24,2.30,-2.30,-2.34,-2.43,-2.06,-2.06,-2.07
224.45,0.24,2.32,0.24,2.32,-2.31,-2.36,-2.47,-2.07,-2.07,-2.08
226.70,0.24,2.33,0.24,2.33,-2.33,-2.37,-2.51,-2.09,-2.09,-2.09
228.96,0.24,2.34,0.24,2.34,-2.34,-2.38,-2.54,-2.10,-2.10,-2.10
231.25,0.24,2.35,0.24,2.35,-2.35,-2.40,-2.58,-2.11,-2.11,-2.11
233.57,0.24,2.37,0.24,2.36,-2.36,-2.41,-2.61,-2.13,-2.13,-2.13
235.90,0.24,2.38,0.24,2.38,-2.38,-2.42,-2.64,-2.14,-2.14,-2.14
238.26,0.24,2.38,0.24,2.39,-2.39,-2.43,-2.66,-2.15,-2.15,-2.15
240.64,0.24,2.40,0.24,2.40,-2.40,-2.44,-2.69,-2.16,-2.16,-2.16
243.05,0.24,2.41,0.24,2.41,-2.41,-2.45,-2.71,-2.17,-2.17,-2.17
245.48,0.24,2.42,0.24,2.42,-2.42,-2.45,-2.72,-2.18,-2.18,-2.18
247.93,0.24,2.43,0.24,2.43,-2.43,-2.46,-2.73,-2.19,-2.19,-2.19
250.41,0.24,2.43,0.24,2.43,-2.44,-2.47,-2.74,-2.20,-2.20,-2.20
252.92,0.24,2.44,0.24,2.44,-2.45,-2.47,-2.74,-2.22,-2.22,-2.20
255.45,0.24,2.45,0.24,2.45,-2.46,-2.48,-2.75,-2.23,-2.23,-2.21
258.00,0.24,2.46,0.24,2.45,-2.47,-2.48,-2.74,-2.23,-2.23,-2.22
260.58,0.24,2.46,0.24,2.47,-2.46,-2.49,-2.74,-2.22,-2.21,-2.22
263.19,0.24,2.47,0.25,2.48,-2.44,-2.49,-2.73,-2.20,-2.19,-2.23
265.82,0.24,2.48,0.22,2.46,-2.41,-2.49,-2.71,-2.18,-2.19,-2.25
268.48,0.19,2.44,0.16,2.41,-2.39,-2.49,-2.70,-2.20,-2.23,-2.25
271.16,0.06,2.31,0.09,2.34,-2.36,-2.49,-2.68,-2.30,-2.27,-2.26
273.87,0.01,2.26,0.03,2.28,-2.33,-2.49,-2.66,-2.32,-2.30,-2.25
276.61,0.01,2.27,-0.00,2.26,-2.30,-2.49,-2.64,-2.29,-2.30,-2.26
279.38,0.01,2.27,0.00,2.26,-2.28,-2.49,-2.61,-2.27,-2.28,-2.26
282.17,0.01,2.27,0.01,2.27,-2.26,-2.49,-2.58,-2.26,-2.26,-2.27
284.99,0.01,2.27,0.01,2.27,-2.26,-2.49,-2.55,-2.25,-2.25,-2.26
287.84,0.01,2.27,0.01,2.28,-2.26,-2.49,-2.52,-2.25,-2.25,-2.27
290.72,0.01,2.28,0.01,2.28,-2.27,-2.49,-2.49,-2.26,-2.26,-2.27
293.63,0.01,2.28,0.01,2.28,-2.28,-2.48,-2.46,-2.27,-2.27,-2.27
296.57,0.01,2.28,0.01,2.28,-2.28,-2.48,-2.43,-2.27,-2.27,-2.27
299.53,0.01,2.28,0.01,2.28,-2.28,-2.47,-2.40,-2.27,-2.27,-2.27
302.53,0.01,2.28,0.01,2.28,-2.28,-2.47,-2.37,-2.27,-2.27,-2.27
305.55,0.01,2.29,0.01,2.29,-2.28,-2.46,-2.33,-2.28,-2.28,-2.28
308.61,0.01,2.29,0.01,2.29,-2.29,-2.46,-2.30,-2.28,-2.28,-2.28
311.69,0.01,2.28,0.01,2.29,-2.29,-2.45,-2.27,-2.28,-2.28,-2.27
314.81,0.01,2.29,0.01,2.29,-2.29,-2.44,-2.24,-2.28,-2.28,-2.28
317.96,0.01,2.29,0.01,2.29,-2.29,-2.44,-2.21,-2.28,-2.28,-2.28
321.14,0.01,2.29,0.01,2.29,-2.29,-2.43,-2.19,-2.28,-2.28,-2.28
324.35,0.01,2.29,0.01,2.29,-2.30,-2.42,-2.16,-2.29,-2.29,-2.29
327.59,0.01,2.30,0.01,2.30,-2.30,-2.41,-2.13,-2.29,-2.29,-2.29
330.87,0.01,2.30,0.01,2.30,-2.30,-2.40,-2.11,-2.29,-2.29,-2.29
334.18,0.01,2.30,0.01,2.30,-2.30,-2.39,-2.08,-2.29,-2.29,-2.29
337.52,0.01,2.30,0.01,2.30,-2.30,-2.38,-2.06,-2.29,-2.29,-2.30
340.90,0.01,2.30,0.01,2.30,-2.31,-2.37,-2.04,-2.30,-2.30,-2.29
344.30,0.01,2.30,0.01,2.30,-2.31,-2.36,-2.02,-2.30,-2.30,-2.29
347.75,0.01,2.29,0.01,2.29,-2.31,-2.35,-2.01,-2.30,-2.30,-2.28
351.23,0.01,2.29,0.01,2.29,-2.29,-2.33,-1.99,-2.29,-2.29,-2.28
354.74,0.01,2.29,0.02,2.31,-2.27,-2.32,-1.98,-2.26,-2.25,-2.29
358.28,0.01,2.30,0.01,2.29,-2.24,-2.31,-1.96,-2.23,-2.24,-2.29
361.87,0.01,2.30,-0.05,2.24,-2.21,-2.30,-1.95,-2.20,-2.26,-2.29
365.49,-0.15,2.14,-0.12,2.17,-2.18,-2.28,-1.94,-2.33,-2.30,-2.29
369.14,-0.21,2.08,-0.19,2.11,-2.15,-2.27,-1.93,-2.36,-2.33,-2.29
372.83,-0.22,2.07,-0.23,2.06,-2.12,-2.25,-1.93,-2.34,-2.35,-2.29
376.56,-0.22,2.07,-0.23,2.07,-2.09,-2.24,-1.92,-2.31,-2.32,-2.30
380.33,-0.22,2.08,-0.22,2.08,-2.08,-2.23,-1.92,-2.30,-2.30,-2.30
384.13,-0.22,2.08,-0.22,2.08,-2.07,-2.21,-1.92,-2.29,-2.29,-2.30
387.97,-0.22,2.09,-0.22,2.08,-2.07,-2.20,-1.92,-2.29,-2.29,-2.31
391.85,-0.22,2.09,-0.22,2.09,-2.08,-2.18,-1.92,-2.30,-2.30,-2.31
395.77,-0.22,2.09,-0.22,2.10,-2.09,-2.16,-1.92,-2.31,-2.31,-2.31
399.73,-0.22,2.10,-0.22,2.10,-2.10,-2.15,-1.92,-2.32,-2.32,-2.32
403.72,-0.22,2.10,-0.22,2.10,-2.10,-2.13,-1.92,-2.32,-2.32,-2.33
407.76,-0.22,2.10,-0.22,2.11,-2.10,-2.12,-1.93,-2.32,-2.32,-2.33
411.84,-0.22,2.11,-0.22,2.10,-2.10,-2.10,-1.93,-2.32,-2.32,-2.33
415.96,-0.22,2.10,-0.22,2.10,-2.10,-2.08,-1.94,-2.32,-2.32,-2.32
420.12,-0.22,2.10,-0.22,2.10,-2.10,-2.07,-1.95,-2.32,-2.32,-2.32
424.32,-0.22,2.09,-0.22,2.09,-2.11,-2.05,-1.95,-2.33,-2.33,-2.31
428.56,-0.22,2.09,-0.22,2.09,-2.11,-2.03,-1.96,-2.33,-2.33,-2.31
432.85,-0.22,2.09,-0.22,2.09,-2.10,-2.01,-1.97,-2.32,-2.32,-2.31
437.18,-0.22,2.09,-0.22,2.09,-2.08,-2.00,-1.97,-2.30,-2.30,-2.31
441.55,-0.22,2.08,-0.21,2.10,-2.06,-1.98,-1.98,-2.28,-2.26,-2.30
445.96,-0.22,2.08,-0.22,2.08,-2.03,-1.96,-1.99,-2.25,-2.25,-2.30
450.42,-0.22,2.07,-0.28,2.02,-1.99,-1.94,-1.99,-2.21,-2.27,-2.30
454.93,-0.39,1.90,-0.35,1.94,-1.96,-1.92,-1.99,-2.35,-2.31,-2.30
459.48,-0.44,1.85,-0.42,1.88,-1.92,-1.91,-2.00,-2.36,-2.34,-2.30
464.07,-0.44,1.85,-0.46,1.84,-1.89,-1.89,-2.00,-2.33,-2.34,-2.29
468.71,-0.44,1.85,-0.45,1.84,-1.86,-1.87,-2.00,-2.30,-2.31,-2.29
473.40,-0.44,1.85,-0.44,1.84,-1.84,-1.85,-2.00,-2.28,-2.28,-2.29
478.13,-0.44,1.84,-0.44,1.84,-1.82,-1.83,-2.00,-2.27,-2.27,-2.28
482.91,-0.44,1.84,-0.44,1.83,-1.82,-1.81,-2.00,-2.26,-2.26,-2.28
487.74,-0.44,1.83,-0.44,1.83,-1.82,-1.79,-1.99,-2.26,-2.26,-2.27
492.62,-0.44,1.82,-0.44,1.82,-1.82,-1.78,-1.98,-2.26,-2.26,-2.26
