frequency,raw,error,smoothed,error_smoothed,equalization,parametric_eq,fixed_band_eq,equalized_raw,equalized_smoothed,target
20.00,7.08,6.09,7.08,6.09,-6.09,-6.19,-3.18,0.98,0.99,0.99
20.20,7.09,6.13,7.08,6.12,-6.12,-6.22,-3.26,0.97,0.96,0.96
20.40,7.09,6.15,7.09,6.15,-6.15,-6.24,-3.35,0.94,0.94,0.94
20.61,7.10,6.18,7.10,6.18,-6.18,-6.27,-3.45,0.92,0.92,0.92
20.81,7.11,6.21,7.10,6.20,-6.21,-6.30,-3.54,0.90,0.90,0.90
21.02,7.12,6.24,7.12,6.24,-6.24,-6.32,-3.64,0.88,0.88,0.88
21.23,7.13,6.27,7.13,6.27,-6.27,-6.35,-3.74,0.86,0.86,0.86
21.44,7.15,6.31,7.14,6.30,-6.30,-6.37,-3.84,0.85,0.84,0.84
21.66,7.16,6.34,7.16,6.34,-6.33,-6.40,-3.95,0.82,0.83,0.82
21.87,7.18,6.37,7.17,6.37,-6.37,-6.43,-4.06,0.81,0.81,0.81
22.09,7.20,6.41,7.19,6.40,-6.40,-6.45,-4.17,0.79,0.79,0.79
22.31,7.21,6.43,7.22,6.44,-6.44,-6.48,-4.29,0.77,0.78,0.78
22.54,7.25,6.48,7.24,6.47,-6.48,-6.50,-4.41,0.77,0.76,0.77
22.76,7.28,6.52,7.27,6.51,-6.52,-6.52,-4.53,0.76,0.76,0.76
22.99,7.31,6.56,7.31,6.56,-6.56,-6.55,-4.65,0.75,0.75,0.75
23.22,7.34,6.60,7.34,6.60,-6.60,-6.57,-4.78,0.74,0.74,0.74
23.45,7.37,6.64,7.36,6.63,-6.63,-6.59,-4.91,0.73,0.73,0.73
23.69,7.39,6.67,7.39,6.67,-6.67,-6.62,-5.04,0.72,0.73,0.72
23.92,7.42,6.70,7.42,6.70,-6.69,-6.64,-5.18,0.72,0.72,0.72
24.16,7.44,6.73,7.43,6.72,-6.71,-6.66,-5.32,0.72,0.72,0.71
24.40,7.45,6.74,7.45,6.74,-6.73,-6.68,-5.46,0.72,0.72,0.71
24.65,7.45,6.75,7.45,6.75,-6.74,-6.70,-5.60,0.71,0.71,0.70
24.89,7.45,6.75,7.44,6.75,-6.74,-6.73,-5.75,0.70,0.70,0.70
25.14,7.44,6.75,7.44,6.74,-6.75,-6.75,-5.89,0.69,0.69,0.69
25.39,7.43,6.74,7.43,6.74,-6.75,-6.77,-6.04,0.68,0.68,0.69
25.65,7.43,6.75,7.43,6.75,-6.76,-6.79,-6.19,0.67,0.67,0.68
25.91,7.44,6.76,7.43,6.76,-6.77,-6.81,-6.34,0.67,0.67,0.68
26.16,7.45,6.78,7.45,6.78,-6.78,-6.83,-6.49,0.66,0.66,0.67
26.43,7.47,6.80,7.47,6.80,-6.80,-6.84,-6.64,0.66,0.66,0.67
26.69,7.50,6.84,7.49,6.83,-6.83,-6.86,-6.79,0.66,0.66,0.66
26.96,7.53,6.87,7.52,6.86,-6.86,-6.88,-6.94,0.66,0.66,0.66
27.23,7.56,6.90,7.56,6.90,-6.90,-6.90,-7.08,0.66,0.66,0.66
27.50,7.59,6.94,7.59,6.93,-6.93,-6.92,-7.23,0.65,0.65,0.65
27.77,7.62,6.97,7.62,6.97,-6.97,-6.93,-7.37,0.65,0.65,0.65
28.05,7.65,7.01,7.65,7.00,-7.00,-6.95,-7.50,0.64,0.64,0.64
28.33,7.68,7.04,7.67,7.03,-7.04,-6.97,-7.63,0.64,0.64,0.64
28.62,7.70,7.06,7.70,7.06,-7.06,-6.98,-7.75,0.63,0.64,0.64
28.90,7.73,7.10,7.72,7.09,-7.09,-7.00,-7.87,0.64,0.63,0.63
29.19,7.75,7.12,7.75,7.12,-7.11,-7.02,-7.98,0.64,0.64,0.63
29.48,7.77,7.14,7.76,7.14,-7.13,-7.03,-8.07,0.64,0.64,0.63
29.78,7.78,7.15,7.77,7.14,-7.14,-7.05,-8.16,0.64,0.63,0.63
30.08,7.78,7.15,7.78,7.15,-7.15,-7.06,-8.24,0.63,0.63,0.63
30.38,7.78,7.15,7.78,7.15,-7.15,-7.07,-8.31,0.63,0.63,0.63
30.68,7.78,7.16,7.77,7.15,-7.15,-7.09,-8.37,0.63,0.62,0.62
30.99,7.77,7.15,7.77,7.15,-7.15,-7.10,-8.41,0.62,0.62,0.62
31.30,7.77,7.15,7.76,7.14,-7.15,-7.11,-8.45,0.62,0.61,0.62
31.61,7.76,7.14,7.76,7.14,-7.15,-7.13,-8.47,0.61,0.61,0.62
31.93,7.76,7.15,7.76,7.14,-7.15,-7.14,-8.48,0.61,0.61,0.61
32.24,7.76,7.15,7.76,7.15,-7.15,-7.15,-8.48,0.61,0.61,0.61
32.57,7.76,7.16,7.76,7.15,-7.15,-7.16,-8.46,0.61,0.61,0.60
32.89,7.76,7.16,7.76,7.15,-7.15,-7.17,-8.44,0.60,0.60,0.60
33.22,7.76,7.16,7.76,7.16,-7.16,-7.18,-8.41,0.60,0.60,0.60
33.55,7.76,7.16,7.76,7.16,-7.16,-7.19,-8.37,0.60,0.60,0.60
33.89,7.76,7.17,7.76,7.16,-7.16,-7.20,-8.32,0.59,0.59,0.59
34.23,7.76,7.17,7.76,7.17,-7.17,-7.21,-8.26,0.59,0.59,0.59
34.57,7.76,7.18,7.76,7.17,-7.17,-7.22,-8.20,0.58,0.58,0.58
34.92,7.76,7.18,7.76,7.17,-7.17,-7.23,-8.14,0.58,0.58,0.58
35.27,7.76,7.18,7.76,7.18,-7.18,-7.24,-8.06,0.58,0.58,0.58
35.62,7.76,7.18,7.76,7.18,-7.18,-7.25,-7.99,0.58,0.58,0.58
35.97,7.76,7.19,7.76,7.18,-7.18,-7.26,-7.91,0.57,0.57,0.57
36.33,7.76,7.19,7.76,7.19,-7.18,-7.26,-7.84,0.57,0.57,0.57
36.70,7.76,7.19,7.76,7.19,-7.19,-7.27,-7.76,0.57,0.57,0.57
37.06,7.76,7.19,7.76,7.19,-7.19,-7.28,-7.68,0.57,0.57,0.57
37.43,7.76,7.19,7.76,7.19,-7.19,-7.28,-7.60,0.56,0.56,0.57
37.81,7.76,7.20,7.76,7.19,-7.20,-7.29,-7.52,0.56,0.56,0.56
38.19,7.76,7.20,7.76,7.20,-7.20,-7.30,-7.44,0.56,0.56,0.56
38.57,7.76,7.21,7.76,7.20,-7.20,-7.30,-7.37,0.55,0.55,0.55
38.95,7.76,7.21,7.76,7.21,-7.21,-7.31,-7.30,0.55,0.55,0.55
39.34,7.76,7.22,7.76,7.21,-7.21,-7.31,-7.23,0.54,0.54,0.54
39.74,7.76,7.22,7.76,7.22,-7.22,-7.31,-7.17,0.54,0.54,0.54
40.14,7.76,7.22,7.76,7.22,-7.22,-7.32,-7.11,0.54,0.54,0.54
40.54,7.76,7.23,7.76,7.22,-7.22,-7.32,-7.05,0.53,0.53,0.53
40.94,7.76,7.23,7.76,7.23,-7.22,-7.32,-7.00,0.53,0.53,0.53
41.35,7.76,7.23,7.76,7.23,-7.22,-7.33,-6.95,0.53,0.53,0.53
41.76,7.76,7.23,7.76,7.22,-7.22,-7.33,-6.91,0.53,0.53,0.53
42.18,7.76,7.22,7.76,7.22,-7.22,-7.33,-6.87,0.53,0.53,0.54
42.60,7.76,7.22,7.76,7.22,-7.22,-7.33,-6.83,0.54,0.54,0.54
43.03,7.76,7.22,7.76,7.22,-7.22,-7.33,-6.80,0.54,0.54,0.54
43.46,7.76,7.22,7.76,7.22,-7.21,-7.33,-6.78,0.54,0.54,0.54
43.90,7.76,7.22,7.76,7.21,-7.21,-7.33,-6.76,0.55,0.55,0.54
44.33,7.76,7.21,7.76,7.21,-7.21,-7.33,-6.75,0.55,0.55,0.55
44.78,7.76,7.21,7.76,7.21,-7.21,-7.33,-6.74,0.55,0.55,0.55
45.23,7.76,7.21,7.76,7.20,-7.21,-7.33,-6.73,0.55,0.55,0.55
45.68,7.76,7.21,7.76,7.21,-7.21,-7.33,-6.73,0.55,0.55,0.55
46.13,7.76,7.21,7.76,7.21,-7.21,-7.33,-6.74,0.55,0.55,0.55
46.60,7.76,7.22,7.76,7.21,-7.21,-7.33,-6.75,0.54,0.54,0.54
47.06,7.76,7.22,7.76,7.21,-7.21,-7.33,-6.77,0.54,0.54,0.54
47.53,7.76,7.22,7.76,7.22,-7.22,-7.33,-6.79,0.54,0.54,0.54
48.01,7.76,7.22,7.76,7.22,-7.22,-7.32,-6.81,0.54,0.54,0.54
48.49,7.76,7.23,7.76,7.22,-7.22,-7.32,-6.84,0.53,0.53,0.53
48.97,7.76,7.23,7.76,7.23,-7.22,-7.32,-6.87,0.53,0.53,0.53
49.46,7.76,7.23,7.76,7.23,-7.22,-7.32,-6.91,0.53,0.53,0.53
49.96,7.76,7.23,7.76,7.22,-7.22,-7.31,-6.95,0.53,0.53,0.53
50.46,7.76,7.22,7.76,7.22,-7.22,-7.31,-7.00,0.54,0.54,0.54
50.96,7.76,7.22,7.76,7.22,-7.22,-7.30,-7.04,0.54,0.54,0.54
51.47,7.76,7.22,7.76,7.21,-7.22,-7.30,-7.09,0.54,0.54,0.54
51.99,7.76,7.22,7.76,7.21,-7.21,-7.29,-7.14,0.54,0.54,0.54
52.51,7.76,7.21,7.76,7.21,-7.21,-7.29,-7.20,0.55,0.55,0.55
53.03,7.76,7.21,7.76,7.21,-7.21,-7.28,-7.25,0.55,0.55,0.55
53.56,7.76,7.21,7.76,7.21,-7.21,-7.28,-7.31,0.55,0.55,0.55
54.10,7.76,7.21,7.76,7.21,-7.20,-7.27,-7.36,0.55,0.55,0.55
54.64,7.76,7.21,7.76,7.20,-7.20,-7.27,-7.42,0.55,0.55,0.55
55.18,7.76,7.20,7.76,7.20,-7.20,-7.26,-7.48,0.56,0.56,0.56
55.74,7.76,7.20,7.76,7.20,-7.20,-7.25,-7.53,0.56,0.56,0.56
56.29,7.76,7.20,7.76,7.19,-7.19,-7.25,-7.58,0.56,0.56,0.56
56.86,7.76,7.19,7.76,7.19,-7.19,-7.24,-7.63,0.57,0.57,0.57
57.42,7.76,7.19,7.76,7.19,-7.19,-7.23,-7.68,0.57,0.57,0.57
58.00,7.76,7.19,7.76,7.18,-7.18,-7.22,-7.72,0.57,0.57,0.57
58.58,7.76,7.19,7.76,7.18,-7.18,-7.22,-7.75,0.57,0.57,0.57
59.16,7.76,7.18,7.76,7.18,-7.18,-7.21,-7.78,0.58,0.58,0.58
59.76,7.76,7.18,7.76,7.18,-7.18,-7.20,-7.81,0.58,0.58,0.58
60.35,7.76,7.18,7.76,7.17,-7.17,-7.19,-7.83,0.58,0.58,0.58
60.96,7.76,7.17,7.76,7.17,-7.17,-7.18,-7.84,0.59,0.59,0.59
61.57,7.76,7.17,7.76,7.17,-7.17,-7.17,-7.85,0.59,0.59,0.59
62.18,7.76,7.17,7.76,7.17,-7.17,-7.16,-7.85,0.59,0.59,0.59
62.80,7.76,7.17,7.76,7.17,-7.17,-7.15,-7.84,0.59,0.59,0.59
63.43,7.76,7.17,7.76,7.17,-7.17,-7.15,-7.82,0.59,0.59,0.59
64.07,7.76,7.17,7.76,7.17,-7.17,-7.14,-7.80,0.59,0.59,0.59
64.71,7.76,7.17,7.76,7.17,-7.17,-7.13,-7.77,0.59,0.59,0.59
65.35,7.76,7.17,7.76,7.17,-7.17,-7.11,-7.73,0.59,0.59,0.59
66.01,7.76,7.17,7.76,7.17,-7.17,-7.10,-7.68,0.59,0.59,0.59
66.67,7.76,7.17,7.76,7.17,-7.17,-7.09,-7.63,0.59,0.59,0.59
67.33,7.76,7.17,7.76,7.17,-7.17,-7.08,-7.58,0.59,0.59,0.59
68.01,7.76,7.17,7.76,7.17,-7.17,-7.07,-7.52,0.59,0.59,0.59
68.69,7.76,7.17,7.76,7.17,-7.17,-7.06,-7.46,0.59,0.59,0.59
69.37,7.76,7.17,7.76,7.17,-7.17,-7.05,-7.39,0.58,0.58,0.59
70.07,7.77,7.18,7.76,7.17,-7.18,-7.04,-7.32,0.59,0.59,0.59
70.77,7.77,7.18,7.77,7.18,-7.18,-7.03,-7.24,0.59,0.59,0.59
71.48,7.78,7.19,7.77,7.18,-7.18,-7.01,-7.17,0.60,0.60,0.59
72.19,7.78,7.18,7.78,7.18,-7.18,-7.00,-7.09,0.60,0.60,0.60
72.91,7.78,7.18,7.78,7.18,-7.17,-6.99,-7.01,0.61,0.60,0.60
73.64,7.77,7.17,7.77,7.16,-7.16,-6.98,-6.94,0.61,0.61,0.60
74.38,7.76,7.15,7.75,7.15,-7.14,-6.96,-6.86,0.61,0.61,0.61
75.12,7.74,7.13,7.73,7.12,-7.12,-6.95,-6.78,0.61,0.61,0.61
75.87,7.71,7.10,7.71,7.10,-7.10,-6.94,-6.71,0.61,0.62,0.61
76.63,7.69,7.07,7.68,7.07,-7.06,-6.93,-6.64,0.62,0.62,0.62
77.40,7.66,7.04,7.66,7.03,-7.03,-6.91,-6.57,0.63,0.62,0.62
78.17,7.63,7.00,7.62,7.00,-7.00,-6.90,-6.50,0.63,0.63,0.63
78.95,7.59,6.96,7.59,6.96,-6.96,-6.88,-6.43,0.62,0.63,0.63
79.74,7.56,6.93,7.56,6.92,-6.93,-6.87,-6.37,0.63,0.63,0.63
80.54,7.53,6.89,7.53,6.89,-6.89,-6.86,-6.32,0.63,0.63,0.64
81.35,7.51,6.87,7.50,6.86,-6.86,-6.84,-6.26,0.64,0.64,0.64
82.16,7.48,6.84,7.48,6.84,-6.84,-6.83,-6.21,0.64,0.64,0.64
82.98,7.46,6.82,7.46,6.82,-6.81,-6.81,-6.16,0.64,0.64,0.64
83.81,7.44,6.80,7.44,6.80,-6.80,-6.80,-6.12,0.64,0.64,0.64
84.65,7.43,6.79,7.43,6.78,-6.78,-6.79,-6.08,0.64,0.64,0.64
85.50,7.42,6.77,7.42,6.77,-6.78,-6.77,-6.05,0.64,0.64,0.65
86.35,7.42,6.77,7.42,6.77,-6.78,-6.76,-6.02,0.64,0.64,0.65
87.22,7.42,6.77,7.42,6.77,-6.78,-6.74,-5.99,0.64,0.64,0.65
88.09,7.44,6.79,7.43,6.78,-6.79,-6.73,-5.97,0.65,0.65,0.65
88.97,7.45,6.80,7.45,6.80,-6.79,-6.71,-5.96,0.66,0.66,0.65
89.86,7.46,6.81,7.45,6.80,-6.79,-6.70,-5.95,0.66,0.66,0.65
90.76,7.46,6.81,7.45,6.80,-6.80,-6.68,-5.94,0.66,0.66,0.65
91.66,7.45,6.80,7.45,6.80,-6.79,-6.66,-5.94,0.65,0.66,0.65
92.58,7.44,6.79,7.44,6.79,-6.78,-6.65,-5.94,0.65,0.65,0.65
93.51,7.42,6.77,7.42,6.77,-6.76,-6.63,-5.94,0.65,0.65,0.65
94.44,7.40,6.75,7.39,6.75,-6.74,-6.62,-5.95,0.66,0.65,0.65
95.39,7.37,6.72,7.37,6.72,-6.71,-6.60,-5.97,0.65,0.65,0.65
96.34,7.34,6.69,7.34,6.68,-6.68,-6.58,-5.98,0.65,0.65,0.65
97.30,7.31,6.65,7.31,6.65,-6.66,-6.57,-6.00,0.65,0.65,0.66
98.28,7.28,6.62,7.28,6.62,-6.63,-6.55,-6.03,0.65,0.65,0.66
99.26,7.25,6.59,7.25,6.59,-6.60,-6.53,-6.06,0.65,0.65,0.66
100.25,7.23,6.57,7.23,6.57,-6.57,-6.52,-6.09,0.66,0.66,0.66
101.25,7.21,6.55,7.21,6.55,-6.54,-6.50,-6.12,0.66,0.66,0.66
102.27,7.19,6.53,7.18,6.52,-6.51,-6.48,-6.16,0.67,0.67,0.66
103.29,7.16,6.50,7.16,6.49,-6.49,-6.47,-6.20,0.67,0.67,0.66
104.32,7.13,6.46,7.13,6.46,-6.46,-6.45,-6.24,0.66,0.67,0.67
105.37,7.11,6.44,7.10,6.43,-6.43,-6.43,-6.28,0.67,0.67,0.67
106.42,7.08,6.41,7.08,6.40,-6.41,-6.41,-6.32,0.67,0.67,0.67
107.48,7.05,6.37,7.05,6.37,-6.38,-6.40,-6.36,0.67,0.67,0.68
108.56,7.03,6.35,7.03,6.35,-6.35,-6.38,-6.40,0.68,0.68,0.68
109.64,7.01,6.33,7.01,6.32,-6.32,-6.36,-6.45,0.68,0.68,0.68
110.74,6.99,6.31,6.98,6.30,-6.29,-6.34,-6.49,0.69,0.69,0.68
111.85,6.96,6.27,6.96,6.27,-6.26,-6.32,-6.53,0.69,0.69,0.69
112.97,6.93,6.24,6.93,6.24,-6.23,-6.30,-6.56,0.69,0.69,0.69
114.10,6.90,6.21,6.90,6.21,-6.20,-6.29,-6.60,0.69,0.69,0.69
115.24,6.87,6.18,6.87,6.18,-6.18,-6.27,-6.63,0.69,0.69,0.69
116.39,6.84,6.15,6.84,6.14,-6.15,-6.25,-6.66,0.69,0.69,0.69
117.55,6.82,6.12,6.81,6.12,-6.13,-6.23,-6.68,0.69,0.69,0.70
118.73,6.80,6.10,6.80,6.10,-6.11,-6.21,-6.70,0.69,0.69,0.70
119.92,6.79,6.09,6.79,6.09,-6.09,-6.19,-6.71,0.69,0.69,0.70
121.12,6.79,6.08,6.78,6.08,-6.08,-6.17,-6.72,0.70,0.70,0.71
122.33,6.79,6.08,6.79,6.07,-6.07,-6.15,-6.72,0.71,0.71,0.71
123.55,6.79,6.07,6.79,6.07,-6.07,-6.13,-6.72,0.72,0.72,0.72
124.79,6.79,6.07,6.78,6.06,-6.05,-6.11,-6.70,0.73,0.73,0.72
126.03,6.78,6.06,6.77,6.05,-6.04,-6.09,-6.69,0.74,0.74,0.72
127.29,6.76,6.03,6.76,6.03,-6.02,-6.07,-6.66,0.74,0.74,0.73
128.57,6.73,6.00,6.73,6.00,-5.99,-6.05,-6.63,0.73,0.74,0.73
129.85,6.71,5.97,6.70,5.97,-5.97,-6.03,-6.60,0.74,0.74,0.74
131.15,6.68,5.94,6.67,5.93,-5.94,-6.01,-6.56,0.74,0.73,0.74
132.46,6.64,5.90,6.64,5.90,-5.91,-5.99,-6.51,0.73,0.73,0.74
133.79,6.61,5.87,6.61,5.87,-5.88,-5.97,-6.46,0.73,0.73,0.74
135.12,6.59,5.85,6.59,5.85,-5.85,-5.95,-6.40,0.74,0.74,0.74
136.48,6.57,5.83,6.57,5.82,-5.82,-5.93,-6.34,0.75,0.75,0.74
137.84,6.55,5.80,6.54,5.80,-5.79,-5.90,-6.27,0.75,0.75,0.75
139.22,6.52,5.77,6.52,5.77,-5.76,-5.88,-6.20,0.75,0.75,0.75
140.61,6.49,5.74,6.49,5.74,-5.74,-5.86,-6.13,0.75,0.75,0.75
142.02,6.47,5.72,6.46,5.71,-5.71,-5.84,-6.06,0.75,0.75,0.75
143.44,6.44,5.69,6.44,5.68,-5.69,-5.82,-5.99,0.75,0.75,0.75
144.87,6.41,5.65,6.41,5.65,-5.66,-5.79,-5.91,0.75,0.75,0.76
146.32,6.39,5.63,6.39,5.63,-5.63,-5.77,-5.83,0.76,0.76,0.76
147.78,6.37,5.61,6.37,5.60,-5.60,-5.75,-5.76,0.77,0.76,0.76
149.26,6.35,5.58,6.34,5.58,-5.57,-5.73,-5.68,0.78,0.77,0.77
150.75,6.32,5.55,6.32,5.55,-5.54,-5.70,-5.60,0.78,0.78,0.77
152.26,6.29,5.52,6.29,5.51,-5.51,-5.68,-5.53,0.78,0.78,0.77
153.78,6.26,5.48,6.26,5.48,-5.48,-5.66,-5.46,0.78,0.78,0.78
155.32,6.23,5.45,6.22,5.44,-5.45,-5.63,-5.39,0.78,0.78,0.78
156.88,6.20,5.42,6.20,5.41,-5.42,-5.61,-5.32,0.78,0.78,0.78
158.44,6.17,5.38,6.17,5.39,-5.39,-5.58,-5.25,0.77,0.78,0.79
160.03,6.16,5.37,6.15,5.36,-5.38,-5.56,-5.19,0.78,0.78,0.79
161.63,6.15,5.36,6.14,5.35,-5.36,-5.53,-5.13,0.78,0.78,0.79
163.24,6.14,5.35,6.14,5.35,-5.35,-5.51,-5.07,0.78,0.79,0.79
164.88,6.14,5.35,6.14,5.34,-5.34,-5.49,-5.01,0.79,0.79,0.79
166.53,6.14,5.34,6.14,5.34,-5.34,-5.46,-4.96,0.80,0.80,0.80
168.19,6.14,5.34,6.14,5.34,-5.33,-5.44,-4.91,0.81,0.81,0.80
169.87,6.13,5.33,6.13,5.32,-5.32,-5.41,-4.86,0.81,0.81,0.80
171.57,6.12,5.31,6.11,5.31,-5.30,-5.38,-4.82,0.82,0.81,0.81
173.29,6.09,5.28,6.09,5.28,-5.27,-5.36,-4.78,0.81,0.82,0.81
175.02,6.07,5.26,6.06,5.25,-5.25,-5.33,-4.75,0.82,0.82,0.81
176.77,6.04,5.23,6.03,5.22,-5.22,-5.31,-4.72,0.82,0.81,0.81
178.54,6.00,5.18,6.00,5.18,-5.19,-5.28,-4.69,0.81,0.81,0.82
180.32,5.97,5.15,5.97,5.15,-5.15,-5.25,-4.67,0.81,0.81,0.82
182.13,5.94,5.12,5.93,5.11,-5.12,-5.23,-4.64,0.82,0.81,0.82
183.95,5.91,5.09,5.91,5.09,-5.09,-5.20,-4.63,0.82,0.82,0.82
185.79,5.88,5.07,5.88,5.06,-5.06,-5.17,-4.61,0.81,0.82,0.81
187.65,5.86,5.05,5.85,5.04,-5.04,-5.15,-4.60,0.82,0.81,0.81
189.52,5.83,5.02,5.83,5.02,-5.02,-5.12,-4.59,0.80,0.81,0.81
191.42,5.82,5.01,5.81,5.00,-5.01,-5.09,-4.59,0.81,0.80,0.81
193.33,5.81,4.99,5.81,4.99,-5.00,-5.06,-4.59,0.80,0.80,0.82
195.27,5.81,4.99,5.81,4.99,-5.00,-5.03,-4.59,0.81,0.81,0.82
197.22,5.82,5.00,5.81,4.99,-4.99,-5.01,-4.59,0.82,0.82,0.82
199.19,5.82,5.00,5.82,5.00,-4.99,-4.98,-4.60,0.83,0.83,0.82
201.18,5.83,5.00,5.82,5.00,-4.98,-4.95,-4.61,0.84,0.84,0.83
203.19,5.82,4.99,5.82,4.99,-4.97,-4.92,-4.62,0.84,0.84,0.83
205.23,5.81,4.98,5.81,4.97,-4.96,-4.89,-4.63,0.85,0.85,0.83
207.28,5.79,4.95,5.78,4.95,-4.94,-4.86,-4.65,0.85,0.84,0.84
209.35,5.76,4.92,5.76,4.92,-4.92,-4.83,-4.66,0.84,0.84,0.84
211.44,5.73,4.89,5.73,4.88,-4.89,-4.80,-4.68,0.84,0.84,0.84
213.56,5.70,4.85,5.70,4.85,-4.86,-4.77,-4.70,0.84,0.84,0.85
215.69,5.67,4.82,5.67,4.82,-4.83,-4.74,-4.71,0.84,0.84,0.85
217.85,5.65,4.80,5.65,4.79,-4.80,-4.71,-4.73,0.85,0.85,0.85
220.03,5.63,4.78,5.62,4.77,-4.77,-4.68,-4.75,0.86,0.85,0.85
222.23,5.60,4.74,5.60,4.74,-4.74,-4.65,-4.76,0.86,0.86,0.86
224.45,5.57,4.71,5.57,4.71,-4.70,-4.62,-4.78,0.86,0.86,0.86
226.70,5.54,4.68,5.54,4.68,-4.67,-4.59,-4.79,0.87,0.87,0.86
228.96,5.51,4.65,5.50,4.64,-4.63,-4.56,-4.80,0.87,0.87,0.86
231.25,5.47,4.60,5.47,4.60,-4.60,-4.52,-4.81,0.87,0.87,0.87
233.57,5.43,4.56,5.43,4.56,-4.56,-4.49,-4.82,0.86,0.87,0.87
235.90,5.40,4.52,5.40,4.52,-4.53,-4.46,-4.82,0.87,0.87,0.88
238.26,5.37,4.49,5.37,4.48,-4.49,-4.43,-4.82,0.87,0.87,0.88
240.64,5.35,4.46,5.35,4.46,-4.46,-4.40,-4.81,0.88,0.88,0.89
243.05,5.33,4.43,5.33,4.43,-4.43,-4.36,-4.80,0.89,0.90,0.90
245.48,5.32,4.42,5.31,4.41,-4.40,-4.33,-4.79,0.91,0.91,0.90
247.93,5.29,4.38,5.29,4.38,-4.37,-4.30,-4.77,0.92,0.92,0.91
250.41,5.27,4.35,5.26,4.35,-4.34,-4.26,-4.75,0.93,0.93,0.92
252.92,5.24,4.31,5.23,4.31,-4.30,-4.23,-4.72,0.94,0.93,0.93
255.45,5.20,4.27,5.20,4.27,-4.26,-4.20,-4.69,0.93,0.94,0.93
258.00,5.17,4.23,5.16,4.22,-4.22,-4.16,-4.65,0.94,0.94,0.94
260.58,5.13,4.19,5.12,4.18,-4.19,-4.13,-4.61,0.94,0.94,0.94
263.19,5.09,4.14,5.09,4.14,-4.15,-4.10,-4.57,0.93,0.94,0.95
265.82,5.06,4.11,5.06,4.11,-4.12,-4.06,-4.52,0.93,0.94,0.95
268.48,5.04,4.08,5.04,4.08,-4.09,-4.03,-4.47,0.94,0.95,0.96
271.16,5.03,4.07,5.02,4.06,-4.06,-3.99,-4.41,0.96,0.96,0.96
273.87,5.01,4.05,5.01,4.04,-4.03,-3.96,-4.36,0.98,0.97,0.96
276.61,4.99,4.02,4.98,4.02,-4.00,-3.93,-4.30,0.99,0.98,0.97
279.38,4.95,3.98,4.95,3.98,-3.97,-3.89,-4.23,0.98,0.98,0.97
282.17,4.92,3.95,4.91,3.94,-3.93,-3.86,-4.17,0.98,0.98,0.97
284.99,4.87,3.89,4.87,3.89,-3.90,-3.82,-4.10,0.97,0.97,0.98
287.84,4.83,3.85,4.83,3.85,-3.86,-3.79,-4.03,0.97,0.97,0.98
290.72,4.79,3.81,4.79,3.81,-3.82,-3.75,-3.96,0.96,0.97,0.98
293.63,4.76,3.78,4.76,3.78,-3.79,-3.71,-3.89,0.97,0.97,0.98
296.57,4.73,3.75,4.73,3.75,-3.75,-3.68,-3.82,0.98,0.98,0.98
299.53,4.71,3.73,4.70,3.72,-3.72,-3.64,-3.75,0.99,0.99,0.98
302.53,4.68,3.69,4.68,3.69,-3.68,-3.61,-3.68,1.00,1.00,0.99
305.55,4.65,3.66,4.65,3.66,-3.64,-3.57,-3.61,1.00,1.00,0.99
308.61,4.62,3.62,4.61,3.61,-3.60,-3.54,-3.54,1.01,1.01,1.00
311.69,4.57,3.57,4.57,3.57,-3.56,-3.50,-3.47,1.00,1.01,1.00
314.81,4.53,3.52,4.52,3.52,-3.52,-3.46,-3.40,1.01,1.00,1.01
317.96,4.48,3.47,4.48,3.47,-3.48,-3.43,-3.34,1.00,1.00,1.01
321.14,4.44,3.42,4.44,3.42,-3.43,-3.39,-3.27,1.00,1.01,1.02
324.35,4.41,3.39,4.40,3.38,-3.39,-3.35,-3.21,1.02,1.01,1.02
327.59,4.37,3.35,4.37,3.35,-3.35,-3.32,-3.15,1.02,1.02,1.02
330.87,4.34,3.31,4.34,3.31,-3.30,-3.28,-3.09,1.03,1.03,1.03
334.18,4.31,3.28,4.30,3.27,-3.26,-3.24,-3.03,1.05,1.04,1.03
337.52,4.27,3.23,4.27,3.23,-3.22,-3.21,-2.98,1.05,1.05,1.04
340.90,4.23,3.18,4.22,3.18,-3.17,-3.17,-2.92,1.05,1.05,1.05
344.30,4.18,3.13,4.18,3.13,-3.13,-3.13,-2.87,1.05,1.05,1.05
347.75,4.14,3.09,4.13,3.08,-3.09,-3.09,-2.82,1.05,1.05,1.05
351.23,4.09,3.04,4.09,3.04,-3.05,-3.06,-2.78,1.04,1.04,1.05
354.74,4.06,3.00,4.06,3.00,-3.01,-3.02,-2.73,1.04,1.05,1.06
358.28,4.03,2.97,4.03,2.97,-2.98,-2.98,-2.69,1.05,1.05,1.06
361.87,4.01,2.95,4.00,2.94,-2.94,-2.94,-2.65,1.06,1.06,1.06
365.49,3.98,2.92,3.98,2.92,-2.91,-2.91,-2.61,1.07,1.07,1.06
369.14,3.96,2.90,3.95,2.89,-2.88,-2.87,-2.57,1.08,1.07,1.06
372.83,3.92,2.86,3.92,2.85,-2.84,-2.83,-2.54,1.07,1.07,1.06
376.56,3.88,2.81,3.88,2.81,-2.81,-2.79,-2.50,1.07,1.07,1.07
380.33,3.84,2.77,3.84,2.77,-2.77,-2.75,-2.47,1.06,1.06,1.07
384.13,3.80,2.73,3.80,2.73,-2.74,-2.72,-2.44,1.06,1.06,1.07
387.97,3.77,2.70,3.77,2.69,-2.70,-2.68,-2.42,1.06,1.06,1.07
391.85,3.74,2.66,3.74,2.66,-2.67,-2.64,-2.39,1.07,1.07,1.08
395.77,3.72,2.64,3.71,2.63,-2.63,-2.60,-2.37,1.09,1.09,1.08
399.73,3.69,2.60,3.69,2.60,-2.59,-2.56,-2.34,1.10,1.10,1.09
403.72,3.66,2.57,3.65,2.56,-2.55,-2.53,-2.32,1.11,1.11,1.09
407.76,3.62,2.52,3.61,2.51,-2.51,-2.49,-2.30,1.11,1.11,1.10
411.84,3.57,2.47,3.57,2.46,-2.46,-2.45,-2.28,1.10,1.10,1.10
415.96,3.52,2.41,3.52,2.41,-2.42,-2.41,-2.26,1.10,1.10,1.11
420.12,3.48,2.37,3.48,2.37,-2.38,-2.37,-2.25,1.10,1.10,1.11
424.32,3.45,2.34,3.44,2.33,-2.34,-2.34,-2.23,1.11,1.10,1.11
428.56,3.41,2.29,3.41,2.29,-2.30,-2.30,-2.21,1.11,1.11,1.12
432.85,3.38,2.26,3.38,2.26,-2.26,-2.26,-2.20,1.12,1.12,1.12
437.18,3.35,2.23,3.34,2.22,-2.22,-2.22,-2.18,1.13,1.13,1.12
441.55,3.31,2.19,3.31,2.19,-2.18,-2.18,-2.17,1.13,1.13,1.12
445.96,3.28,2.16,3.27,2.15,-2.14,-2.14,-2.15,1.14,1.13,1.12
450.42,3.23,2.11,3.23,2.11,-2.10,-2.11,-2.13,1.12,1.12,1.12
454.93,3.18,2.06,3.18,2.06,-2.06,-2.07,-2.12,1.11,1.12,1.12
459.48,3.14,2.02,3.14,2.02,-2.02,-2.03,-2.10,1.11,1.11,1.12
464.07,3.10,1.98,3.10,1.98,-1.99,-1.99,-2.08,1.11,1.11,1.12
468.71,3.07,1.95,3.07,1.95,-1.95,-1.95,-2.06,1.11,1.11,1.12
473.40,3.04,1.92,3.04,1.92,-1.92,-1.91,-2.04,1.12,1.12,1.12
478.13,3.02,1.89,3.01,1.89,-1.88,-1.87,-2.02,1.13,1.13,1.13
482.91,2.99,1.86,2.99,1.86,-1.85,-1.84,-1.99,1.14,1.14,1.13
487.74,2.96,1.83,2.95,1.82,-1.82,-1.80,-1.97,1.14,1.14,1.13
492.62,2.92,1.79,2.92,1.78,-1.78,-1.76,-1.94,1.13,1.13,1.13
497.55,2.88,1.74,2.88,1.74,-1.75,-1.72,-1.91,1.13,1.13,1.14
502.52,2.85,1.71,2.85,1.71,-1.71,-1.68,-1.88,1.13,1.13,1.14
507.55,2.82,1.68,2.81,1.67,-1.68,-1.64,-1.85,1.14,1.14,1.14
512.62,2.79,1.65,2.78,1.64,-1.64,-1.60,-1.81,1.15,1.14,1.14
517.75,2.75,1.60,2.75,1.60,-1.60,-1.57,-1.78,1.15,1.15,1.15
522.93,2.72,1.57,2.71,1.57,-1.56,-1.53,-1.74,1.15,1.15,1.15
528.16,2.68,1.53,2.68,1.52,-1.52,-1.49,-1.70,1.15,1.15,1.15
533.44,2.64,1.49,2.63,1.48,-1.48,-1.45,-1.66,1.16,1.15,1.15
538.77,2.59,1.43,2.59,1.43,-1.44,-1.41,-1.62,1.15,1.16,1.16
544.16,2.55,1.39,2.55,1.39,-1.39,-1.37,-1.57,1.16,1.16,1.16
