frequency,raw,error,smoothed,error_smoothed,equalization,parametric_eq,fixed_band_eq,equalized_raw,equalized_smoothed,target
20.00,3.92,0.39,3.93,0.39,-0.39,-0.98,-0.91,3.54,3.54,3.54
20.20,3.97,0.40,3.97,0.40,-0.40,-1.00,-0.94,3.58,3.58,3.58
20.40,4.02,0.41,4.02,0.41,-0.41,-1.01,-0.97,3.61,3.61,3.61
20.61,4.06,0.43,4.06,0.43,-0.42,-1.03,-0.99,3.64,3.64,3.64
20.81,4.11,0.45,4.11,0.44,-0.44,-1.04,-1.02,3.67,3.67,3.67
21.02,4.15,0.46,4.16,0.46,-0.47,-1.06,-1.05,3.69,3.69,3.70
21.23,4.20,0.49,4.21,0.49,-0.50,-1.08,-1.08,3.71,3.71,3.72
21.44,4.26,0.53,4.25,0.53,-0.53,-1.10,-1.11,3.72,3.72,3.73
21.66,4.30,0.57,4.30,0.57,-0.57,-1.11,-1.14,3.73,3.73,3.74
21.87,4.36,0.61,4.36,0.61,-0.62,-1.13,-1.18,3.74,3.74,3.74
22.09,4.42,0.66,4.41,0.66,-0.67,-1.15,-1.21,3.75,3.75,3.75
22.31,4.48,0.71,4.47,0.71,-0.72,-1.17,-1.24,3.76,3.76,3.76
22.54,4.53,0.77,4.54,0.77,-0.77,-1.19,-1.28,3.76,3.77,3.76
22.76,4.60,0.83,4.60,0.83,-0.82,-1.21,-1.31,3.78,3.78,3.76
22.99,4.65,0.89,4.65,0.88,-0.87,-1.23,-1.35,3.79,3.78,3.76
23.22,4.69,0.92,4.69,0.93,-0.91,-1.25,-1.39,3.78,3.78,3.77
23.45,4.73,0.96,4.74,0.96,-0.96,-1.27,-1.43,3.78,3.78,3.77
23.69,4.77,0.99,4.78,1.00,-1.00,-1.29,-1.46,3.77,3.77,3.78
23.92,4.83,1.04,4.82,1.04,-1.05,-1.31,-1.50,3.78,3.77,3.78
24.16,4.87,1.08,4.87,1.09,-1.10,-1.33,-1.55,3.78,3.78,3.79
24.40,4.93,1.14,4.93,1.14,-1.15,-1.36,-1.59,3.78,3.78,3.79
24.65,4.98,1.20,4.98,1.20,-1.20,-1.38,-1.63,3.78,3.78,3.78
24.89,5.05,1.27,5.04,1.26,-1.26,-1.40,-1.67,3.79,3.78,3.78
25.14,5.10,1.32,5.10,1.32,-1.32,-1.43,-1.71,3.77,3.78,3.78
25.39,5.16,1.39,5.16,1.38,-1.39,-1.45,-1.76,3.77,3.77,3.77
25.65,5.21,1.45,5.21,1.45,-1.46,-1.48,-1.80,3.76,3.76,3.77
25.91,5.27,1.52,5.27,1.52,-1.53,-1.50,-1.85,3.75,3.75,3.76
26.16,5.34,1.59,5.33,1.58,-1.59,-1.53,-1.89,3.75,3.74,3.75
26.43,5.38,1.64,5.39,1.65,-1.64,-1.55,-1.93,3.74,3.75,3.74
26.69,5.44,1.71,5.45,1.71,-1.69,-1.58,-1.98,3.76,3.76,3.73
26.96,5.50,1.77,5.49,1.76,-1.73,-1.61,-2.02,3.78,3.76,3.73
27.23,5.51,1.79,5.51,1.79,-1.76,-1.64,-2.07,3.75,3.75,3.72
27.50,5.51,1.79,5.51,1.80,-1.80,-1.66,-2.11,3.71,3.71,3.72
27.77,5.51,1.81,5.52,1.81,-1.84,-1.69,-2.15,3.68,3.68,3.70
28.05,5.52,1.83,5.54,1.84,-1.88,-1.72,-2.19,3.65,3.66,3.70
28.33,5.59,1.91,5.59,1.90,-1.92,-1.75,-2.23,3.67,3.66,3.69
28.62,5.65,1.98,5.65,1.97,-1.98,-1.78,-2.27,3.68,3.67,3.68
28.90,5.72,2.05,5.72,2.05,-2.04,-1.82,-2.31,3.68,3.68,3.68
29.19,5.78,2.12,5.79,2.12,-2.11,-1.85,-2.34,3.67,3.68,3.67
29.48,5.86,2.18,5.86,2.19,-2.19,-1.88,-2.38,3.67,3.67,3.67
29.78,5.92,2.26,5.92,2.26,-2.26,-1.91,-2.41,3.67,3.66,3.66
30.08,5.98,2.33,5.98,2.33,-2.33,-1.95,-2.44,3.66,3.66,3.65
30.38,6.03,2.39,6.04,2.39,-2.39,-1.98,-2.47,3.65,3.65,3.64
30.68,6.08,2.45,6.09,2.45,-2.44,-2.02,-2.50,3.64,3.65,3.64
30.99,6.13,2.51,6.13,2.49,-2.48,-2.05,-2.52,3.65,3.64,3.63
31.30,6.15,2.53,6.16,2.53,-2.52,-2.09,-2.54,3.64,3.64,3.63
31.61,6.17,2.55,6.18,2.56,-2.55,-2.12,-2.57,3.63,3.63,3.63
31.93,6.19,2.58,6.19,2.58,-2.57,-2.16,-2.58,3.62,3.62,3.61
32.24,6.20,2.61,6.20,2.60,-2.60,-2.20,-2.60,3.60,3.60,3.59
32.57,6.20,2.61,6.20,2.61,-2.63,-2.24,-2.62,3.57,3.57,3.59
32.89,6.20,2.61,6.22,2.63,-2.67,-2.28,-2.63,3.54,3.55,3.60
33.22,6.25,2.67,6.27,2.68,-2.70,-2.32,-2.64,3.56,3.57,3.59
33.55,6.34,2.75,6.33,2.75,-2.74,-2.36,-2.65,3.60,3.59,3.59
33.89,6.40,2.83,6.39,2.82,-2.78,-2.40,-2.66,3.63,3.61,3.57
34.23,6.43,2.86,6.42,2.85,-2.83,-2.44,-2.67,3.61,3.60,3.57
34.57,6.43,2.87,6.43,2.87,-2.88,-2.48,-2.67,3.55,3.55,3.56
34.92,6.43,2.88,6.45,2.90,-2.93,-2.53,-2.68,3.50,3.52,3.56
35.27,6.49,2.94,6.50,2.95,-2.98,-2.57,-2.69,3.51,3.52,3.56
35.62,6.57,3.03,6.57,3.02,-3.02,-2.61,-2.69,3.56,3.55,3.54
35.97,6.64,3.10,6.63,3.08,-3.05,-2.66,-2.70,3.60,3.58,3.54
36.33,6.65,3.12,6.66,3.12,-3.07,-2.70,-2.70,3.58,3.58,3.54
36.70,6.65,3.13,6.66,3.13,-3.11,-2.75,-2.71,3.55,3.55,3.53
37.06,6.65,3.14,6.65,3.13,-3.15,-2.79,-2.71,3.51,3.51,3.51
37.43,6.65,3.14,6.65,3.14,-3.19,-2.84,-2.72,3.47,3.46,3.51
37.81,6.65,3.16,6.66,3.17,-3.22,-2.89,-2.73,3.43,3.44,3.50
38.19,6.69,3.21,6.71,3.23,-3.26,-2.94,-2.74,3.43,3.45,3.48
38.57,6.78,3.30,6.78,3.30,-3.30,-2.98,-2.75,3.48,3.48,3.48
38.95,6.87,3.41,6.85,3.38,-3.34,-3.03,-2.76,3.53,3.51,3.47
39.34,6.88,3.43,6.89,3.43,-3.38,-3.08,-2.77,3.50,3.50,3.46
39.74,6.88,3.44,6.89,3.44,-3.42,-3.13,-2.79,3.47,3.48,3.44
40.14,6.88,3.44,6.89,3.44,-3.44,-3.18,-2.80,3.45,3.45,3.45
40.54,6.88,3.45,6.88,3.45,-3.45,-3.23,-2.82,3.43,3.43,3.44
40.94,6.88,3.45,6.88,3.45,-3.45,-3.28,-2.84,3.43,3.43,3.43
41.35,6.88,3.47,6.88,3.46,-3.46,-3.33,-2.87,3.42,3.42,3.42
41.76,6.88,3.47,6.88,3.47,-3.48,-3.37,-2.89,3.41,3.41,3.41
42.18,6.88,3.49,6.88,3.48,-3.51,-3.42,-2.92,3.38,3.37,3.40
42.60,6.88,3.50,6.88,3.50,-3.55,-3.47,-2.94,3.33,3.33,3.38
43.03,6.89,3.52,6.93,3.56,-3.60,-3.52,-2.98,3.29,3.32,3.37
43.46,6.99,3.65,6.99,3.65,-3.66,-3.57,-3.01,3.34,3.34,3.35
43.90,7.09,3.78,7.06,3.75,-3.72,-3.62,-3.05,3.38,3.35,3.31
44.33,7.11,3.83,7.11,3.83,-3.78,-3.67,-3.08,3.34,3.34,3.29
44.78,7.11,3.85,7.12,3.86,-3.83,-3.72,-3.12,3.29,3.29,3.26
45.23,7.11,3.88,7.12,3.88,-3.87,-3.76,-3.17,3.24,3.24,3.24
45.68,7.11,3.90,7.11,3.90,-3.91,-3.81,-3.21,3.21,3.21,3.21
46.13,7.11,3.92,7.11,3.92,-3.93,-3.86,-3.26,3.19,3.19,3.19
46.60,7.11,3.93,7.11,3.93,-3.94,-3.90,-3.31,3.17,3.17,3.19
47.06,7.11,3.94,7.11,3.94,-3.95,-3.95,-3.36,3.17,3.17,3.17
47.53,7.11,3.96,7.11,3.95,-3.96,-3.99,-3.41,3.16,3.16,3.16
48.01,7.11,3.96,7.11,3.96,-3.97,-4.03,-3.47,3.15,3.15,3.16
48.49,7.11,3.96,7.11,3.97,-3.98,-4.07,-3.53,3.14,3.14,3.15
48.97,7.11,3.98,7.11,3.98,-3.98,-4.11,-3.59,3.13,3.13,3.13
49.46,7.11,3.99,7.11,3.98,-3.98,-4.15,-3.65,3.13,3.13,3.13
49.96,7.11,3.99,7.12,3.99,-3.97,-4.19,-3.71,3.14,3.14,3.13
50.46,7.11,3.97,7.12,3.98,-3.96,-4.23,-3.78,3.16,3.16,3.14
50.96,7.11,3.97,7.10,3.96,-3.93,-4.26,-3.84,3.18,3.17,3.14
51.47,7.06,3.93,7.07,3.93,-3.90,-4.29,-3.91,3.16,3.16,3.13
51.99,7.01,3.89,7.01,3.88,-3.88,-4.32,-3.97,3.14,3.13,3.13
52.51,6.95,3.82,6.95,3.82,-3.86,-4.35,-4.04,3.09,3.09,3.13
53.03,6.88,3.78,6.90,3.79,-3.85,-4.38,-4.11,3.04,3.06,3.11
53.56,6.88,3.80,6.88,3.79,-3.84,-4.40,-4.17,3.05,3.04,3.09
54.10,6.88,3.82,6.88,3.81,-3.83,-4.43,-4.24,3.06,3.05,3.07
54.64,6.88,3.85,6.89,3.85,-3.81,-4.45,-4.30,3.07,3.08,3.04
55.18,6.88,3.88,6.89,3.89,-3.81,-4.47,-4.36,3.08,3.09,3.01
55.74,6.88,3.91,6.86,3.88,-3.81,-4.48,-4.42,3.07,3.05,2.98
56.29,6.81,3.86,6.79,3.84,-3.83,-4.50,-4.48,2.99,2.97,2.95
56.86,6.69,3.76,6.71,3.79,-3.85,-4.51,-4.53,2.84,2.86,2.92
57.42,6.65,3.77,6.66,3.78,-3.88,-4.52,-4.58,2.78,2.78,2.88
58.00,6.65,3.81,6.69,3.84,-3.91,-4.52,-4.63,2.74,2.78,2.85
58.58,6.78,3.97,6.77,3.95,-3.96,-4.53,-4.67,2.83,2.81,2.81
59.16,6.88,4.09,6.84,4.06,-4.01,-4.53,-4.71,2.87,2.83,2.79
59.76,6.88,4.13,6.89,4.14,-4.08,-4.53,-4.74,2.81,2.82,2.76
60.35,6.88,4.17,6.89,4.18,-4.14,-4.52,-4.77,2.74,2.75,2.71
60.96,6.88,4.21,6.88,4.21,-4.21,-4.52,-4.79,2.67,2.67,2.68
61.57,6.88,4.26,6.88,4.25,-4.27,-4.51,-4.81,2.62,2.62,2.62
62.18,6.88,4.30,6.88,4.30,-4.31,-4.50,-4.82,2.58,2.58,2.59
62.80,6.88,4.33,6.88,4.34,-4.34,-4.49,-4.82,2.55,2.55,2.55
63.43,6.88,4.38,6.88,4.37,-4.37,-4.47,-4.82,2.52,2.52,2.51
64.07,6.88,4.41,6.88,4.41,-4.40,-4.45,-4.81,2.49,2.49,2.48
64.71,6.88,4.44,6.88,4.44,-4.43,-4.43,-4.80,2.45,2.45,2.44
65.35,6.88,4.47,6.88,4.47,-4.48,-4.41,-4.78,2.41,2.41,2.41
66.01,6.88,4.51,6.88,4.50,-4.52,-4.39,-4.75,2.36,2.36,2.37
66.67,6.88,4.53,6.89,4.54,-4.57,-4.36,-4.73,2.32,2.32,2.35
67.33,6.91,4.59,6.93,4.60,-4.62,-4.34,-4.69,2.30,2.31,2.33
68.01,6.98,4.68,6.99,4.69,-4.68,-4.31,-4.65,2.31,2.32,2.31
68.69,7.07,4.79,7.06,4.77,-4.74,-4.28,-4.61,2.33,2.31,2.28
69.37,7.11,4.85,7.09,4.83,-4.82,-4.24,-4.57,2.29,2.27,2.26
70.07,7.11,4.87,7.11,4.87,-4.90,-4.21,-4.52,2.21,2.21,2.24
70.77,7.11,4.89,7.16,4.93,-4.98,-4.17,-4.47,2.14,2.18,2.23
71.48,7.22,5.01,7.23,5.02,-5.04,-4.14,-4.41,2.19,2.19,2.22
72.19,7.34,5.15,7.30,5.11,-5.08,-4.10,-4.36,2.26,2.22,2.19
72.91,7.34,5.18,7.36,5.19,-5.11,-4.06,-4.30,2.23,2.25,2.17
73.64,7.34,5.20,7.33,5.19,-5.13,-4.02,-4.25,2.21,2.20,2.14
74.38,7.28,5.16,7.26,5.14,-5.14,-3.98,-4.19,2.15,2.13,2.13
75.12,7.16,5.06,7.20,5.09,-5.12,-3.94,-4.13,2.04,2.07,2.10
75.87,7.12,5.05,7.14,5.06,-5.09,-3.89,-4.08,2.03,2.05,2.08
76.63,7.11,5.05,7.11,5.05,-5.06,-3.85,-4.02,2.06,2.05,2.06
77.40,7.09,5.05,7.07,5.03,-5.02,-3.80,-3.97,2.08,2.05,2.04
78.17,7.02,5.00,7.00,4.97,-4.98,-3.76,-3.91,2.04,2.02,2.03
78.95,6.89,4.87,6.94,4.91,-4.95,-3.71,-3.86,1.95,1.99,2.03
79.74,6.88,4.87,6.89,4.88,-4.92,-3.67,-3.81,1.97,1.98,2.02
80.54,6.88,4.88,6.89,4.88,-4.88,-3.62,-3.76,2.01,2.01,2.01
81.35,6.88,4.88,6.86,4.85,-4.83,-3.57,-3.71,2.06,2.03,2.01
82.16,6.83,4.83,6.80,4.80,-4.76,-3.52,-3.67,2.07,2.04,2.01
82.98,6.65,4.64,6.72,4.71,-4.69,-3.47,-3.63,1.97,2.03,2.02
83.81,6.65,4.64,6.62,4.60,-4.60,-3.42,-3.59,2.06,2.02,2.01
84.65,6.51,4.49,6.50,4.48,-4.48,-3.37,-3.55,2.03,2.02,2.02
85.50,6.38,4.34,6.41,4.37,-4.34,-3.32,-3.51,2.03,2.06,2.04
86.35,6.26,4.22,6.26,4.21,-4.19,-3.26,-3.48,2.07,2.06,2.05
87.22,6.15,4.08,6.10,4.05,-4.04,-3.21,-3.45,2.10,2.06,2.06
88.09,5.91,3.84,5.93,3.86,-3.89,-3.15,-3.42,2.02,2.04,2.07
88.97,5.75,3.67,5.76,3.68,-3.73,-3.09,-3.40,2.02,2.03,2.08
89.86,5.59,3.50,5.61,3.52,-3.57,-3.04,-3.37,2.03,2.05,2.10
90.76,5.51,3.42,5.50,3.40,-3.39,-2.97,-3.36,2.13,2.11,2.09
91.66,5.36,3.26,5.37,3.26,-3.21,-2.91,-3.34,2.16,2.16,2.11
92.58,5.21,3.11,5.21,3.10,-3.03,-2.84,-3.32,2.19,2.18,2.10
93.51,5.02,2.90,4.99,2.88,-2.85,-2.76,-3.31,2.17,2.14,2.12
94.44,4.75,2.63,4.76,2.65,-2.67,-2.68,-3.30,2.09,2.09,2.12
95.39,4.52,2.40,4.54,2.42,-2.48,-2.60,-3.29,2.04,2.06,2.11
96.34,4.34,2.24,4.37,2.26,-2.29,-2.51,-3.29,2.06,2.08,2.10
97.30,4.23,2.13,4.22,2.12,-2.10,-2.42,-3.29,2.13,2.12,2.11
98.28,4.10,2.01,4.07,1.97,-1.93,-2.31,-3.29,2.17,2.13,2.10
99.26,3.89,1.80,3.90,1.81,-1.79,-2.20,-3.29,2.11,2.12,2.09
100.25,3.69,1.61,3.72,1.64,-1.67,-2.08,-3.29,2.02,2.05,2.08
101.25,3.61,1.54,3.59,1.51,-1.57,-1.96,-3.29,2.04,2.01,2.08
102.27,3.46,1.40,3.51,1.45,-1.49,-1.85,-3.30,1.98,2.02,2.07
103.29,3.46,1.43,3.45,1.40,-1.41,-1.73,-3.31,2.05,2.03,2.04
104.32,3.41,1.39,3.38,1.36,-1.34,-1.65,-3.32,2.07,2.04,2.02
105.37,3.30,1.30,3.33,1.33,-1.27,-1.57,-3.33,2.03,2.06,1.99
106.42,3.24,1.28,3.24,1.28,-1.20,-1.55,-3.34,2.05,2.04,1.96
107.48,3.14,1.23,3.13,1.21,-1.14,-1.53,-3.35,2.01,1.99,1.92
108.56,3.02,1.16,3.01,1.14,-1.09,-1.57,-3.36,1.93,1.92,1.87
109.64,2.86,1.03,2.89,1.06,-1.08,-1.62,-3.37,1.79,1.81,1.83
110.74,2.78,1.00,2.78,1.00,-1.10,-1.71,-3.38,1.68,1.68,1.78
111.85,2.78,1.04,2.77,1.03,-1.17,-1.79,-3.39,1.61,1.60,1.74
112.97,2.80,1.13,2.86,1.18,-1.29,-1.89,-3.40,1.52,1.57,1.68
114.10,3.05,1.42,3.05,1.42,-1.46,-1.98,-3.41,1.59,1.60,1.64
115.24,3.31,1.73,3.29,1.71,-1.68,-2.07,-3.42,1.63,1.61,1.58
116.39,3.56,2.03,3.52,1.99,-1.94,-2.15,-3.42,1.63,1.59,1.53
117.55,3.71,2.22,3.72,2.23,-2.21,-2.23,-3.43,1.49,1.51,1.49
118.73,3.88,2.43,3.93,2.47,-2.47,-2.30,-3.43,1.41,1.45,1.45
119.92,4.14,2.72,4.14,2.72,-2.71,-2.36,-3.43,1.44,1.43,1.42
121.12,4.38,2.99,4.36,2.97,-2.90,-2.43,-3.43,1.48,1.46,1.39
122.33,4.52,3.16,4.52,3.15,-3.05,-2.48,-3.42,1.47,1.47,1.36
123.55,4.60,3.26,4.59,3.25,-3.17,-2.53,-3.42,1.43,1.42,1.35
124.79,4.60,3.28,4.61,3.28,-3.27,-2.58,-3.41,1.33,1.34,1.32
126.03,4.60,3.30,4.60,3.30,-3.35,-2.63,-3.39,1.26,1.25,1.30
127.29,4.60,3.32,4.63,3.35,-3.41,-2.68,-3.38,1.19,1.22,1.29
128.57,4.65,3.40,4.69,3.44,-3.47,-2.72,-3.36,1.18,1.22,1.25
129.85,4.81,3.58,4.75,3.52,-3.54,-2.77,-3.34,1.28,1.21,1.23
131.15,4.83,3.63,4.82,3.61,-3.63,-2.82,-3.32,1.21,1.20,1.21
132.46,4.83,3.65,4.89,3.70,-3.73,-2.86,-3.29,1.11,1.16,1.19
133.79,4.97,3.80,4.97,3.80,-3.83,-2.91,-3.27,1.14,1.13,1.17
135.12,5.08,3.93,5.09,3.94,-3.93,-2.95,-3.24,1.14,1.16,1.14
136.48,5.23,4.10,5.21,4.08,-4.02,-3.00,-3.21,1.21,1.19,1.13
137.84,5.29,4.19,5.28,4.18,-4.11,-3.05,-3.17,1.19,1.17,1.10
139.22,5.29,4.23,5.31,4.23,-4.19,-3.10,-3.14,1.10,1.11,1.06
140.61,5.29,4.25,5.28,4.24,-4.27,-3.15,-3.11,1.02,1.01,1.05
142.02,5.29,4.26,5.30,4.27,-4.35,-3.20,-3.07,0.95,0.96,1.04
143.44,5.30,4.29,5.36,4.35,-4.41,-3.26,-3.04,0.90,0.95,1.01
144.87,5.47,4.49,5.43,4.45,-4.46,-3.31,-3.00,1.01,0.97,0.98
146.32,5.50,4.56,5.50,4.55,-4.51,-3.37,-2.96,1.00,0.99,0.95
147.78,5.51,4.59,5.53,4.61,-4.56,-3.42,-2.93,0.96,0.97,0.92
149.26,5.51,4.63,5.48,4.60,-4.60,-3.48,-2.89,0.91,0.88,0.89
150.75,5.41,4.58,5.42,4.59,-4.63,-3.54,-2.85,0.78,0.79,0.83
152.26,5.32,4.55,5.36,4.59,-4.62,-3.59,-2.82,0.70,0.74,0.78
153.78,5.29,4.58,5.30,4.59,-4.58,-3.65,-2.78,0.71,0.72,0.71
155.32,5.24,4.59,5.21,4.55,-4.49,-3.71,-2.75,0.75,0.71,0.65
156.88,5.07,4.47,5.05,4.46,-4.36,-3.76,-2.72,0.70,0.69,0.60
158.44,4.80,4.27,4.82,4.29,-4.20,-3.82,-2.69,0.60,0.62,0.54
160.03,4.54,4.07,4.55,4.07,-4.01,-3.87,-2.66,0.53,0.54,0.47
161.63,4.27,3.84,4.27,3.85,-3.81,-3.92,-2.63,0.46,0.46,0.43
163.24,4.01,3.63,4.00,3.61,-3.63,-3.97,-2.60,0.39,0.37,0.38
164.88,3.75,3.40,3.74,3.39,-3.47,-4.02,-2.58,0.28,0.27,0.35
166.53,3.53,3.20,3.56,3.24,-3.37,-4.06,-2.56,0.16,0.19,0.32
168.19,3.46,3.17,3.48,3.19,-3.33,-4.10,-2.54,0.14,0.15,0.30
169.87,3.52,3.25,3.52,3.24,-3.35,-4.13,-2.52,0.17,0.17,0.28
171.57,3.66,3.40,3.67,3.40,-3.43,-4.16,-2.50,0.23,0.24,0.27
173.29,3.83,3.56,3.84,3.57,-3.55,-4.18,-2.48,0.28,0.29,0.27
175.02,4.06,3.79,4.02,3.75,-3.69,-4.20,-2.47,0.37,0.33,0.28
176.77,4.14,3.88,4.19,3.92,-3.84,-4.21,-2.46,0.31,0.35,0.27
178.54,4.33,4.06,4.31,4.03,-3.96,-4.21,-2.45,0.38,0.35,0.27
180.32,4.38,4.11,4.37,4.09,-4.04,-4.21,-2.44,0.34,0.32,0.28
182.13,4.38,4.10,4.42,4.13,-4.08,-4.20,-2.44,0.30,0.33,0.28
183.95,4.38,4.11,4.39,4.10,-4.08,-4.18,-2.43,0.30,0.30,0.28
185.79,4.38,4.10,4.33,4.05,-4.05,-4.15,-2.43,0.33,0.28,0.28
187.65,4.21,3.95,4.26,4.00,-4.00,-4.12,-2.43,0.21,0.26,0.26
189.52,4.15,3.91,4.16,3.91,-3.94,-4.08,-2.43,0.21,0.22,0.25
191.42,4.09,3.86,4.06,3.82,-3.88,-4.03,-2.43,0.22,0.18,0.24
193.33,3.97,3.75,4.01,3.78,-3.81,-3.98,-2.44,0.16,0.20,0.22
195.27,3.92,3.71,3.94,3.73,-3.74,-3.92,-2.44,0.18,0.20,0.21
197.22,3.92,3.72,3.87,3.68,-3.68,-3.85,-2.45,0.25,0.19,0.20
199.19,3.78,3.62,3.81,3.63,-3.61,-3.78,-2.46,0.17,0.20,0.17
201.18,3.69,3.54,3.72,3.57,-3.54,-3.69,-2.46,0.16,0.19,0.16
203.19,3.65,3.51,3.62,3.48,-3.46,-3.61,-2.47,0.19,0.16,0.15
205.23,3.52,3.40,3.52,3.39,-3.38,-3.52,-2.48,0.15,0.15,0.13
207.28,3.38,3.27,3.40,3.28,-3.28,-3.43,-2.49,0.10,0.11,0.12
209.35,3.27,3.18,3.25,3.16,-3.18,-3.33,-2.51,0.09,0.07,0.10
211.44,3.11,3.05,3.15,3.07,-3.08,-3.24,-2.52,0.04,0.07,0.07
213.56,3.02,2.96,3.05,2.98,-2.96,-3.13,-2.53,0.06,0.09,0.06
215.69,3.01,2.95,2.94,2.89,-2.85,-3.03,-2.54,0.16,0.09,0.06
217.85,2.80,2.76,2.83,2.79,-2.75,-2.93,-2.55,0.05,0.08,0.04
220.03,2.69,2.67,2.70,2.68,-2.67,-2.82,-2.56,0.02,0.03,0.03
222.23,2.59,2.59,2.60,2.59,-2.63,-2.72,-2.56,-0.03,-0.03,0.01
224.45,2.55,2.54,2.55,2.54,-2.61,-2.61,-2.57,-0.06,-0.07,0.01
226.70,2.55,2.55,2.55,2.54,-2.62,-2.51,-2.57,-0.07,-0.08,0.00
228.96,2.55,2.55,2.59,2.59,-2.67,-2.40,-2.58,-0.11,-0.07,0.01
231.25,2.72,2.72,2.71,2.70,-2.73,-2.30,-2.58,-0.00,-0.02,0.01
233.57,2.81,2.81,2.84,2.84,-2.81,-2.19,-2.57,0.01,0.03,0.00
235.90,3.00,3.01,2.96,2.96,-2.89,-2.09,-2.57,0.12,0.07,-0.00
238.26,3.01,3.01,3.01,3.01,-2.96,-1.99,-2.56,0.06,0.05,0.00
240.64,3.01,3.01,3.03,3.03,-3.00,-1.89,-2.54,0.02,0.03,0.00
243.05,3.01,3.00,3.03,3.01,-3.01,-1.79,-2.53,0.01,0.03,0.02
245.48,3.01,2.98,3.01,2.98,-2.97,-1.69,-2.51,0.04,0.04,0.03
247.93,3.01,2.97,2.96,2.92,-2.89,-1.59,-2.49,0.13,0.07,0.05
250.41,2.82,2.77,2.87,2.81,-2.77,-1.50,-2.46,0.06,0.10,0.05
252.92,2.73,2.66,2.74,2.66,-2.62,-1.40,-2.43,0.11,0.12,0.08
255.45,2.58,2.48,2.56,2.47,-2.46,-1.31,-2.39,0.12,0.10,0.10
258.00,2.42,2.31,2.41,2.29,-2.31,-1.22,-2.36,0.12,0.10,0.12
260.58,2.18,2.06,2.22,2.09,-2.15,-1.13,-2.31,0.03,0.07,0.12
263.19,2.09,1.94,2.05,1.91,-2.00,-1.05,-2.27,0.09,0.05,0.15
265.82,1.89,1.73,1.94,1.78,-1.85,-0.96,-2.22,0.04,0.09,0.17
268.48,1.87,1.69,1.90,1.72,-1.71,-0.88,-2.17,0.17,0.19,0.18
271.16,1.87,1.67,1.82,1.62,-1.57,-0.80,-2.11,0.31,0.26,0.21
273.87,1.78,1.56,1.74,1.52,-1.43,-0.71,-2.05,0.35,0.31,0.22
276.61,1.53,1.28,1.59,1.34,-1.29,-0.63,-1.99,0.25,0.30,0.25
279.38,1.43,1.17,1.42,1.15,-1.14,-0.56,-1.92,0.29,0.28,0.27
282.17,1.24,0.95,1.25,0.96,-0.99,-0.48,-1.86,0.25,0.26,0.29
284.99,1.13,0.81,1.13,0.80,-0.84,-0.40,-1.79,0.30,0.29,0.32
287.84,0.97,0.63,0.98,0.63,-0.68,-0.33,-1.72,0.29,0.30,0.35
290.72,0.88,0.51,0.88,0.51,-0.53,-0.25,-1.64,0.36,0.36,0.38
293.63,0.75,0.36,0.78,0.38,-0.38,-0.18,-1.57,0.37,0.40,0.39
296.57,0.73,0.30,0.70,0.28,-0.24,-0.11,-1.49,0.49,0.45,0.43
299.53,0.56,0.12,0.59,0.14,-0.11,-0.03,-1.42,0.45,0.48,0.45
302.53,0.50,0.05,0.48,0.01,0.02,0.04,-1.34,0.52,0.49,0.45
305.55,0.30,-0.19,0.33,-0.16,0.15,0.11,-1.26,0.45,0.47,0.49
308.61,0.22,-0.28,0.21,-0.29,0.28,0.18,-1.18,0.50,0.49,0.50
311.69,0.06,-0.46,0.10,-0.43,0.41,0.25,-1.10,0.47,0.51,0.53
314.81,0.04,-0.50,0.02,-0.53,0.53,0.32,-1.02,0.58,0.55,0.55
317.96,-0.10,-0.65,-0.10,-0.65,0.65,0.39,-0.94,0.56,0.55,0.55
321.14,-0.19,-0.74,-0.21,-0.76,0.76,0.46,-0.86,0.57,0.55,0.55
324.35,-0.36,-0.90,-0.31,-0.87,0.86,0.53,-0.78,0.50,0.54,0.55
327.59,-0.41,-0.97,-0.38,-0.94,0.94,0.61,-0.70,0.53,0.56,0.57
330.87,-0.41,-0.98,-0.46,-1.03,1.02,0.68,-0.61,0.62,0.56,0.58
334.18,-0.51,-1.08,-0.52,-1.10,1.10,0.75,-0.53,0.59,0.58,0.57
337.52,-0.63,-1.22,-0.58,-1.17,1.18,0.82,-0.45,0.55,0.60,0.59
340.90,-0.64,-1.25,-0.63,-1.24,1.25,0.89,-0.37,0.62,0.63,0.61
344.30,-0.64,-1.26,-0.67,-1.30,1.32,0.97,-0.29,0.68,0.65,0.63
347.75,-0.70,-1.34,-0.72,-1.37,1.38,1.04,-0.21,0.68,0.66,0.65
351.23,-0.83,-1.49,-0.79,-1.46,1.44,1.11,-0.12,0.61,0.64,0.67
354.74,-0.87,-1.55,-0.85,-1.54,1.50,1.18,-0.04,0.63,0.64,0.68
358.28,-0.87,-1.58,-0.87,-1.59,1.56,1.25,0.04,0.69,0.68,0.71
361.87,-0.87,-1.60,-0.86,-1.59,1.62,1.31,0.12,0.76,0.76,0.73
365.49,-0.87,-1.63,-0.87,-1.63,1.68,1.37,0.20,0.82,0.81,0.76
369.14,-0.89,-1.66,-0.93,-1.70,1.74,1.43,0.29,0.85,0.81,0.77
372.83,-1.03,-1.81,-1.00,-1.79,1.79,1.48,0.37,0.77,0.79,0.79
376.56,-1.09,-1.89,-1.06,-1.87,1.84,1.53,0.45,0.75,0.78,0.81
380.33,-1.09,-1.92,-1.10,-1.93,1.88,1.57,0.53,0.79,0.78,0.84
384.13,-1.09,-1.94,-1.09,-1.94,1.92,1.61,0.61,0.83,0.82,0.86
387.97,-1.09,-1.94,-1.09,-1.94,1.95,1.64,0.69,0.86,0.86,0.85
391.85,-1.09,-1.95,-1.09,-1.95,1.97,1.66,0.77,0.88,0.88,0.86
395.77,-1.09,-1.97,-1.09,-1.96,1.98,1.68,0.85,0.89,0.89,0.88
399.73,-1.09,-1.98,-1.09,-1.98,1.99,1.69,0.93,0.90,0.90,0.89
403.72,-1.09,-1.99,-1.09,-1.99,2.00,1.70,1.01,0.91,0.91,0.90
407.76,-1.09,-2.00,-1.09,-2.00,2.01,1.71,1.09,0.92,0.92,0.91
411.84,-1.09,-2.00,-1.09,-2.01,2.02,1.71,1.17,0.93,0.93,0.92
415.96,-1.09,-2.01,-1.09,-2.01,2.01,1.71,1.25,0.93,0.93,0.93
420.12,-1.09,-2.02,-1.09,-2.03,2.00,1.71,1.33,0.92,0.91,0.94
424.32,-1.09,-2.02,-1.09,-2.03,1.98,1.71,1.40,0.90,0.89,0.94
428.56,-1.09,-2.03,-1.05,-2.00,1.96,1.71,1.47,0.87,0.91,0.95
432.85,-1.00,-1.94,-0.99,-1.94,1.93,1.71,1.55,0.94,0.94,0.95
437.18,-0.89,-1.84,-0.92,-1.88,1.91,1.71,1.62,1.02,0.99,0.95
441.55,-0.87,-1.83,-0.87,-1.83,1.89,1.71,1.69,1.02,1.02,0.96
445.96,-0.87,-1.84,-0.86,-1.83,1.87,1.71,1.75,1.01,1.02,0.97
450.42,-0.87,-1.84,-0.86,-1.84,1.86,1.71,1.81,0.99,1.00,0.97
454.93,-0.87,-1.86,-0.87,-1.85,1.84,1.72,1.88,0.98,0.98,0.99
459.48,-0.87,-1.86,-0.88,-1.88,1.83,1.72,1.93,0.96,0.95,0.99
464.07,-0.87,-1.88,-0.87,-1.88,1.82,1.73,1.99,0.95,0.95,1.01
468.71,-0.87,-1.90,-0.82,-1.84,1.81,1.73,2.04,0.94,0.99,1.03
473.40,-0.73,-1.76,-0.75,-1.78,1.80,1.74,2.09,1.07,1.05,1.03
478.13,-0.65,-1.70,-0.68,-1.72,1.78,1.74,2.13,1.13,1.10,1.05
482.91,-0.64,-1.69,-0.63,-1.69,1.75,1.75,2.17,1.12,1.12,1.06
487.74,-0.64,-1.72,-0.64,-1.73,1.72,1.76,2.20,1.09,1.08,1.09
492.62,-0.64,-1.75,-0.64,-1.75,1.69,1.77,2.24,1.06,1.06,1.12
497.55,-0.64,-1.77,-0.59,-1.73,1.68,1.78,2.26,1.04,1.09,1.14
502.52,-0.51,-1.66,-0.52,-1.68,1.67,1.79,2.29,1.16,1.15,1.16
507.55,-0.42,-1.59,-0.45,-1.63,1.67,1.80,2.30,1.25,1.22,1.18
512.62,-0.41,-1.61,-0.40,-1.61,1.67,1.81,2.32,1.27,1.27,1.21
517.75,-0.41,-1.64,-0.40,-1.63,1.67,1.82,2.33,1.26,1.27,1.24
522.93,-0.41,-1.66,-0.40,-1.66,1.66,1.83,2.34,1.25,1.25,1.26
528.16,-0.41,-1.68,-0.42,-1.70,1.65,1.84,2.34,1.24,1.22,1.28
533.44,-0.41,-1.70,-0.40,-1.70,1.64,1.85,2.34,1.23,1.23,1.30
538.77,-0.41,-1.72,-0.35,-1.67,1.63,1.87,2.33,1.22,1.28,1.32
