frequency,raw,error,smoothed,error_smoothed,equalization,parametric_eq,fixed_band_eq,equalized_raw,equalized_smoothed,target
20.00,3.11,-1.41,3.11,-1.41,1.38,0.88,0.06,4.49,4.49,4.52
20.20,3.11,-1.42,3.11,-1.42,1.41,0.85,0.06,4.52,4.52,4.53
20.40,3.11,-1.43,3.11,-1.42,1.44,0.83,0.06,4.54,4.55,4.54
20.61,3.12,-1.42,3.12,-1.43,1.45,0.80,0.07,4.57,4.57,4.54
20.81,3.12,-1.43,3.12,-1.43,1.46,0.77,0.07,4.58,4.58,4.55
21.02,3.12,-1.43,3.12,-1.43,1.46,0.75,0.08,4.58,4.58,4.55
21.23,3.13,-1.43,3.13,-1.43,1.45,0.72,0.08,4.58,4.58,4.56
21.44,3.13,-1.43,3.13,-1.43,1.43,0.69,0.08,4.56,4.56,4.56
21.66,3.14,-1.42,3.13,-1.43,1.42,0.67,0.09,4.55,4.55,4.56
21.87,3.15,-1.41,3.15,-1.41,1.38,0.64,0.09,4.53,4.54,4.56
22.09,3.18,-1.39,3.19,-1.37,1.34,0.61,0.10,4.52,4.54,4.57
22.31,3.26,-1.31,3.26,-1.31,1.29,0.59,0.10,4.55,4.54,4.57
22.54,3.34,-1.22,3.34,-1.22,1.22,0.57,0.11,4.56,4.56,4.56
22.76,3.42,-1.13,3.42,-1.13,1.14,0.54,0.11,4.56,4.56,4.55
22.99,3.50,-1.05,3.50,-1.05,1.06,0.52,0.12,4.56,4.56,4.55
23.22,3.57,-0.98,3.57,-0.97,0.98,0.50,0.12,4.55,4.55,4.55
23.45,3.64,-0.90,3.64,-0.90,0.90,0.48,0.13,4.54,4.55,4.54
23.69,3.71,-0.83,3.71,-0.82,0.83,0.46,0.14,4.54,4.55,4.54
23.92,3.78,-0.76,3.77,-0.76,0.77,0.44,0.14,4.55,4.54,4.54
24.16,3.82,-0.72,3.82,-0.72,0.73,0.43,0.15,4.55,4.54,4.54
24.40,3.84,-0.70,3.85,-0.69,0.69,0.41,0.15,4.53,4.54,4.54
24.65,3.87,-0.67,3.87,-0.66,0.67,0.39,0.16,4.54,4.54,4.53
24.89,3.90,-0.63,3.89,-0.64,0.65,0.38,0.17,4.55,4.54,4.53
25.14,3.90,-0.63,3.90,-0.63,0.65,0.36,0.17,4.54,4.54,4.53
25.39,3.89,-0.63,3.89,-0.64,0.64,0.35,0.18,4.53,4.53,4.52
25.65,3.88,-0.64,3.88,-0.65,0.64,0.33,0.19,4.52,4.51,4.52
25.91,3.86,-0.66,3.87,-0.65,0.63,0.32,0.19,4.49,4.50,4.52
26.16,3.88,-0.64,3.88,-0.64,0.62,0.31,0.20,4.50,4.50,4.52
26.43,3.90,-0.62,3.90,-0.62,0.61,0.29,0.21,4.51,4.51,4.52
26.69,3.93,-0.59,3.93,-0.59,0.60,0.28,0.21,4.53,4.53,4.52
26.96,3.96,-0.56,3.96,-0.56,0.57,0.27,0.22,4.53,4.53,4.52
27.23,3.98,-0.54,3.98,-0.54,0.53,0.26,0.23,4.51,4.52,4.52
27.50,4.01,-0.51,4.01,-0.51,0.49,0.25,0.23,4.50,4.50,4.52
27.77,4.04,-0.48,4.04,-0.48,0.44,0.24,0.24,4.48,4.48,4.52
28.05,4.07,-0.45,4.08,-0.44,0.42,0.23,0.24,4.49,4.50,4.52
28.33,4.13,-0.39,4.14,-0.38,0.41,0.22,0.25,4.54,4.55,4.52
28.62,4.18,-0.34,4.19,-0.33,0.43,0.21,0.25,4.61,4.62,4.52
28.90,4.24,-0.28,4.21,-0.31,0.43,0.20,0.26,4.67,4.64,4.52
29.19,4.19,-0.33,4.17,-0.35,0.41,0.20,0.26,4.60,4.58,4.52
29.48,4.09,-0.43,4.07,-0.45,0.36,0.19,0.27,4.45,4.43,4.52
29.78,3.99,-0.54,4.01,-0.52,0.30,0.18,0.27,4.29,4.31,4.53
30.08,3.99,-0.54,4.06,-0.47,0.25,0.17,0.28,4.24,4.31,4.53
30.38,4.25,-0.28,4.27,-0.26,0.22,0.17,0.28,4.47,4.49,4.53
30.68,4.52,-0.01,4.52,-0.01,0.19,0.16,0.28,4.71,4.71,4.53
30.99,4.79,0.26,4.66,0.13,0.16,0.15,0.28,4.95,4.82,4.53
31.30,4.60,0.08,4.59,0.06,0.12,0.15,0.28,4.72,4.71,4.53
31.61,4.38,-0.14,4.41,-0.12,0.08,0.14,0.28,4.46,4.49,4.52
31.93,4.17,-0.35,4.25,-0.27,0.07,0.13,0.28,4.24,4.32,4.52
32.24,4.23,-0.28,4.25,-0.26,0.09,0.13,0.28,4.32,4.34,4.51
32.57,4.37,-0.14,4.35,-0.16,0.12,0.12,0.28,4.49,4.47,4.51
32.89,4.51,0.00,4.47,-0.04,0.14,0.12,0.28,4.65,4.60,4.51
33.22,4.51,0.01,4.48,-0.02,0.12,0.11,0.28,4.63,4.60,4.50
33.55,4.44,-0.06,4.44,-0.05,0.06,0.10,0.28,4.50,4.50,4.50
33.89,4.36,-0.12,4.41,-0.08,-0.00,0.10,0.27,4.36,4.41,4.48
34.23,4.44,-0.04,4.46,-0.02,-0.05,0.09,0.27,4.39,4.41,4.48
34.57,4.58,0.10,4.58,0.10,-0.09,0.09,0.27,4.49,4.49,4.48
34.92,4.73,0.25,4.68,0.20,-0.12,0.09,0.26,4.61,4.56,4.48
35.27,4.72,0.24,4.70,0.23,-0.16,0.08,0.26,4.56,4.55,4.48
35.62,4.67,0.19,4.68,0.20,-0.20,0.08,0.25,4.47,4.48,4.48
35.97,4.62,0.15,4.66,0.19,-0.25,0.07,0.24,4.37,4.41,4.47
36.33,4.70,0.23,4.70,0.23,-0.29,0.07,0.24,4.41,4.41,4.47
36.70,4.79,0.32,4.77,0.31,-0.32,0.06,0.23,4.47,4.46,4.47
37.06,4.86,0.39,4.84,0.37,-0.34,0.06,0.23,4.52,4.50,4.47
37.43,4.86,0.40,4.86,0.40,-0.36,0.05,0.22,4.50,4.51,4.46
37.81,4.86,0.39,4.87,0.40,-0.38,0.05,0.21,4.48,4.49,4.47
38.19,4.86,0.39,4.86,0.39,-0.40,0.05,0.20,4.46,4.46,4.47
38.57,4.86,0.39,4.86,0.39,-0.40,0.04,0.20,4.46,4.46,4.47
38.95,4.86,0.39,4.86,0.39,-0.39,0.04,0.19,4.47,4.47,4.47
39.34,4.86,0.39,4.86,0.39,-0.38,0.03,0.18,4.48,4.48,4.47
39.74,4.86,0.39,4.86,0.39,-0.39,0.03,0.18,4.47,4.47,4.47
40.14,4.85,0.39,4.83,0.36,-0.40,0.03,0.17,4.45,4.43,4.46
40.54,4.81,0.35,4.80,0.34,-0.40,0.02,0.16,4.41,4.40,4.46
40.94,4.77,0.31,4.82,0.37,-0.40,0.02,0.15,4.37,4.42,4.46
41.35,4.87,0.42,4.89,0.44,-0.40,0.01,0.15,4.47,4.49,4.45
41.76,4.99,0.55,4.94,0.50,-0.40,0.01,0.14,4.59,4.54,4.44
42.18,4.98,0.54,4.91,0.47,-0.41,0.01,0.13,4.57,4.50,4.44
42.60,4.80,0.37,4.81,0.38,-0.41,0.00,0.12,4.39,4.40,4.43
43.03,4.65,0.22,4.76,0.34,-0.41,-0.00,0.12,4.24,4.35,4.43
43.46,4.79,0.37,4.79,0.37,-0.41,-0.00,0.11,4.38,4.37,4.42
43.90,4.93,0.52,4.84,0.43,-0.41,-0.01,0.10,4.52,4.44,4.41
44.33,4.89,0.49,4.87,0.46,-0.40,-0.01,0.09,4.48,4.46,4.40
44.78,4.79,0.39,4.84,0.44,-0.42,-0.02,0.09,4.37,4.42,4.40
45.23,4.79,0.40,4.83,0.43,-0.46,-0.02,0.08,4.33,4.37,4.39
45.68,4.89,0.50,4.87,0.48,-0.52,-0.02,0.07,4.37,4.35,4.39
46.13,4.96,0.57,4.91,0.53,-0.58,-0.03,0.06,4.38,4.33,4.39
46.60,4.96,0.57,4.96,0.57,-0.63,-0.03,0.06,4.33,4.34,4.39
47.06,4.98,0.59,5.07,0.67,-0.66,-0.04,0.05,4.32,4.40,4.39
47.53,5.17,0.78,5.18,0.78,-0.71,-0.04,0.04,4.46,4.46,4.40
48.01,5.36,0.96,5.23,0.83,-0.76,-0.05,0.03,4.60,4.47,4.40
48.49,5.21,0.81,5.22,0.82,-0.78,-0.05,0.03,4.43,4.44,4.40
48.97,5.07,0.66,5.15,0.74,-0.78,-0.05,0.02,4.29,4.37,4.41
49.46,5.09,0.68,5.09,0.68,-0.75,-0.06,0.01,4.34,4.34,4.41
49.96,5.13,0.71,5.13,0.71,-0.70,-0.06,0.01,4.43,4.43,4.42
50.46,5.13,0.71,5.15,0.72,-0.64,-0.07,-0.00,4.49,4.51,4.42
50.96,5.14,0.70,5.03,0.59,-0.57,-0.07,-0.01,4.57,4.45,4.44
51.47,4.88,0.44,4.86,0.43,-0.49,-0.08,-0.02,4.38,4.37,4.44
51.99,4.59,0.15,4.77,0.34,-0.41,-0.08,-0.02,4.18,4.37,4.44
52.51,4.72,0.28,4.72,0.28,-0.31,-0.09,-0.03,4.41,4.41,4.44
53.03,4.84,0.40,4.68,0.24,-0.20,-0.09,-0.04,4.64,4.48,4.44
53.56,4.57,0.13,4.59,0.14,-0.06,-0.10,-0.05,4.51,4.53,4.44
54.10,4.31,-0.14,4.37,-0.08,0.11,-0.11,-0.06,4.42,4.47,4.45
54.64,4.14,-0.31,4.15,-0.30,0.29,-0.11,-0.06,4.43,4.44,4.45
55.18,3.99,-0.46,4.00,-0.45,0.50,-0.12,-0.07,4.49,4.50,4.45
55.74,3.86,-0.58,3.82,-0.63,0.71,-0.12,-0.08,4.57,4.53,4.44
56.29,3.61,-0.83,3.57,-0.87,0.92,-0.13,-0.09,4.53,4.49,4.44
56.86,3.24,-1.20,3.27,-1.16,1.11,-0.14,-0.10,4.35,4.38,4.44
57.42,3.01,-1.42,3.01,-1.41,1.26,-0.14,-0.11,4.27,4.28,4.43
58.00,2.82,-1.59,2.88,-1.53,1.38,-0.15,-0.12,4.20,4.27,4.41
58.58,2.90,-1.50,2.89,-1.51,1.48,-0.16,-0.12,4.38,4.37,4.40
59.16,2.96,-1.43,2.94,-1.44,1.54,-0.17,-0.13,4.50,4.49,4.39
59.76,3.00,-1.37,2.94,-1.43,1.55,-0.18,-0.14,4.55,4.49,4.37
60.35,2.92,-1.43,2.89,-1.46,1.50,-0.18,-0.15,4.42,4.39,4.35
60.96,2.75,-1.57,2.88,-1.45,1.40,-0.19,-0.16,4.15,4.28,4.33
61.57,2.93,-1.37,2.90,-1.40,1.27,-0.20,-0.17,4.20,4.17,4.30
62.18,3.09,-1.17,3.00,-1.27,1.14,-0.21,-0.19,4.23,4.14,4.26
62.80,3.11,-1.12,3.22,-1.00,1.00,-0.22,-0.20,4.11,4.22,4.23
63.43,3.38,-0.80,3.42,-0.77,0.86,-0.23,-0.21,4.24,4.27,4.18
64.07,3.72,-0.43,3.58,-0.57,0.70,-0.25,-0.22,4.42,4.27,4.15
64.71,3.67,-0.43,3.67,-0.43,0.53,-0.26,-0.23,4.20,4.20,4.10
65.35,3.66,-0.40,3.71,-0.35,0.36,-0.27,-0.24,4.02,4.07,4.06
66.01,3.69,-0.33,3.77,-0.25,0.19,-0.28,-0.26,3.88,3.96,4.02
66.67,3.93,-0.05,3.83,-0.16,0.05,-0.30,-0.27,3.98,3.87,3.98
67.33,4.01,0.06,3.96,0.01,-0.08,-0.31,-0.28,3.93,3.88,3.95
68.01,3.93,0.02,4.15,0.23,-0.21,-0.33,-0.30,3.72,3.94,3.91
68.69,4.39,0.51,4.29,0.40,-0.34,-0.35,-0.31,4.04,3.94,3.88
69.37,4.52,0.67,4.38,0.53,-0.49,-0.36,-0.33,4.03,3.90,3.85
70.07,4.38,0.56,4.45,0.63,-0.62,-0.38,-0.34,3.76,3.83,3.82
70.77,4.36,0.57,4.45,0.66,-0.72,-0.40,-0.36,3.64,3.73,3.79
71.48,4.53,0.77,4.54,0.78,-0.80,-0.42,-0.37,3.73,3.74,3.76
72.19,4.72,0.99,4.65,0.92,-0.84,-0.44,-0.39,3.88,3.81,3.73
72.91,4.72,1.02,4.67,0.97,-0.87,-0.47,-0.41,3.85,3.80,3.70
73.64,4.55,0.89,4.59,0.93,-0.90,-0.49,-0.42,3.65,3.70,3.66
74.38,4.46,0.83,4.50,0.87,-0.93,-0.52,-0.44,3.53,3.57,3.63
75.12,4.46,0.87,4.44,0.85,-0.97,-0.54,-0.46,3.49,3.47,3.59
75.87,4.46,0.92,4.44,0.90,-1.00,-0.57,-0.48,3.46,3.45,3.54
76.63,4.46,0.95,4.50,1.00,-1.02,-0.60,-0.50,3.44,3.48,3.51
77.40,4.54,1.08,4.56,1.10,-1.03,-0.64,-0.52,3.51,3.53,3.46
78.17,4.65,1.23,4.58,1.16,-1.06,-0.67,-0.54,3.59,3.52,3.42
78.95,4.56,1.19,4.54,1.17,-1.09,-0.71,-0.56,3.46,3.44,3.37
79.74,4.41,1.08,4.46,1.13,-1.13,-0.75,-0.58,3.28,3.33,3.33
80.54,4.36,1.08,4.37,1.09,-1.15,-0.79,-0.60,3.21,3.22,3.28
81.35,4.36,1.12,4.35,1.11,-1.17,-0.84,-0.62,3.19,3.18,3.24
82.16,4.36,1.16,4.35,1.16,-1.18,-0.88,-0.65,3.18,3.18,3.20
82.98,4.36,1.20,4.36,1.20,-1.20,-0.93,-0.67,3.16,3.16,3.16
83.81,4.36,1.25,4.36,1.24,-1.23,-0.98,-0.69,3.13,3.13,3.11
84.65,4.36,1.28,4.36,1.28,-1.27,-1.04,-0.72,3.09,3.09,3.08
85.50,4.36,1.32,4.36,1.32,-1.32,-1.09,-0.74,3.04,3.04,3.04
86.35,4.36,1.37,4.36,1.37,-1.36,-1.15,-0.77,2.99,2.99,2.99
87.22,4.36,1.41,4.36,1.41,-1.41,-1.22,-0.80,2.95,2.95,2.95
88.09,4.36,1.45,4.36,1.45,-1.45,-1.28,-0.83,2.91,2.91,2.91
88.97,4.36,1.49,4.36,1.49,-1.49,-1.35,-0.85,2.87,2.87,2.87
89.86,4.36,1.54,4.36,1.54,-1.54,-1.41,-0.88,2.82,2.82,2.82
90.76,4.36,1.58,4.36,1.58,-1.59,-1.48,-0.91,2.77,2.77,2.78
91.66,4.36,1.62,4.36,1.62,-1.64,-1.55,-0.94,2.72,2.72,2.74
92.58,4.37,1.67,4.37,1.67,-1.68,-1.61,-0.98,2.69,2.69,2.70
93.51,4.37,1.71,4.37,1.71,-1.70,-1.68,-1.01,2.67,2.67,2.66
94.44,4.37,1.75,4.38,1.75,-1.72,-1.74,-1.04,2.65,2.65,2.62
95.39,4.36,1.78,4.38,1.80,-1.74,-1.79,-1.07,2.62,2.64,2.58
96.34,4.36,1.82,4.32,1.78,-1.75,-1.84,-1.11,2.60,2.57,2.54
97.30,4.28,1.77,4.22,1.72,-1.77,-1.88,-1.14,2.51,2.45,2.50
98.28,4.07,1.61,4.15,1.69,-1.76,-1.92,-1.17,2.31,2.39,2.46
99.26,4.06,1.64,4.12,1.70,-1.74,-1.94,-1.21,2.32,2.38,2.42
100.25,4.20,1.82,4.12,1.74,-1.71,-1.96,-1.24,2.49,2.41,2.38
101.25,4.13,1.79,4.13,1.79,-1.68,-1.96,-1.28,2.45,2.45,2.34
102.27,4.05,1.76,4.05,1.76,-1.67,-1.96,-1.31,2.38,2.38,2.29
103.29,3.91,1.67,3.88,1.63,-1.67,-1.94,-1.35,2.24,2.20,2.24
104.32,3.73,1.54,3.74,1.55,-1.68,-1.92,-1.38,2.05,2.06,2.19
105.37,3.61,1.46,3.70,1.55,-1.67,-1.89,-1.42,1.94,2.03,2.15
106.42,3.74,1.64,3.76,1.66,-1.66,-1.85,-1.45,2.08,2.10,2.10
107.48,3.90,1.85,3.80,1.75,-1.66,-1.80,-1.48,2.24,2.15,2.05
108.56,3.84,1.84,3.78,1.77,-1.66,-1.75,-1.51,2.18,2.12,2.00
109.64,3.58,1.62,3.66,1.70,-1.67,-1.69,-1.55,1.91,1.99,1.95
110.74,3.51,1.59,3.54,1.62,-1.67,-1.63,-1.58,1.84,1.86,1.92
111.85,3.49,1.61,3.48,1.60,-1.66,-1.57,-1.60,1.83,1.82,1.88
112.97,3.48,1.64,3.47,1.63,-1.63,-1.52,-1.63,1.85,1.84,1.84
114.10,3.45,1.65,3.44,1.64,-1.59,-1.46,-1.66,1.86,1.85,1.80
115.24,3.37,1.60,3.39,1.62,-1.57,-1.40,-1.68,1.80,1.81,1.77
116.39,3.31,1.58,3.25,1.51,-1.57,-1.34,-1.70,1.74,1.68,1.73
117.55,3.17,1.45,3.17,1.45,-1.56,-1.29,-1.72,1.61,1.60,1.72
118.73,3.00,1.31,3.19,1.50,-1.55,-1.24,-1.73,1.45,1.64,1.69
119.92,3.31,1.64,3.20,1.53,-1.52,-1.19,-1.75,1.79,1.68,1.67
121.12,3.34,1.69,3.19,1.54,-1.47,-1.15,-1.76,1.87,1.73,1.65
122.33,3.02,1.38,3.19,1.55,-1.41,-1.11,-1.77,1.61,1.78,1.64
123.55,3.00,1.38,2.99,1.37,-1.34,-1.07,-1.77,1.66,1.65,1.62
124.79,2.97,1.36,2.81,1.20,-1.25,-1.04,-1.77,1.72,1.56,1.61
126.03,2.52,0.93,2.71,1.12,-1.12,-1.01,-1.77,1.40,1.59,1.59
127.29,2.57,0.99,2.56,0.98,-0.97,-0.99,-1.77,1.60,1.59,1.58
128.57,2.54,0.98,2.42,0.86,-0.83,-0.96,-1.76,1.71,1.59,1.56
129.85,2.26,0.71,2.32,0.77,-0.73,-0.95,-1.75,1.53,1.59,1.55
131.15,2.15,0.61,2.15,0.61,-0.67,-0.93,-1.74,1.48,1.48,1.54
132.46,1.99,0.48,1.97,0.46,-0.64,-0.92,-1.73,1.35,1.34,1.51
133.79,1.93,0.43,1.92,0.42,-0.60,-0.92,-1.71,1.33,1.31,1.50
135.12,1.87,0.39,2.01,0.52,-0.54,-0.92,-1.69,1.33,1.46,1.48
136.48,2.14,0.67,2.16,0.69,-0.48,-0.92,-1.67,1.66,1.68,1.47
137.84,2.40,0.95,2.19,0.75,-0.43,-0.93,-1.64,1.97,1.76,1.45
139.22,2.11,0.68,2.06,0.63,-0.40,-0.94,-1.62,1.71,1.66,1.43
140.61,1.68,0.27,1.79,0.38,-0.41,-0.95,-1.59,1.27,1.38,1.41
142.02,1.50,0.11,1.57,0.18,-0.46,-0.97,-1.56,1.04,1.10,1.39
143.44,1.59,0.23,1.58,0.22,-0.55,-1.00,-1.53,1.04,1.03,1.36
144.87,1.79,0.45,1.78,0.44,-0.66,-1.03,-1.50,1.13,1.12,1.34
146.32,2.07,0.76,2.06,0.75,-0.80,-1.07,-1.47,1.27,1.26,1.31
147.78,2.33,1.06,2.36,1.08,-0.97,-1.11,-1.44,1.36,1.39,1.27
149.26,2.62,1.38,2.60,1.37,-1.15,-1.16,-1.40,1.47,1.46,1.24
150.75,2.81,1.62,2.75,1.56,-1.31,-1.21,-1.37,1.50,1.44,1.19
152.26,2.75,1.61,2.77,1.63,-1.44,-1.27,-1.34,1.31,1.33,1.14
153.78,2.68,1.59,2.67,1.59,-1.54,-1.33,-1.30,1.14,1.13,1.08
155.32,2.54,1.52,2.53,1.51,-1.61,-1.40,-1.27,0.93,0.92,1.02
156.88,2.40,1.43,2.43,1.46,-1.68,-1.47,-1.24,0.72,0.75,0.97
158.44,2.41,1.50,2.41,1.50,-1.74,-1.55,-1.20,0.67,0.67,0.91
160.03,2.46,1.60,2.53,1.67,-1.80,-1.62,-1.17,0.66,0.73,0.86
161.63,2.73,1.91,2.72,1.91,-1.85,-1.70,-1.14,0.88,0.87,0.81
163.24,2.93,2.17,2.87,2.10,-1.91,-1.76,-1.11,1.02,0.96,0.76
164.88,2.94,2.20,2.92,2.18,-1.96,-1.83,-1.08,0.98,0.96,0.73
166.53,2.80,2.09,2.81,2.10,-1.99,-1.88,-1.05,0.81,0.81,0.71
168.19,2.65,1.96,2.65,1.96,-2.00,-1.92,-1.02,0.65,0.64,0.69
169.87,2.47,1.79,2.53,1.86,-1.98,-1.94,-0.99,0.49,0.55,0.68
171.57,2.48,1.81,2.48,1.81,-1.92,-1.94,-0.96,0.56,0.56,0.67
173.29,2.51,1.84,2.47,1.79,-1.84,-1.93,-0.93,0.67,0.63,0.67
175.02,2.46,1.77,2.45,1.77,-1.75,-1.90,-0.90,0.71,0.70,0.69
176.77,2.41,1.71,2.44,1.74,-1.68,-1.84,-0.88,0.73,0.76,0.70
178.54,2.38,1.66,2.42,1.70,-1.62,-1.78,-0.85,0.76,0.80,0.72
180.32,2.42,1.68,2.34,1.60,-1.57,-1.70,-0.83,0.85,0.76,0.74
182.13,2.28,1.52,2.21,1.45,-1.50,-1.60,-0.81,0.78,0.71,0.76
183.95,2.00,1.22,2.15,1.37,-1.42,-1.50,-0.78,0.58,0.72,0.78
185.79,2.06,1.27,2.11,1.33,-1.35,-1.40,-0.76,0.71,0.76,0.79
187.65,2.24,1.44,2.07,1.28,-1.27,-1.30,-0.74,0.97,0.80,0.79
189.52,2.06,1.26,2.05,1.25,-1.20,-1.19,-0.72,0.86,0.85,0.80
191.42,1.82,1.02,1.93,1.13,-1.13,-1.09,-0.70,0.69,0.81,0.80
193.33,1.86,1.05,1.82,1.02,-1.06,-0.99,-0.68,0.80,0.76,0.81
195.27,1.79,0.98,1.82,1.02,-1.00,-0.89,-0.66,0.79,0.82,0.81
197.22,1.80,1.01,1.78,0.98,-0.94,-0.80,-0.64,0.86,0.85,0.79
199.19,1.77,0.98,1.65,0.86,-0.87,-0.71,-0.62,0.90,0.78,0.79
201.18,1.45,0.67,1.56,0.78,-0.81,-0.63,-0.61,0.64,0.75,0.78
203.19,1.41,0.64,1.49,0.72,-0.75,-0.55,-0.59,0.66,0.74,0.77
205.23,1.55,0.79,1.44,0.67,-0.69,-0.48,-0.57,0.86,0.74,0.76
207.28,1.44,0.69,1.43,0.68,-0.63,-0.41,-0.55,0.81,0.79,0.75
209.35,1.31,0.57,1.36,0.62,-0.57,-0.35,-0.53,0.74,0.78,0.74
211.44,1.26,0.53,1.25,0.52,-0.52,-0.29,-0.52,0.74,0.73,0.72
213.56,1.18,0.46,1.18,0.47,-0.48,-0.23,-0.50,0.70,0.70,0.72
215.69,1.12,0.42,1.11,0.41,-0.44,-0.17,-0.48,0.68,0.68,0.70
217.85,1.05,0.36,1.03,0.35,-0.39,-0.12,-0.46,0.66,0.64,0.69
220.03,0.97,0.30,1.00,0.33,-0.34,-0.07,-0.44,0.63,0.67,0.67
222.23,0.94,0.27,0.98,0.32,-0.28,-0.03,-0.42,0.66,0.70,0.66
224.45,1.01,0.35,0.91,0.25,-0.23,0.02,-0.40,0.78,0.68,0.66
226.70,0.87,0.22,0.87,0.21,-0.17,0.06,-0.37,0.70,0.69,0.65
228.96,0.65,0.01,0.80,0.15,-0.11,0.10,-0.35,0.54,0.68,0.64
231.25,0.82,0.17,0.66,0.01,-0.05,0.14,-0.32,0.77,0.60,0.65
233.57,0.60,-0.04,0.62,-0.03,0.00,0.18,-0.30,0.60,0.62,0.64
235.90,0.44,-0.21,0.60,-0.05,0.05,0.21,-0.27,0.49,0.65,0.65
238.26,0.67,0.02,0.50,-0.15,0.09,0.25,-0.24,0.76,0.59,0.65
240.64,0.50,-0.16,0.49,-0.18,0.13,0.28,-0.21,0.63,0.61,0.66
243.05,0.37,-0.30,0.52,-0.15,0.16,0.32,-0.18,0.53,0.68,0.67
245.48,0.53,-0.14,0.49,-0.18,0.19,0.35,-0.14,0.72,0.69,0.67
247.93,0.62,-0.06,0.51,-0.17,0.22,0.38,-0.10,0.84,0.73,0.68
250.41,0.43,-0.25,0.48,-0.20,0.27,0.41,-0.06,0.70,0.75,0.68
252.92,0.35,-0.34,0.38,-0.31,0.31,0.44,-0.02,0.66,0.69,0.69
255.45,0.30,-0.39,0.28,-0.40,0.36,0.48,0.02,0.66,0.64,0.69
258.00,0.24,-0.44,0.24,-0.44,0.42,0.51,0.07,0.66,0.66,0.68
260.58,0.18,-0.50,0.18,-0.50,0.48,0.54,0.12,0.66,0.66,0.68
263.19,0.13,-0.54,0.10,-0.57,0.55,0.57,0.17,0.68,0.65,0.67
265.82,0.02,-0.65,0.04,-0.63,0.63,0.60,0.22,0.65,0.67,0.67
268.48,-0.03,-0.70,0.01,-0.65,0.70,0.63,0.27,0.67,0.72,0.67
271.16,-0.03,-0.69,-0.08,-0.74,0.77,0.66,0.33,0.74,0.70,0.66
273.87,-0.10,-0.76,-0.20,-0.85,0.85,0.69,0.39,0.75,0.65,0.66
276.61,-0.42,-1.08,-0.28,-0.94,0.93,0.72,0.45,0.51,0.65,0.66
279.38,-0.41,-1.06,-0.38,-1.03,1.01,0.75,0.51,0.60,0.63,0.65
282.17,-0.33,-0.99,-0.49,-1.15,1.09,0.78,0.58,0.76,0.60,0.66
284.99,-0.55,-1.22,-0.49,-1.15,1.17,0.81,0.65,0.62,0.68,0.67
287.84,-0.68,-1.34,-0.53,-1.20,1.24,0.84,0.71,0.56,0.70,0.66
290.72,-0.44,-1.11,-0.63,-1.30,1.30,0.87,0.78,0.86,0.67,0.67
293.63,-0.69,-1.37,-0.69,-1.37,1.36,0.90,0.86,0.67,0.67,0.68
296.57,-0.86,-1.55,-0.76,-1.44,1.43,0.93,0.93,0.57,0.68,0.69
299.53,-0.84,-1.52,-0.81,-1.50,1.50,0.97,1.01,0.66,0.69,0.68
302.53,-0.78,-1.47,-0.84,-1.53,1.56,1.00,1.09,0.78,0.72,0.69
305.55,-0.80,-1.49,-0.91,-1.60,1.63,1.03,1.16,0.83,0.71,0.69
308.61,-1.13,-1.82,-1.01,-1.69,1.68,1.07,1.25,0.55,0.67,0.69
311.69,-1.14,-1.82,-1.09,-1.78,1.72,1.10,1.33,0.58,0.62,0.68
314.81,-1.05,-1.72,-1.14,-1.81,1.76,1.14,1.41,0.71,0.62,0.67
317.96,-1.13,-1.80,-1.11,-1.78,1.80,1.17,1.50,0.67,0.69,0.67
321.14,-1.17,-1.83,-1.15,-1.81,1.85,1.21,1.59,0.68,0.70,0.66
324.35,-1.18,-1.84,-1.21,-1.87,1.89,1.25,1.68,0.71,0.68,0.66
327.59,-1.28,-1.93,-1.24,-1.88,1.93,1.28,1.77,0.65,0.69,0.65
330.87,-1.30,-1.93,-1.33,-1.96,1.96,1.32,1.86,0.66,0.64,0.63
334.18,-1.35,-1.97,-1.43,-2.05,2.00,1.36,1.96,0.65,0.57,0.62
337.52,-1.60,-2.21,-1.49,-2.10,2.05,1.40,2.06,0.45,0.56,0.61
340.90,-1.53,-2.14,-1.52,-2.12,2.11,1.44,2.15,0.58,0.59,0.61
344.30,-1.49,-2.09,-1.53,-2.13,2.17,1.49,2.26,0.68,0.64,0.60
347.75,-1.53,-2.11,-1.58,-2.16,2.24,1.53,2.36,0.71,0.65,0.58
351.23,-1.70,-2.27,-1.70,-2.27,2.30,1.57,2.46,0.60,0.60,0.57
354.74,-1.91,-2.46,-1.80,-2.36,2.36,1.62,2.57,0.45,0.55,0.55
358.28,-1.88,-2.42,-1.92,-2.46,2.41,1.67,2.68,0.53,0.49,0.54
361.87,-1.90,-2.43,-1.99,-2.52,2.47,1.71,2.79,0.57,0.47,0.53
365.49,-2.14,-2.65,-2.02,-2.54,2.52,1.76,2.90,0.38,0.50,0.51
369.14,-2.07,-2.57,-2.07,-2.57,2.57,1.81,3.02,0.50,0.50,0.50
372.83,-2.04,-2.53,-2.11,-2.60,2.61,1.86,3.13,0.57,0.50,0.49
376.56,-2.14,-2.62,-2.12,-2.60,2.64,1.92,3.25,0.50,0.51,0.48
380.33,-2.22,-2.69,-2.20,-2.67,2.66,1.97,3.37,0.44,0.46,0.47
384.13,-2.26,-2.72,-2.27,-2.72,2.70,2.03,3.49,0.44,0.43,0.46
387.97,-2.32,-2.77,-2.31,-2.75,2.75,2.08,3.61,0.43,0.44,0.45
391.85,-2.34,-2.77,-2.35,-2.78,2.81,2.14,3.74,0.47,0.46,0.43
395.77,-2.40,-2.82,-2.40,-2.83,2.88,2.20,3.86,0.48,0.47,0.42
399.73,-2.48,-2.89,-2.50,-2.91,2.95,2.26,3.99,0.47,0.45,0.41
403.72,-2.62,-3.02,-2.63,-3.03,3.02,2.32,4.12,0.40,0.39,0.40
407.76,-2.78,-3.16,-2.74,-3.13,3.09,2.39,4.24,0.31,0.35,0.38
411.84,-2.84,-3.21,-2.84,-3.21,3.16,2.45,4.37,0.32,0.32,0.37
415.96,-2.88,-3.24,-2.90,-3.26,3.23,2.52,4.50,0.35,0.33,0.36
420.12,-2.94,-3.30,-2.93,-3.29,3.29,2.59,4.62,0.35,0.36,0.36
424.32,-2.99,-3.34,-2.99,-3.34,3.36,2.66,4.75,0.37,0.37,0.35
428.56,-3.02,-3.37,-3.04,-3.39,3.42,2.73,4.87,0.39,0.38,0.35
432.85,-3.11,-3.47,-3.07,-3.42,3.46,2.81,4.99,0.35,0.40,0.36
437.18,-3.10,-3.47,-3.15,-3.51,3.51,2.88,5.11,0.41,0.37,0.37
441.55,-3.18,-3.57,-3.22,-3.61,3.57,2.96,5.22,0.39,0.35,0.39
445.96,-3.35,-3.76,-3.25,-3.65,3.63,3.04,5.33,0.28,0.38,0.41
450.42,-3.26,-3.70,-3.26,-3.70,3.69,3.12,5.43,0.43,0.43,0.44
454.93,-3.18,-3.66,-3.26,-3.73,3.75,3.21,5.53,0.57,0.49,0.48
459.48,-3.28,-3.80,-3.26,-3.77,3.81,3.29,5.62,0.53,0.54,0.52
464.07,-3.33,-3.88,-3.32,-3.87,3.87,3.38,5.70,0.54,0.55,0.54
468.71,-3.38,-3.96,-3.36,-3.94,3.93,3.47,5.78,0.55,0.57,0.58
473.40,-3.36,-3.98,-3.36,-3.99,3.99,3.56,5.84,0.63,0.62,0.62
478.13,-3.35,-4.01,-3.39,-4.05,4.06,3.65,5.90,0.71,0.67,0.66
482.91,-3.44,-4.13,-3.43,-4.12,4.13,3.74,5.94,0.69,0.70,0.69
487.74,-3.50,-4.22,-3.49,-4.21,4.21,3.84,5.98,0.71,0.72,0.72
492.62,-3.54,-4.28,-3.53,-4.28,4.27,3.94,6.00,0.73,0.74,0.74
497.55,-3.57,-4.33,-3.58,-4.34,4.34,4.03,6.01,0.77,0.76,0.76
502.52,-3.61,-4.38,-3.64,-4.41,4.40,4.13,6.01,0.79,0.75,0.77
507.55,-3.73,-4.50,-3.71,-4.48,4.46,4.24,6.00,0.73,0.75,0.77
512.62,-3.80,-4.56,-3.76,-4.53,4.51,4.34,5.98,0.71,0.75,0.76
517.75,-3.79,-4.53,-3.83,-4.57,4.57,4.44,5.94,0.78,0.74,0.74
522.93,-3.88,-4.60,-3.89,-4.61,4.63,4.54,5.90,0.75,0.74,0.72
528.16,-4.01,-4.69,-3.99,-4.67,4.69,4.65,5.85,0.68,0.70,0.68
533.44,-4.11,-4.74,-4.12,-4.75,4.77,4.75,5.78,0.66,0.65,0.63
538.77,-4.26,-4.84,-4.25,-4.83,4.85,4.85,5.71,0.59,0.60,0.58
544.16,-4.39,-4.91,-4.40,-4.93,4.94,4.96,5.62,0.55,0.53,0.52
549.60,-4.57,-5.03,-4.58,-5.04,5.03,5.06,5.53,0.46,0.45,0.46
