frequency,raw,error,smoothed,error_smoothed,equalization,parametric_eq,fixed_band_eq,equalized_raw,equalized_smoothed,target
20.00,-11.94,-13.39,-11.94,-13.39,6.00,6.98,2.86,-5.94,-5.94,1.45
20.20,-11.85,-13.30,-11.85,-13.30,6.00,6.96,2.94,-5.85,-5.85,1.45
20.40,-11.77,-13.22,-11.76,-13.21,6.00,6.94,3.03,-5.77,-5.76,1.45
20.61,-11.66,-13.11,-11.66,-13.11,6.00,6.92,3.11,-5.66,-5.66,1.45
20.81,-11.55,-13.00,-11.54,-12.99,6.00,6.89,3.20,-5.55,-5.54,1.45
21.02,-11.42,-12.87,-11.42,-12.87,6.00,6.87,3.29,-5.42,-5.42,1.45
21.23,-11.29,-12.74,-11.30,-12.74,6.00,6.85,3.39,-5.29,-5.30,1.45
21.44,-11.18,-12.62,-11.17,-12.62,6.00,6.83,3.49,-5.18,-5.17,1.45
21.66,-11.05,-12.50,-11.05,-12.49,6.00,6.80,3.58,-5.05,-5.05,1.45
21.87,-10.92,-12.36,-10.92,-12.37,6.00,6.78,3.69,-4.92,-4.92,1.45
22.09,-10.81,-12.25,-10.81,-12.25,6.00,6.76,3.79,-4.81,-4.81,1.45
22.31,-10.69,-12.13,-10.68,-12.13,6.00,6.73,3.90,-4.69,-4.68,1.45
22.54,-10.57,-12.02,-10.56,-12.01,6.00,6.71,4.01,-4.57,-4.56,1.45
22.76,-10.43,-11.87,-10.44,-11.88,6.00,6.68,4.13,-4.43,-4.44,1.45
22.99,-10.32,-11.76,-10.31,-11.76,6.00,6.66,4.24,-4.32,-4.31,1.45
23.22,-10.19,-11.63,-10.19,-11.63,6.00,6.63,4.36,-4.19,-4.19,1.45
23.45,-10.06,-11.50,-10.07,-11.51,6.00,6.60,4.48,-4.06,-4.07,1.44
23.69,-9.95,-11.39,-9.94,-11.39,6.00,6.58,4.61,-3.95,-3.94,1.44
23.92,-9.83,-11.27,-9.83,-11.27,6.00,6.55,4.74,-3.83,-3.83,1.44
24.16,-9.71,-11.15,-9.70,-11.15,6.00,6.53,4.87,-3.71,-3.70,1.44
24.40,-9.58,-11.02,-9.58,-11.02,6.00,6.50,5.00,-3.58,-3.58,1.44
24.65,-9.45,-10.89,-9.45,-10.89,6.00,6.47,5.13,-3.45,-3.45,1.44
24.89,-9.34,-10.78,-9.33,-10.77,6.00,6.44,5.27,-3.34,-3.33,1.44
25.14,-9.21,-10.65,-9.21,-10.65,6.00,6.42,5.41,-3.21,-3.21,1.44
25.39,-9.10,-10.54,-9.09,-10.53,6.00,6.39,5.54,-3.10,-3.09,1.44
25.65,-8.97,-10.41,-8.96,-10.40,6.00,6.36,5.68,-2.97,-2.96,1.44
25.91,-8.83,-10.27,-8.84,-10.28,6.00,6.34,5.82,-2.83,-2.84,1.44
26.16,-8.72,-10.15,-8.71,-10.15,6.00,6.31,5.96,-2.72,-2.71,1.44
26.43,-8.59,-10.03,-8.59,-10.03,6.00,6.28,6.10,-2.59,-2.59,1.44
26.69,-8.47,-9.90,-8.47,-9.91,6.00,6.25,6.24,-2.47,-2.47,1.44
26.96,-8.35,-9.78,-8.35,-9.79,6.00,6.22,6.38,-2.35,-2.35,1.44
27.23,-8.24,-9.67,-8.23,-9.67,6.00,6.20,6.51,-2.24,-2.23,1.43
27.50,-8.11,-9.54,-8.11,-9.54,6.00,6.17,6.64,-2.11,-2.11,1.43
27.77,-7.98,-9.41,-7.99,-9.42,6.00,6.14,6.76,-1.98,-1.99,1.43
28.05,-7.87,-9.30,-7.86,-9.29,6.00,6.12,6.88,-1.87,-1.86,1.43
28.33,-7.74,-9.17,-7.74,-9.17,6.00,6.09,6.99,-1.74,-1.74,1.43
28.62,-7.61,-9.04,-7.62,-9.05,6.00,6.07,7.10,-1.61,-1.62,1.43
28.90,-7.50,-8.93,-7.49,-8.92,6.00,6.04,7.19,-1.50,-1.49,1.43
29.19,-7.38,-8.81,-7.37,-8.80,6.00,6.02,7.28,-1.38,-1.37,1.43
29.48,-7.26,-8.68,-7.26,-8.68,6.00,5.99,7.36,-1.26,-1.26,1.43
29.78,-7.13,-8.55,-7.14,-8.56,6.00,5.97,7.43,-1.13,-1.14,1.43
30.08,-7.02,-8.44,-7.01,-8.43,6.00,5.95,7.48,-1.02,-1.01,1.42
30.38,-6.88,-8.30,-6.88,-8.30,6.00,5.93,7.52,-0.88,-0.88,1.42
30.68,-6.75,-8.17,-6.76,-8.18,6.00,5.92,7.54,-0.75,-0.76,1.42
30.99,-6.64,-8.06,-6.64,-8.06,6.00,5.90,7.56,-0.64,-0.64,1.42
31.30,-6.54,-7.96,-6.52,-7.94,6.00,5.89,7.56,-0.54,-0.52,1.42
31.61,-6.40,-7.82,-6.40,-7.82,6.00,5.88,7.54,-0.40,-0.40,1.42
31.93,-6.27,-7.69,-6.28,-7.70,6.00,5.87,7.51,-0.27,-0.28,1.42
32.24,-6.16,-7.57,-6.16,-7.57,6.00,5.87,7.47,-0.16,-0.16,1.41
32.57,-6.05,-7.46,-6.04,-7.45,6.00,5.87,7.41,-0.05,-0.04,1.41
32.89,-5.92,-7.33,-5.92,-7.33,6.00,5.87,7.35,0.08,0.08,1.41
33.22,-5.79,-7.20,-5.80,-7.21,6.00,5.88,7.26,0.21,0.20,1.41
33.55,-5.68,-7.08,-5.68,-7.08,6.00,5.88,7.17,0.32,0.32,1.41
33.89,-5.57,-6.97,-5.56,-6.97,6.00,5.90,7.07,0.43,0.44,1.41
34.23,-5.44,-6.84,-5.44,-6.85,6.00,5.91,6.96,0.56,0.56,1.40
34.57,-5.33,-6.73,-5.32,-6.73,6.01,5.92,6.83,0.68,0.69,1.40
34.92,-5.20,-6.60,-5.20,-6.60,6.02,5.93,6.71,0.82,0.81,1.40
35.27,-5.09,-6.49,-5.09,-6.49,6.02,5.94,6.57,0.93,0.93,1.40
35.62,-4.98,-6.37,-4.97,-6.37,6.02,5.94,6.43,1.04,1.05,1.40
35.97,-4.86,-6.25,-4.86,-6.25,6.00,5.93,6.29,1.15,1.15,1.39
36.33,-4.74,-6.13,-4.73,-6.13,5.97,5.91,6.14,1.24,1.24,1.39
36.70,-4.61,-6.00,-4.61,-6.00,5.92,5.86,5.99,1.31,1.31,1.39
37.06,-4.50,-5.88,-4.50,-5.88,5.85,5.81,5.84,1.36,1.35,1.39
37.43,-4.39,-5.77,-4.39,-5.77,5.77,5.74,5.69,1.38,1.38,1.38
37.81,-4.28,-5.66,-4.27,-5.65,5.66,5.65,5.53,1.39,1.39,1.38
38.19,-4.16,-5.54,-4.15,-5.53,5.55,5.55,5.38,1.39,1.40,1.38
38.57,-4.02,-5.39,-4.03,-5.40,5.43,5.44,5.23,1.41,1.40,1.37
38.95,-3.91,-5.28,-3.91,-5.28,5.30,5.31,5.07,1.39,1.39,1.37
39.34,-3.80,-5.16,-3.79,-5.16,5.17,5.18,4.92,1.37,1.38,1.37
39.74,-3.69,-5.05,-3.69,-5.06,5.05,5.05,4.77,1.36,1.36,1.36
40.14,-3.58,-4.94,-3.58,-4.94,4.93,4.92,4.62,1.35,1.35,1.36
40.54,-3.48,-4.84,-3.46,-4.82,4.81,4.78,4.47,1.33,1.35,1.36
40.94,-3.32,-4.67,-3.33,-4.69,4.69,4.65,4.33,1.37,1.35,1.35
41.35,-3.21,-4.56,-3.21,-4.56,4.57,4.52,4.18,1.36,1.36,1.35
41.76,-3.10,-4.44,-3.09,-4.44,4.45,4.39,4.04,1.36,1.36,1.35
42.18,-2.99,-4.33,-2.99,-4.33,4.34,4.27,3.91,1.35,1.35,1.34
42.60,-2.89,-4.22,-2.88,-4.22,4.22,4.14,3.77,1.33,1.34,1.34
43.03,-2.78,-4.11,-2.78,-4.11,4.11,4.02,3.64,1.33,1.33,1.33
43.46,-2.67,-4.00,-2.67,-4.00,3.99,3.91,3.50,1.33,1.33,1.33
43.90,-2.56,-3.88,-2.56,-3.88,3.88,3.79,3.38,1.32,1.32,1.32
44.33,-2.45,-3.77,-2.45,-3.77,3.76,3.68,3.25,1.31,1.31,1.32
44.78,-2.34,-3.65,-2.34,-3.65,3.64,3.56,3.12,1.30,1.30,1.31
45.23,-2.23,-3.54,-2.22,-3.53,3.52,3.45,3.00,1.29,1.30,1.31
45.68,-2.10,-3.40,-2.10,-3.40,3.40,3.34,2.88,1.30,1.30,1.30
46.13,-1.97,-3.26,-1.97,-3.27,3.28,3.23,2.77,1.32,1.31,1.30
46.60,-1.86,-3.15,-1.86,-3.15,3.16,3.13,2.65,1.31,1.30,1.29
47.06,-1.76,-3.04,-1.76,-3.04,3.05,3.02,2.54,1.29,1.29,1.28
47.53,-1.67,-2.95,-1.66,-2.94,2.94,2.91,2.43,1.27,1.28,1.28
48.01,-1.56,-2.83,-1.56,-2.83,2.82,2.80,2.32,1.27,1.27,1.27
48.49,-1.45,-2.71,-1.46,-2.72,2.71,2.70,2.22,1.27,1.26,1.26
48.97,-1.36,-2.61,-1.35,-2.61,2.61,2.59,2.12,1.25,1.26,1.26
49.46,-1.25,-2.50,-1.25,-2.50,2.50,2.48,2.01,1.25,1.25,1.25
49.96,-1.15,-2.39,-1.15,-2.40,2.39,2.38,1.91,1.24,1.24,1.24
50.46,-1.06,-2.29,-1.05,-2.28,2.28,2.27,1.82,1.23,1.24,1.23
50.96,-0.95,-2.17,-0.95,-2.17,2.18,2.17,1.72,1.23,1.23,1.23
51.47,-0.84,-2.06,-0.85,-2.07,2.07,2.06,1.63,1.23,1.22,1.22
51.99,-0.76,-1.97,-0.75,-1.96,1.96,1.96,1.54,1.21,1.21,1.21
52.51,-0.67,-1.87,-0.66,-1.86,1.86,1.86,1.45,1.19,1.20,1.20
53.03,-0.56,-1.75,-0.57,-1.76,1.76,1.76,1.36,1.20,1.18,1.19
53.56,-0.48,-1.66,-0.47,-1.65,1.65,1.66,1.27,1.17,1.18,1.18
54.10,-0.39,-1.56,-0.38,-1.55,1.55,1.57,1.19,1.16,1.17,1.17
54.64,-0.28,-1.44,-0.29,-1.45,1.45,1.47,1.11,1.18,1.16,1.16
55.18,-0.22,-1.37,-0.20,-1.35,1.36,1.38,1.03,1.14,1.15,1.15
55.74,-0.11,-1.25,-0.12,-1.26,1.26,1.29,0.95,1.15,1.14,1.14
56.29,-0.05,-1.17,-0.04,-1.17,1.17,1.20,0.87,1.12,1.13,1.13
56.86,0.04,-1.07,0.04,-1.08,1.08,1.12,0.79,1.12,1.11,1.12
57.42,0.11,-0.99,0.11,-0.99,0.99,1.04,0.72,1.10,1.10,1.10
58.00,0.19,-0.90,0.20,-0.89,0.90,0.96,0.65,1.09,1.09,1.09
58.58,0.27,-0.81,0.27,-0.81,0.81,0.88,0.58,1.08,1.08,1.08
59.16,0.35,-0.71,0.34,-0.72,0.72,0.80,0.51,1.07,1.06,1.06
59.76,0.40,-0.65,0.41,-0.64,0.63,0.72,0.44,1.04,1.05,1.05
60.35,0.48,-0.55,0.49,-0.55,0.55,0.65,0.38,1.03,1.03,1.04
60.96,0.56,-0.46,0.56,-0.46,0.47,0.57,0.31,1.03,1.02,1.02
61.57,0.63,-0.37,0.63,-0.38,0.38,0.50,0.25,1.01,1.01,1.01
62.18,0.69,-0.30,0.69,-0.30,0.30,0.42,0.19,0.99,0.99,0.99
62.80,0.75,-0.22,0.75,-0.22,0.22,0.35,0.13,0.97,0.97,0.97
63.43,0.81,-0.15,0.82,-0.14,0.14,0.27,0.07,0.95,0.96,0.96
64.07,0.88,-0.06,0.88,-0.06,0.06,0.20,0.01,0.94,0.94,0.94
64.71,0.94,0.02,0.94,0.02,-0.02,0.12,-0.04,0.92,0.92,0.92
65.35,1.00,0.10,1.00,0.10,-0.10,0.05,-0.10,0.90,0.90,0.91
66.01,1.06,0.18,1.06,0.18,-0.18,-0.03,-0.15,0.88,0.88,0.89
66.67,1.12,0.25,1.13,0.26,-0.26,-0.10,-0.20,0.86,0.87,0.87
67.33,1.19,0.34,1.19,0.34,-0.34,-0.18,-0.25,0.86,0.85,0.85
68.01,1.25,0.42,1.25,0.42,-0.41,-0.26,-0.30,0.84,0.83,0.83
68.69,1.30,0.49,1.30,0.49,-0.49,-0.34,-0.35,0.81,0.81,0.81
69.37,1.34,0.56,1.35,0.56,-0.56,-0.42,-0.40,0.78,0.79,0.79
70.07,1.39,0.63,1.39,0.63,-0.63,-0.50,-0.45,0.76,0.76,0.76
70.77,1.44,0.70,1.44,0.70,-0.70,-0.58,-0.50,0.74,0.74,0.74
71.48,1.48,0.76,1.49,0.77,-0.77,-0.66,-0.54,0.72,0.72,0.72
72.19,1.53,0.84,1.53,0.83,-0.83,-0.74,-0.59,0.70,0.70,0.70
72.91,1.56,0.89,1.57,0.90,-0.89,-0.82,-0.64,0.67,0.68,0.67
73.64,1.60,0.96,1.60,0.96,-0.95,-0.90,-0.69,0.65,0.65,0.65
74.38,1.64,1.02,1.63,1.01,-1.01,-0.98,-0.73,0.63,0.62,0.62
75.12,1.65,1.06,1.66,1.07,-1.07,-1.06,-0.78,0.58,0.59,0.60
75.87,1.69,1.12,1.69,1.12,-1.12,-1.14,-0.83,0.57,0.56,0.57
76.63,1.71,1.17,1.72,1.17,-1.18,-1.22,-0.88,0.54,0.54,0.54
77.40,1.74,1.23,1.75,1.23,-1.23,-1.30,-0.93,0.51,0.52,0.52
78.17,1.78,1.29,1.77,1.29,-1.28,-1.38,-0.98,0.50,0.49,0.49
78.95,1.79,1.33,1.80,1.34,-1.33,-1.46,-1.03,0.46,0.47,0.46
79.74,1.82,1.39,1.82,1.39,-1.38,-1.54,-1.08,0.44,0.43,0.43
80.54,1.83,1.43,1.83,1.43,-1.44,-1.62,-1.14,0.39,0.40,0.40
81.35,1.85,1.48,1.86,1.49,-1.49,-1.70,-1.19,0.36,0.37,0.37
82.16,1.88,1.54,1.88,1.54,-1.55,-1.78,-1.25,0.34,0.33,0.34
82.98,1.92,1.61,1.91,1.60,-1.60,-1.86,-1.30,0.32,0.31,0.31
83.81,1.92,1.65,1.94,1.66,-1.66,-1.93,-1.36,0.26,0.28,0.28
84.65,1.97,1.73,1.96,1.72,-1.72,-2.01,-1.42,0.25,0.24,0.24
85.50,1.99,1.78,1.99,1.78,-1.78,-2.08,-1.48,0.21,0.21,0.21
86.35,2.02,1.84,2.03,1.85,-1.85,-2.16,-1.54,0.18,0.18,0.18
87.22,2.06,1.92,2.05,1.91,-1.91,-2.23,-1.60,0.15,0.14,0.15
88.09,2.08,1.97,2.09,1.97,-1.98,-2.30,-1.67,0.10,0.11,0.11
88.97,2.11,2.04,2.12,2.05,-2.04,-2.37,-1.73,0.07,0.08,0.08
89.86,2.16,2.12,2.15,2.11,-2.11,-2.44,-1.80,0.05,0.04,0.04
90.76,2.20,2.20,2.19,2.18,-2.18,-2.51,-1.87,0.02,0.01,0.01
91.66,2.20,2.23,2.22,2.25,-2.25,-2.57,-1.94,-0.05,-0.03,-0.03
92.58,2.25,2.32,2.25,2.31,-2.32,-2.64,-2.01,-0.06,-0.07,-0.07
93.51,2.29,2.39,2.28,2.38,-2.38,-2.70,-2.08,-0.09,-0.10,-0.10
94.44,2.30,2.44,2.31,2.45,-2.45,-2.76,-2.15,-0.14,-0.14,-0.14
95.39,2.34,2.52,2.33,2.51,-2.51,-2.82,-2.23,-0.17,-0.17,-0.18
96.34,2.34,2.55,2.36,2.57,-2.57,-2.88,-2.31,-0.23,-0.21,-0.21
97.30,2.39,2.64,2.38,2.63,-2.63,-2.94,-2.38,-0.24,-0.25,-0.25
98.28,2.39,2.68,2.40,2.69,-2.69,-3.00,-2.46,-0.30,-0.29,-0.29
99.26,2.42,2.75,2.42,2.75,-2.75,-3.05,-2.54,-0.32,-0.32,-0.33
100.25,2.44,2.81,2.43,2.80,-2.80,-3.11,-2.62,-0.36,-0.36,-0.36
101.25,2.44,2.84,2.45,2.86,-2.85,-3.16,-2.70,-0.41,-0.40,-0.40
102.27,2.47,2.91,2.47,2.91,-2.90,-3.21,-2.78,-0.43,-0.43,-0.44
103.29,2.48,2.96,2.48,2.96,-2.95,-3.26,-2.86,-0.47,-0.47,-0.48
104.32,2.48,3.00,2.48,3.00,-3.00,-3.30,-2.94,-0.52,-0.52,-0.52
105.37,2.48,3.04,2.48,3.04,-3.05,-3.35,-3.02,-0.57,-0.56,-0.55
106.42,2.48,3.08,2.49,3.08,-3.10,-3.39,-3.10,-0.61,-0.61,-0.59
107.48,2.51,3.14,2.50,3.13,-3.14,-3.43,-3.18,-0.63,-0.64,-0.63
108.56,2.51,3.18,2.52,3.19,-3.19,-3.47,-3.25,-0.67,-0.67,-0.67
109.64,2.53,3.24,2.53,3.24,-3.23,-3.51,-3.33,-0.69,-0.70,-0.71
110.74,2.53,3.28,2.53,3.28,-3.26,-3.55,-3.40,-0.73,-0.73,-0.75
111.85,2.53,3.32,2.53,3.31,-3.30,-3.58,-3.47,-0.77,-0.77,-0.78
112.97,2.51,3.33,2.52,3.34,-3.34,-3.61,-3.54,-0.82,-0.82,-0.82
114.10,2.51,3.37,2.50,3.36,-3.37,-3.65,-3.60,-0.86,-0.87,-0.86
115.24,2.48,3.38,2.49,3.39,-3.40,-3.68,-3.66,-0.92,-0.91,-0.90
116.39,2.48,3.42,2.48,3.42,-3.43,-3.70,-3.72,-0.94,-0.94,-0.93
117.55,2.48,3.45,2.48,3.45,-3.45,-3.73,-3.77,-0.97,-0.97,-0.97
118.73,2.48,3.49,2.48,3.49,-3.48,-3.76,-3.82,-1.00,-1.00,-1.01
119.92,2.48,3.52,2.47,3.52,-3.51,-3.78,-3.86,-1.03,-1.04,-1.04
121.12,2.46,3.54,2.46,3.54,-3.54,-3.80,-3.90,-1.08,-1.08,-1.08
122.33,2.44,3.56,2.45,3.57,-3.57,-3.82,-3.93,-1.12,-1.11,-1.11
123.55,2.44,3.59,2.44,3.59,-3.59,-3.84,-3.96,-1.15,-1.15,-1.15
124.79,2.44,3.63,2.43,3.61,-3.61,-3.85,-3.98,-1.17,-1.18,-1.18
126.03,2.40,3.62,2.42,3.63,-3.63,-3.87,-3.99,-1.23,-1.21,-1.22
127.29,2.39,3.64,2.40,3.65,-3.65,-3.88,-4.00,-1.26,-1.25,-1.25
128.57,2.39,3.68,2.38,3.66,-3.67,-3.90,-4.01,-1.27,-1.29,-1.28
129.85,2.35,3.67,2.36,3.68,-3.68,-3.91,-4.00,-1.33,-1.32,-1.32
131.15,2.34,3.69,2.34,3.69,-3.70,-3.92,-4.00,-1.35,-1.35,-1.35
132.46,2.33,3.71,2.33,3.71,-3.71,-3.92,-3.99,-1.38,-1.38,-1.38
133.79,2.30,3.72,2.31,3.72,-3.72,-3.93,-3.97,-1.42,-1.41,-1.41
135.12,2.30,3.75,2.29,3.73,-3.73,-3.93,-3.95,-1.43,-1.44,-1.44
136.48,2.25,3.73,2.26,3.74,-3.74,-3.94,-3.93,-1.49,-1.47,-1.47
137.84,2.25,3.76,2.24,3.75,-3.75,-3.94,-3.90,-1.49,-1.51,-1.50
139.22,2.20,3.74,2.21,3.75,-3.75,-3.94,-3.87,-1.55,-1.54,-1.53
140.61,2.20,3.76,2.20,3.76,-3.76,-3.94,-3.84,-1.56,-1.56,-1.56
142.02,2.16,3.75,2.17,3.76,-3.76,-3.94,-3.80,-1.60,-1.59,-1.59
143.44,2.16,3.78,2.15,3.77,-3.76,-3.94,-3.76,-1.60,-1.61,-1.62
144.87,2.11,3.76,2.12,3.76,-3.76,-3.93,-3.72,-1.65,-1.64,-1.64
146.32,2.09,3.76,2.09,3.76,-3.76,-3.93,-3.68,-1.67,-1.67,-1.67
147.78,2.06,3.76,2.06,3.76,-3.76,-3.92,-3.64,-1.70,-1.70,-1.70
149.26,2.03,3.75,2.03,3.76,-3.76,-3.91,-3.60,-1.72,-1.72,-1.72
150.75,2.00,3.75,2.00,3.75,-3.75,-3.90,-3.56,-1.75,-1.75,-1.75
152.26,1.97,3.74,1.97,3.74,-3.75,-3.89,-3.52,-1.77,-1.77,-1.77
153.78,1.94,3.74,1.94,3.74,-3.74,-3.88,-3.48,-1.80,-1.80,-1.79
155.32,1.92,3.74,1.92,3.73,-3.74,-3.87,-3.44,-1.81,-1.82,-1.82
156.88,1.88,3.72,1.89,3.73,-3.73,-3.86,-3.40,-1.85,-1.84,-1.84
158.44,1.87,3.73,1.86,3.73,-3.73,-3.84,-3.37,-1.85,-1.86,-1.86
160.03,1.83,3.72,1.84,3.72,-3.72,-3.83,-3.33,-1.89,-1.88,-1.88
161.63,1.81,3.72,1.81,3.72,-3.71,-3.81,-3.30,-1.90,-1.90,-1.90
163.24,1.79,3.72,1.79,3.71,-3.71,-3.79,-3.27,-1.92,-1.92,-1.92
164.88,1.75,3.70,1.76,3.70,-3.71,-3.77,-3.24,-1.95,-1.95,-1.94
166.53,1.74,3.71,1.73,3.70,-3.70,-3.76,-3.21,-1.96,-1.97,-1.96
168.19,1.70,3.68,1.71,3.69,-3.70,-3.74,-3.19,-2.00,-1.99,-1.98
169.87,1.69,3.69,1.69,3.69,-3.69,-3.72,-3.16,-2.00,-2.00,-2.00
171.57,1.67,3.69,1.67,3.69,-3.69,-3.69,-3.14,-2.02,-2.02,-2.02
173.29,1.65,3.69,1.65,3.69,-3.68,-3.67,-3.12,-2.03,-2.03,-2.04
175.02,1.63,3.68,1.63,3.68,-3.67,-3.65,-3.11,-2.04,-2.05,-2.05
176.77,1.60,3.67,1.60,3.67,-3.67,-3.63,-3.09,-2.06,-2.07,-2.07
178.54,1.56,3.65,1.57,3.66,-3.66,-3.60,-3.08,-2.09,-2.09,-2.08
180.32,1.55,3.65,1.54,3.64,-3.65,-3.58,-3.07,-2.09,-2.10,-2.10
182.13,1.51,3.63,1.52,3.63,-3.63,-3.55,-3.07,-2.12,-2.12,-2.11
183.95,1.49,3.62,1.49,3.62,-3.62,-3.53,-3.06,-2.13,-2.13,-2.13
185.79,1.46,3.60,1.46,3.60,-3.60,-3.50,-3.06,-2.14,-2.14,-2.14
187.65,1.43,3.59,1.43,3.59,-3.59,-3.48,-3.06,-2.16,-2.16,-2.16
189.52,1.41,3.58,1.41,3.58,-3.58,-3.45,-3.07,-2.16,-2.17,-2.17
191.42,1.37,3.55,1.38,3.56,-3.56,-3.42,-3.07,-2.19,-2.18,-2.18
193.33,1.36,3.56,1.35,3.55,-3.55,-3.39,-3.08,-2.19,-2.19,-2.19
195.27,1.32,3.53,1.33,3.53,-3.53,-3.37,-3.09,-2.21,-2.21,-2.21
197.22,1.30,3.52,1.30,3.52,-3.52,-3.34,-3.10,-2.22,-2.22,-2.22
199.19,1.27,3.50,1.27,3.50,-3.50,-3.31,-3.11,-2.23,-2.23,-2.23
201.18,1.24,3.48,1.24,3.48,-3.48,-3.28,-3.13,-2.24,-2.24,-2.24
203.19,1.21,3.46,1.21,3.46,-3.46,-3.25,-3.14,-2.25,-2.25,-2.25
205.23,1.18,3.44,1.18,3.44,-3.44,-3.22,-3.16,-2.26,-2.26,-2.26
207.28,1.14,3.41,1.15,3.42,-3.41,-3.19,-3.17,-2.27,-2.27,-2.27
209.35,1.11,3.39,1.11,3.39,-3.39,-3.16,-3.19,-2.27,-2.28,-2.28
211.44,1.06,3.35,1.07,3.35,-3.35,-3.13,-3.21,-2.29,-2.29,-2.29
213.56,1.02,3.32,1.02,3.32,-3.32,-3.10,-3.23,-2.29,-2.30,-2.30
215.69,0.97,3.28,0.97,3.28,-3.28,-3.07,-3.25,-2.30,-2.30,-2.31
217.85,0.92,3.24,0.92,3.24,-3.23,-3.04,-3.27,-2.31,-2.31,-2.31
220.03,0.87,3.19,0.87,3.19,-3.19,-3.01,-3.29,-2.32,-2.32,-2.32
222.23,0.81,3.14,0.81,3.14,-3.14,-2.98,-3.30,-2.33,-2.33,-2.33
224.45,0.74,3.08,0.75,3.09,-3.09,-2.95,-3.32,-2.35,-2.34,-2.34
226.70,0.69,3.04,0.69,3.04,-3.04,-2.91,-3.33,-2.35,-2.35,-2.34
228.96,0.64,2.99,0.64,2.99,-2.99,-2.88,-3.35,-2.35,-2.35,-2.35
231.25,0.59,2.95,0.59,2.95,-2.94,-2.85,-3.36,-2.35,-2.35,-2.36
233.57,0.53,2.90,0.53,2.89,-2.89,-2.82,-3.37,-2.35,-2.36,-2.36
235.90,0.46,2.83,0.47,2.84,-2.84,-2.79,-3.37,-2.37,-2.37,-2.37
238.26,0.40,2.78,0.41,2.78,-2.79,-2.76,-3.38,-2.38,-2.38,-2.38
240.64,0.35,2.74,0.35,2.73,-2.74,-2.73,-3.37,-2.39,-2.39,-2.38
243.05,0.30,2.69,0.30,2.69,-2.69,-2.70,-3.37,-2.39,-2.39,-2.39
245.48,0.24,2.64,0.25,2.64,-2.65,-2.67,-3.36,-2.41,-2.40,-2.39
247.93,0.21,2.61,0.21,2.60,-2.61,-2.64,-3.35,-2.40,-2.40,-2.40
250.41,0.16,2.57,0.17,2.57,-2.57,-2.61,-3.34,-2.41,-2.40,-2.40
252.92,0.13,2.54,0.13,2.54,-2.54,-2.58,-3.32,-2.41,-2.40,-2.41
255.45,0.10,2.52,0.10,2.51,-2.51,-2.55,-3.30,-2.40,-2.41,-2.41
258.00,0.06,2.48,0.06,2.48,-2.48,-2.52,-3.28,-2.42,-2.42,-2.42
260.58,0.02,2.45,0.03,2.45,-2.45,-2.49,-3.25,-2.43,-2.43,-2.42
263.19,0.00,2.43,0.00,2.43,-2.43,-2.46,-3.22,-2.43,-2.43,-2.43
265.82,-0.03,2.40,-0.03,2.41,-2.41,-2.43,-3.18,-2.44,-2.43,-2.43
268.48,-0.04,2.40,-0.05,2.39,-2.39,-2.40,-3.15,-2.43,-2.44,-2.44
271.16,-0.08,2.36,-0.07,2.37,-2.37,-2.37,-3.10,-2.45,-2.44,-2.44
273.87,-0.08,2.36,-0.09,2.36,-2.36,-2.34,-3.06,-2.44,-2.45,-2.44
276.61,-0.11,2.34,-0.10,2.35,-2.34,-2.32,-3.02,-2.45,-2.44,-2.45
279.38,-0.12,2.33,-0.12,2.33,-2.33,-2.29,-2.97,-2.45,-2.45,-2.45
282.17,-0.12,2.33,-0.13,2.32,-2.32,-2.26,-2.92,-2.44,-2.45,-2.45
284.99,-0.17,2.29,-0.15,2.31,-2.30,-2.23,-2.87,-2.47,-2.45,-2.46
287.84,-0.17,2.29,-0.17,2.29,-2.29,-2.21,-2.82,-2.45,-2.46,-2.46
290.72,-0.19,2.27,-0.20,2.27,-2.27,-2.18,-2.76,-2.46,-2.46,-2.46
293.63,-0.22,2.25,-0.21,2.25,-2.25,-2.15,-2.71,-2.47,-2.46,-2.46
296.57,-0.25,2.22,-0.24,2.23,-2.23,-2.13,-2.66,-2.47,-2.47,-2.47
299.53,-0.26,2.21,-0.27,2.20,-2.20,-2.10,-2.60,-2.46,-2.47,-2.47
302.53,-0.31,2.16,-0.30,2.18,-2.17,-2.08,-2.55,-2.48,-2.47,-2.47
305.55,-0.33,2.15,-0.33,2.15,-2.14,-2.05,-2.49,-2.47,-2.47,-2.47
308.61,-0.36,2.12,-0.37,2.11,-2.11,-2.03,-2.44,-2.47,-2.48,-2.48
311.69,-0.41,2.07,-0.40,2.08,-2.08,-2.00,-2.38,-2.48,-2.47,-2.48
314.81,-0.44,2.04,-0.44,2.04,-2.04,-1.98,-2.33,-2.48,-2.48,-2.48
317.96,-0.47,2.02,-0.48,2.00,-2.00,-1.95,-2.28,-2.47,-2.48,-2.48
321.14,-0.53,1.96,-0.52,1.97,-1.97,-1.93,-2.22,-2.50,-2.48,-2.49
324.35,-0.56,1.93,-0.56,1.93,-1.93,-1.91,-2.17,-2.49,-2.49,-2.49
327.59,-0.59,1.90,-0.60,1.89,-1.90,-1.88,-2.12,-2.49,-2.50,-2.49
330.87,-0.64,1.85,-0.63,1.87,-1.87,-1.86,-2.07,-2.51,-2.49,-2.49
334.18,-0.65,1.85,-0.65,1.84,-1.84,-1.84,-2.03,-2.49,-2.49,-2.49
337.52,-0.68,1.82,-0.68,1.81,-1.82,-1.82,-1.98,-2.50,-2.50,-2.50
340.90,-0.70,1.80,-0.70,1.80,-1.80,-1.80,-1.93,-2.49,-2.50,-2.50
344.30,-0.73,1.77,-0.72,1.78,-1.78,-1.77,-1.89,-2.51,-2.50,-2.50
347.75,-0.73,1.77,-0.73,1.77,-1.77,-1.75,-1.85,-2.49,-2.50,-2.50
351.23,-0.74,1.76,-0.75,1.75,-1.75,-1.73,-1.80,-2.49,-2.50,-2.50
354.74,-0.78,1.72,-0.76,1.74,-1.74,-1.71,-1.76,-2.52,-2.50,-2.50
358.28,-0.78,1.73,-0.77,1.73,-1.73,-1.69,-1.72,-2.51,-2.51,-2.50
361.87,-0.78,1.73,-0.78,1.72,-1.72,-1.68,-1.69,-2.50,-2.50,-2.51
365.49,-0.78,1.73,-0.79,1.72,-1.72,-1.66,-1.65,-2.49,-2.50,-2.51
369.14,-0.80,1.71,-0.80,1.71,-1.71,-1.64,-1.61,-2.51,-2.51,-2.51
372.83,-0.82,1.69,-0.81,1.70,-1.70,-1.62,-1.58,-2.52,-2.51,-2.51
376.56,-0.82,1.69,-0.82,1.69,-1.70,-1.60,-1.55,-2.52,-2.52,-2.51
380.33,-0.82,1.69,-0.81,1.70,-1.69,-1.59,-1.52,-2.51,-2.51,-2.51
384.13,-0.82,1.69,-0.82,1.69,-1.68,-1.57,-1.49,-2.50,-2.50,-2.51
387.97,-0.82,1.70,-0.83,1.68,-1.67,-1.55,-1.46,-2.49,-2.51,-2.51
391.85,-0.87,1.65,-0.85,1.66,-1.66,-1.54,-1.43,-2.53,-2.52,-2.51
395.77,-0.87,1.65,-0.86,1.65,-1.65,-1.52,-1.40,-2.52,-2.52,-2.52
399.73,-0.87,1.65,-0.87,1.64,-1.64,-1.51,-1.38,-2.51,-2.52,-2.52
403.72,-0.87,1.65,-0.88,1.63,-1.63,-1.49,-1.36,-2.50,-2.52,-2.52
407.76,-0.92,1.60,-0.90,1.62,-1.62,-1.48,-1.33,-2.54,-2.52,-2.52
411.84,-0.92,1.60,-0.91,1.61,-1.61,-1.47,-1.31,-2.52,-2.52,-2.52
415.96,-0.92,1.60,-0.93,1.59,-1.60,-1.45,-1.29,-2.51,-2.52,-2.52
420.12,-0.93,1.59,-0.93,1.59,-1.59,-1.44,-1.27,-2.51,-2.52,-2.52
424.32,-0.96,1.56,-0.95,1.57,-1.57,-1.43,-1.25,-2.53,-2.52,-2.52
428.56,-0.96,1.56,-0.95,1.57,-1.56,-1.41,-1.24,-2.52,-2.52,-2.52
432.85,-0.96,1.56,-0.96,1.56,-1.55,-1.40,-1.22,-2.51,-2.52,-2.52
437.18,-0.96,1.56,-0.97,1.55,-1.55,-1.39,-1.21,-2.50,-2.52,-2.52
441.55,-1.01,1.52,-0.99,1.53,-1.54,-1.38,-1.19,-2.54,-2.53,-2.52
445.96,-1.01,1.52,-1.00,1.52,-1.53,-1.37,-1.18,-2.53,-2.53,-2.52
450.42,-1.01,1.52,-1.01,1.51,-1.51,-1.36,-1.17,-2.52,-2.52,-2.52
454.93,-1.01,1.52,-1.01,1.51,-1.51,-1.35,-1.16,-2.51,-2.52,-2.53
459.48,-1.02,1.51,-1.02,1.50,-1.50,-1.34,-1.15,-2.52,-2.52,-2.53
464.07,-1.05,1.48,-1.04,1.49,-1.49,-1.33,-1.14,-2.54,-2.53,-2.53
468.71,-1.05,1.48,-1.05,1.48,-1.49,-1.33,-1.13,-2.54,-2.54,-2.53
