frequency,raw,error,smoothed,error_smoothed,equalization,parametric_eq,fixed_band_eq,equalized_raw,equalized_smoothed,target
20.00,-11.36,-16.96,-11.35,-16.95,6.00,5.81,2.61,-5.36,-5.35,5.60
20.20,-11.24,-16.84,-11.24,-16.84,6.00,5.82,2.68,-5.24,-5.24,5.60
20.40,-11.11,-16.72,-11.12,-16.73,6.00,5.84,2.76,-5.11,-5.12,5.61
20.61,-11.01,-16.63,-11.00,-16.62,6.00,5.86,2.84,-5.01,-5.00,5.62
20.81,-10.88,-16.50,-10.89,-16.51,6.00,5.87,2.92,-4.88,-4.89,5.62
21.02,-10.77,-16.39,-10.77,-16.39,6.00,5.89,3.01,-4.77,-4.77,5.63
21.23,-10.65,-16.27,-10.65,-16.28,6.00,5.90,3.10,-4.65,-4.65,5.63
21.44,-10.52,-16.16,-10.53,-16.17,6.00,5.91,3.19,-4.52,-4.53,5.64
21.66,-10.42,-16.07,-10.41,-16.06,6.00,5.93,3.28,-4.42,-4.41,5.65
21.87,-10.29,-15.94,-10.29,-15.95,6.00,5.94,3.37,-4.29,-4.29,5.65
22.09,-10.17,-15.83,-10.18,-15.83,6.00,5.95,3.47,-4.17,-4.18,5.66
22.31,-10.05,-15.72,-10.05,-15.72,6.00,5.96,3.57,-4.05,-4.05,5.67
22.54,-9.94,-15.60,-9.94,-15.61,6.00,5.97,3.68,-3.94,-3.94,5.67
22.76,-9.81,-15.49,-9.82,-15.49,6.00,5.98,3.78,-3.81,-3.82,5.68
22.99,-9.70,-15.38,-9.69,-15.38,6.00,5.99,3.89,-3.70,-3.69,5.69
23.22,-9.57,-15.26,-9.57,-15.27,6.00,6.00,4.00,-3.57,-3.57,5.70
23.45,-9.44,-15.15,-9.45,-15.15,6.00,6.01,4.11,-3.44,-3.45,5.71
23.69,-9.33,-15.04,-9.32,-15.04,6.00,6.02,4.23,-3.33,-3.32,5.72
23.92,-9.20,-14.93,-9.20,-14.93,6.00,6.02,4.35,-3.20,-3.20,5.73
24.16,-9.08,-14.82,-9.08,-14.82,6.00,6.03,4.47,-3.08,-3.08,5.73
24.40,-8.96,-14.71,-8.96,-14.71,6.00,6.04,4.59,-2.96,-2.96,5.74
24.65,-8.85,-14.61,-8.84,-14.61,6.00,6.04,4.71,-2.85,-2.84,5.76
24.89,-8.72,-14.50,-8.72,-14.50,6.00,6.05,4.84,-2.72,-2.72,5.77
25.14,-8.60,-14.39,-8.60,-14.39,6.00,6.05,4.96,-2.60,-2.60,5.78
25.39,-8.48,-14.28,-8.48,-14.28,6.00,6.06,5.09,-2.48,-2.48,5.79
25.65,-8.37,-14.17,-8.36,-14.17,6.00,6.06,5.22,-2.37,-2.36,5.80
25.91,-8.25,-14.07,-8.25,-14.06,6.00,6.06,5.35,-2.25,-2.25,5.82
26.16,-8.12,-13.95,-8.13,-13.96,6.00,6.07,5.48,-2.12,-2.13,5.83
26.43,-8.02,-13.86,-8.01,-13.85,6.00,6.07,5.61,-2.02,-2.01,5.84
26.69,-7.90,-13.74,-7.90,-13.75,6.00,6.07,5.74,-1.90,-1.90,5.85
26.96,-7.78,-13.65,-7.78,-13.64,6.00,6.07,5.86,-1.78,-1.78,5.87
27.23,-7.66,-13.53,-7.66,-13.54,6.00,6.07,5.99,-1.66,-1.66,5.88
27.50,-7.54,-13.43,-7.54,-13.43,6.00,6.07,6.11,-1.54,-1.54,5.90
27.77,-7.42,-13.33,-7.42,-13.33,6.00,6.07,6.23,-1.42,-1.42,5.91
28.05,-7.30,-13.23,-7.31,-13.23,6.00,6.07,6.34,-1.30,-1.31,5.93
28.33,-7.19,-13.13,-7.19,-13.13,6.00,6.07,6.45,-1.19,-1.19,5.94
28.62,-7.08,-13.03,-7.08,-13.03,6.00,6.07,6.56,-1.08,-1.08,5.95
28.90,-6.96,-12.93,-6.97,-12.93,6.00,6.07,6.66,-0.96,-0.97,5.96
29.19,-6.86,-12.84,-6.85,-12.83,6.00,6.07,6.75,-0.86,-0.85,5.98
29.48,-6.74,-12.74,-6.74,-12.73,6.00,6.07,6.83,-0.74,-0.74,5.99
29.78,-6.63,-12.64,-6.63,-12.64,6.00,6.06,6.91,-0.63,-0.63,6.01
30.08,-6.52,-12.54,-6.52,-12.54,6.00,6.06,6.98,-0.52,-0.52,6.02
30.38,-6.42,-12.45,-6.41,-12.45,6.00,6.06,7.04,-0.42,-0.41,6.04
30.68,-6.31,-12.35,-6.31,-12.36,6.00,6.05,7.09,-0.31,-0.31,6.05
30.99,-6.20,-12.26,-6.20,-12.27,6.00,6.05,7.13,-0.20,-0.20,6.07
31.30,-6.11,-12.18,-6.10,-12.18,6.00,6.05,7.16,-0.11,-0.10,6.07
31.61,-6.01,-12.10,-6.00,-12.10,6.00,6.04,7.18,-0.01,-0.00,6.09
31.93,-5.91,-12.01,-5.91,-12.01,6.00,6.04,7.20,0.09,0.09,6.10
32.24,-5.80,-11.93,-5.81,-11.92,6.00,6.03,7.20,0.20,0.19,6.12
32.57,-5.71,-11.84,-5.70,-11.84,6.00,6.03,7.20,0.29,0.30,6.13
32.89,-5.60,-11.75,-5.61,-11.75,6.00,6.02,7.18,0.40,0.39,6.15
33.22,-5.51,-11.66,-5.51,-11.67,6.00,6.02,7.16,0.49,0.49,6.16
33.55,-5.41,-11.59,-5.41,-11.59,6.00,6.01,7.13,0.59,0.59,6.18
33.89,-5.32,-11.50,-5.32,-11.50,6.00,6.01,7.09,0.68,0.68,6.18
34.23,-5.23,-11.43,-5.22,-11.42,6.00,6.00,7.05,0.77,0.78,6.20
34.57,-5.13,-11.34,-5.13,-11.33,6.00,5.99,7.00,0.87,0.87,6.21
34.92,-5.03,-11.24,-5.03,-11.25,6.00,5.99,6.95,0.97,0.97,6.22
35.27,-4.94,-11.17,-4.94,-11.17,6.00,5.98,6.90,1.06,1.06,6.24
35.62,-4.85,-11.09,-4.85,-11.09,6.00,5.98,6.84,1.15,1.15,6.24
35.97,-4.75,-11.01,-4.75,-11.01,6.00,5.97,6.78,1.25,1.25,6.25
36.33,-4.66,-10.92,-4.66,-10.92,6.00,5.96,6.72,1.34,1.34,6.26
36.70,-4.57,-10.83,-4.57,-10.84,6.00,5.96,6.65,1.43,1.43,6.27
37.06,-4.48,-10.76,-4.48,-10.76,6.00,5.95,6.59,1.52,1.52,6.28
37.43,-4.39,-10.68,-4.40,-10.68,6.00,5.94,6.52,1.61,1.60,6.28
37.81,-4.32,-10.61,-4.32,-10.61,6.00,5.94,6.46,1.68,1.68,6.29
38.19,-4.24,-10.53,-4.23,-10.53,6.00,5.93,6.40,1.76,1.77,6.30
38.57,-4.16,-10.46,-4.15,-10.46,6.00,5.93,6.34,1.84,1.85,6.30
38.95,-4.07,-10.39,-4.07,-10.39,6.00,5.92,6.28,1.93,1.93,6.31
39.34,-3.99,-10.31,-4.00,-10.32,6.00,5.92,6.22,2.01,2.00,6.32
39.74,-3.93,-10.25,-3.92,-10.25,6.00,5.91,6.17,2.07,2.08,6.33
40.14,-3.86,-10.18,-3.85,-10.18,6.00,5.91,6.12,2.14,2.15,6.32
40.54,-3.78,-10.11,-3.78,-10.11,6.00,5.90,6.08,2.22,2.22,6.33
40.94,-3.71,-10.04,-3.71,-10.04,6.00,5.90,6.03,2.29,2.29,6.34
41.35,-3.64,-9.98,-3.64,-9.98,6.00,5.89,5.99,2.36,2.36,6.34
41.76,-3.57,-9.92,-3.57,-9.92,6.00,5.89,5.96,2.43,2.43,6.35
42.18,-3.51,-9.86,-3.50,-9.86,6.00,5.88,5.93,2.49,2.50,6.35
42.60,-3.43,-9.80,-3.44,-9.80,6.00,5.88,5.90,2.57,2.56,6.36
43.03,-3.37,-9.73,-3.37,-9.73,6.00,5.88,5.87,2.63,2.63,6.37
43.46,-3.30,-9.67,-3.29,-9.67,6.00,5.87,5.86,2.70,2.71,6.37
43.90,-3.23,-9.60,-3.22,-9.60,6.00,5.87,5.84,2.77,2.78,6.38
44.33,-3.14,-9.54,-3.15,-9.54,6.00,5.87,5.83,2.86,2.85,6.39
44.78,-3.08,-9.47,-3.07,-9.47,6.00,5.87,5.82,2.92,2.93,6.40
45.23,-3.00,-9.40,-3.00,-9.40,6.00,5.86,5.82,3.00,3.00,6.40
45.68,-2.92,-9.33,-2.92,-9.33,6.00,5.86,5.82,3.08,3.08,6.42
46.13,-2.84,-9.27,-2.84,-9.27,6.00,5.86,5.83,3.16,3.16,6.42
46.60,-2.77,-9.20,-2.77,-9.20,6.00,5.86,5.84,3.23,3.23,6.44
47.06,-2.70,-9.14,-2.69,-9.14,6.00,5.86,5.86,3.30,3.31,6.44
47.53,-2.62,-9.07,-2.62,-9.07,6.00,5.86,5.88,3.38,3.38,6.45
48.01,-2.55,-9.00,-2.54,-9.00,6.00,5.86,5.90,3.45,3.46,6.46
48.49,-2.47,-8.94,-2.47,-8.93,6.00,5.87,5.93,3.53,3.53,6.47
48.97,-2.39,-8.86,-2.39,-8.87,6.00,5.87,5.96,3.61,3.61,6.47
49.46,-2.32,-8.80,-2.31,-8.80,6.00,5.87,5.99,3.68,3.69,6.49
49.96,-2.24,-8.73,-2.23,-8.72,6.00,5.87,6.03,3.76,3.77,6.49
50.46,-2.15,-8.64,-2.15,-8.65,6.00,5.88,6.06,3.85,3.85,6.49
50.96,-2.07,-8.57,-2.07,-8.57,6.00,5.88,6.11,3.93,3.93,6.50
51.47,-1.99,-8.49,-1.98,-8.49,6.00,5.89,6.15,4.01,4.02,6.51
51.99,-1.91,-8.41,-1.91,-8.41,6.00,5.89,6.20,4.09,4.09,6.51
52.51,-1.83,-8.34,-1.83,-8.34,6.00,5.90,6.24,4.17,4.17,6.51
53.03,-1.76,-8.27,-1.75,-8.27,6.00,5.90,6.29,4.24,4.25,6.51
53.56,-1.68,-8.20,-1.68,-8.20,6.00,5.91,6.34,4.32,4.32,6.52
54.10,-1.61,-8.13,-1.60,-8.12,6.00,5.92,6.39,4.39,4.40,6.52
54.64,-1.53,-8.05,-1.53,-8.05,6.00,5.93,6.44,4.47,4.47,6.52
55.18,-1.46,-7.97,-1.46,-7.97,6.00,5.93,6.48,4.54,4.54,6.51
55.74,-1.39,-7.90,-1.39,-7.90,6.00,5.94,6.53,4.61,4.61,6.51
56.29,-1.33,-7.83,-1.32,-7.83,6.00,5.95,6.57,4.67,4.68,6.51
56.86,-1.27,-7.76,-1.26,-7.76,6.00,5.96,6.61,4.73,4.74,6.50
57.42,-1.21,-7.70,-1.21,-7.70,6.00,5.97,6.65,4.79,4.79,6.49
58.00,-1.16,-7.64,-1.15,-7.64,6.00,5.98,6.68,4.84,4.85,6.48
58.58,-1.11,-7.58,-1.11,-7.58,6.00,5.99,6.71,4.89,4.89,6.48
59.16,-1.07,-7.53,-1.06,-7.53,6.00,6.00,6.73,4.93,4.94,6.47
59.76,-1.03,-7.48,-1.02,-7.48,6.00,6.01,6.75,4.97,4.98,6.45
60.35,-0.99,-7.42,-0.99,-7.43,6.00,6.03,6.76,5.01,5.01,6.44
60.96,-0.96,-7.38,-0.96,-7.38,6.00,6.04,6.76,5.04,5.04,6.42
61.57,-0.94,-7.34,-0.93,-7.34,6.00,6.05,6.76,5.06,5.07,6.41
62.18,-0.92,-7.31,-0.92,-7.31,6.00,6.06,6.75,5.08,5.08,6.39
62.80,-0.91,-7.28,-0.91,-7.28,6.00,6.07,6.74,5.09,5.09,6.38
63.43,-0.90,-7.26,-0.90,-7.25,6.00,6.08,6.72,5.10,5.10,6.36
64.07,-0.90,-7.23,-0.89,-7.23,6.00,6.09,6.69,5.10,5.11,6.33
64.71,-0.89,-7.20,-0.89,-7.21,6.00,6.10,6.65,5.11,5.11,6.32
65.35,-0.89,-7.18,-0.89,-7.19,6.00,6.12,6.61,5.11,5.11,6.30
66.01,-0.90,-7.18,-0.89,-7.17,6.00,6.13,6.56,5.10,5.11,6.28
66.67,-0.90,-7.16,-0.89,-7.16,6.00,6.14,6.51,5.10,5.11,6.26
67.33,-0.90,-7.14,-0.90,-7.14,6.00,6.14,6.45,5.10,5.10,6.24
68.01,-0.91,-7.12,-0.90,-7.12,6.00,6.15,6.38,5.09,5.10,6.21
68.69,-0.92,-7.11,-0.91,-7.10,6.00,6.16,6.32,5.08,5.09,6.19
69.37,-0.92,-7.08,-0.92,-7.09,6.00,6.17,6.24,5.08,5.08,6.17
70.07,-0.93,-7.07,-0.93,-7.07,6.00,6.17,6.17,5.07,5.07,6.15
70.77,-0.94,-7.06,-0.93,-7.06,6.00,6.18,6.09,5.06,5.07,6.13
71.48,-0.94,-7.04,-0.94,-7.04,6.00,6.18,6.01,5.06,5.06,6.10
72.19,-0.95,-7.02,-0.94,-7.02,6.00,6.19,5.93,5.05,5.06,6.08
72.91,-0.95,-7.01,-0.94,-7.00,6.00,6.19,5.85,5.05,5.06,6.06
73.64,-0.94,-6.97,-0.94,-6.98,6.00,6.19,5.76,5.06,5.06,6.04
74.38,-0.93,-6.95,-0.93,-6.95,6.00,6.18,5.68,5.07,5.07,6.02
75.12,-0.92,-6.91,-0.91,-6.91,6.00,6.18,5.60,5.08,5.09,6.00
75.87,-0.90,-6.88,-0.90,-6.88,6.00,6.18,5.51,5.10,5.10,5.98
76.63,-0.89,-6.85,-0.88,-6.85,6.00,6.17,5.43,5.11,5.12,5.96
77.40,-0.87,-6.81,-0.86,-6.81,6.00,6.16,5.35,5.13,5.14,5.95
78.17,-0.84,-6.76,-0.84,-6.77,6.00,6.15,5.28,5.16,5.16,5.93
78.95,-0.82,-6.72,-0.81,-6.72,6.00,6.13,5.20,5.18,5.19,5.91
79.74,-0.79,-6.68,-0.78,-6.67,6.00,6.12,5.13,5.21,5.22,5.89
80.54,-0.76,-6.63,-0.76,-6.63,6.00,6.10,5.06,5.24,5.24,5.87
81.35,-0.74,-6.58,-0.73,-6.58,6.00,6.08,4.99,5.26,5.27,5.85
82.16,-0.72,-6.54,-0.71,-6.54,6.00,6.06,4.93,5.28,5.29,5.83
82.98,-0.69,-6.49,-0.69,-6.50,6.00,6.04,4.86,5.31,5.31,5.81
83.81,-0.67,-6.45,-0.67,-6.45,6.00,6.01,4.81,5.33,5.33,5.78
84.65,-0.66,-6.42,-0.65,-6.41,6.00,5.98,4.75,5.34,5.35,5.76
85.50,-0.64,-6.37,-0.63,-6.37,6.00,5.95,4.70,5.36,5.37,5.74
86.35,-0.61,-6.32,-0.61,-6.32,6.00,5.92,4.65,5.39,5.39,5.71
87.22,-0.59,-6.27,-0.59,-6.28,6.00,5.88,4.60,5.42,5.42,5.69
88.09,-0.58,-6.24,-0.57,-6.24,6.01,5.84,4.56,5.44,5.44,5.66
88.97,-0.56,-6.20,-0.56,-6.20,6.01,5.80,4.52,5.46,5.45,5.65
89.86,-0.55,-6.17,-0.54,-6.17,6.01,5.76,4.49,5.47,5.47,5.62
90.76,-0.53,-6.12,-0.52,-6.12,6.01,5.72,4.46,5.48,5.49,5.60
91.66,-0.49,-6.07,-0.49,-6.07,5.99,5.67,4.43,5.50,5.50,5.58
92.58,-0.46,-6.01,-0.45,-6.01,5.96,5.62,4.40,5.50,5.51,5.55
93.51,-0.41,-5.93,-0.41,-5.94,5.91,5.57,4.38,5.51,5.50,5.53
94.44,-0.36,-5.86,-0.36,-5.86,5.85,5.52,4.36,5.49,5.49,5.51
95.39,-0.30,-5.78,-0.29,-5.78,5.77,5.46,4.35,5.48,5.48,5.48
96.34,-0.23,-5.69,-0.23,-5.69,5.69,5.41,4.33,5.46,5.46,5.46
97.30,-0.16,-5.59,-0.15,-5.59,5.59,5.35,4.32,5.44,5.44,5.43
98.28,-0.08,-5.48,-0.07,-5.48,5.49,5.29,4.32,5.42,5.42,5.41
99.26,0.00,-5.37,0.00,-5.38,5.40,5.23,4.31,5.40,5.40,5.38
100.25,0.07,-5.28,0.07,-5.28,5.30,5.17,4.31,5.38,5.38,5.36
101.25,0.12,-5.20,0.13,-5.20,5.22,5.11,4.31,5.34,5.34,5.33
102.27,0.17,-5.12,0.17,-5.13,5.13,5.04,4.31,5.30,5.30,5.30
103.29,0.20,-5.06,0.21,-5.06,5.04,4.98,4.31,5.25,5.25,5.26
104.32,0.24,-4.99,0.25,-4.98,4.96,4.91,4.31,5.20,5.21,5.23
105.37,0.30,-4.90,0.31,-4.89,4.88,4.85,4.32,5.18,5.18,5.20
106.42,0.37,-4.79,0.37,-4.79,4.79,4.78,4.32,5.17,5.16,5.16
107.48,0.42,-4.70,0.42,-4.70,4.71,4.71,4.33,5.13,5.13,5.12
108.56,0.47,-4.61,0.47,-4.61,4.62,4.65,4.34,5.10,5.10,5.08
109.64,0.51,-4.53,0.52,-4.53,4.54,4.58,4.34,5.05,5.05,5.04
110.74,0.55,-4.45,0.55,-4.45,4.45,4.51,4.35,5.01,5.01,5.00
111.85,0.59,-4.37,0.59,-4.37,4.37,4.44,4.35,4.96,4.96,4.97
112.97,0.62,-4.29,0.63,-4.29,4.29,4.37,4.35,4.91,4.92,4.92
114.10,0.66,-4.21,0.67,-4.21,4.20,4.31,4.36,4.87,4.87,4.88
115.24,0.71,-4.12,0.70,-4.13,4.12,4.24,4.35,4.84,4.82,4.83
116.39,0.73,-4.06,0.74,-4.05,4.04,4.17,4.35,4.78,4.78,4.79
117.55,0.77,-3.97,0.78,-3.96,3.96,4.10,4.35,4.74,4.74,4.74
118.73,0.82,-3.88,0.82,-3.88,3.89,4.03,4.34,4.71,4.71,4.71
119.92,0.87,-3.79,0.86,-3.80,3.81,3.97,4.32,4.69,4.68,4.66
121.12,0.89,-3.73,0.89,-3.73,3.74,3.90,4.31,4.64,4.64,4.62
122.33,0.90,-3.68,0.91,-3.68,3.68,3.83,4.29,4.58,4.59,4.59
123.55,0.92,-3.63,0.93,-3.62,3.61,3.77,4.26,4.54,4.54,4.55
124.79,0.95,-3.56,0.95,-3.56,3.55,3.70,4.24,4.51,4.50,4.52
126.03,0.98,-3.50,0.98,-3.50,3.49,3.64,4.20,4.48,4.47,4.48
127.29,1.00,-3.44,1.01,-3.44,3.44,3.57,4.17,4.44,4.44,4.45
128.57,1.03,-3.38,1.04,-3.37,3.38,3.51,4.13,4.41,4.42,4.41
129.85,1.07,-3.30,1.07,-3.31,3.32,3.45,4.08,4.39,4.39,4.38
131.15,1.09,-3.25,1.09,-3.26,3.26,3.39,4.04,4.36,4.35,4.35
132.46,1.10,-3.21,1.11,-3.20,3.20,3.32,3.98,4.31,4.31,4.31
133.79,1.13,-3.16,1.13,-3.15,3.14,3.26,3.93,4.28,4.28,4.29
135.12,1.16,-3.09,1.16,-3.09,3.09,3.20,3.87,4.25,4.25,4.26
136.48,1.19,-3.03,1.20,-3.03,3.03,3.14,3.81,4.22,4.22,4.23
137.84,1.23,-2.96,1.23,-2.97,2.97,3.09,3.75,4.20,4.20,4.20
139.22,1.25,-2.91,1.26,-2.91,2.91,3.03,3.68,4.16,4.17,4.17
140.61,1.28,-2.85,1.29,-2.85,2.85,2.97,3.61,4.14,4.14,4.14
142.02,1.32,-2.80,1.32,-2.80,2.80,2.92,3.54,4.13,4.12,4.12
143.44,1.33,-2.76,1.34,-2.75,2.76,2.86,3.47,4.09,4.10,4.09
144.87,1.36,-2.70,1.36,-2.70,2.72,2.81,3.39,4.08,4.08,4.07
146.32,1.36,-2.66,1.36,-2.67,2.69,2.76,3.32,4.05,4.05,4.03
147.78,1.35,-2.65,1.36,-2.65,2.66,2.70,3.24,4.01,4.01,4.00
149.26,1.34,-2.63,1.34,-2.63,2.63,2.65,3.17,3.97,3.97,3.98
150.75,1.33,-2.62,1.34,-2.61,2.60,2.60,3.09,3.93,3.94,3.95
152.26,1.34,-2.58,1.34,-2.58,2.57,2.55,3.02,3.91,3.91,3.93
153.78,1.35,-2.54,1.35,-2.54,2.53,2.50,2.94,3.89,3.89,3.89
155.32,1.36,-2.51,1.37,-2.50,2.49,2.46,2.87,3.86,3.87,3.87
156.88,1.40,-2.44,1.40,-2.45,2.45,2.41,2.79,3.85,3.85,3.85
158.44,1.42,-2.40,1.43,-2.40,2.40,2.36,2.72,3.82,3.83,3.83
160.03,1.46,-2.33,1.46,-2.34,2.34,2.32,2.65,3.81,3.80,3.79
161.63,1.48,-2.29,1.49,-2.28,2.28,2.27,2.57,3.77,3.77,3.77
163.24,1.51,-2.23,1.52,-2.22,2.22,2.23,2.50,3.74,3.74,3.74
164.88,1.56,-2.16,1.55,-2.17,2.16,2.19,2.43,3.73,3.72,3.72
166.53,1.58,-2.11,1.59,-2.11,2.10,2.15,2.37,3.69,3.69,3.69
168.19,1.61,-2.05,1.62,-2.05,2.05,2.11,2.30,3.66,3.67,3.67
169.87,1.65,-1.98,1.65,-1.99,1.99,2.06,2.23,3.65,3.64,3.64
171.57,1.67,-1.94,1.67,-1.94,1.95,2.03,2.17,3.62,3.62,3.61
173.29,1.68,-1.90,1.69,-1.89,1.90,1.99,2.11,3.59,3.59,3.58
175.02,1.69,-1.86,1.69,-1.86,1.87,1.95,2.04,3.56,3.56,3.56
176.77,1.69,-1.83,1.69,-1.83,1.83,1.91,1.98,3.53,3.53,3.52
178.54,1.68,-1.81,1.69,-1.81,1.80,1.88,1.93,3.49,3.49,3.49
180.32,1.67,-1.78,1.68,-1.78,1.78,1.84,1.87,3.45,3.45,3.46
182.13,1.67,-1.76,1.67,-1.76,1.75,1.80,1.81,3.42,3.42,3.43
183.95,1.67,-1.73,1.67,-1.73,1.72,1.77,1.76,3.40,3.40,3.40
185.79,1.67,-1.69,1.67,-1.70,1.70,1.74,1.71,3.37,3.37,3.37
187.65,1.67,-1.67,1.67,-1.67,1.67,1.70,1.65,3.34,3.34,3.34
189.52,1.67,-1.64,1.67,-1.63,1.64,1.67,1.60,3.31,3.31,3.31
191.42,1.67,-1.60,1.67,-1.60,1.61,1.64,1.55,3.28,3.28,3.28
193.33,1.67,-1.57,1.67,-1.57,1.58,1.61,1.51,3.25,3.25,3.25
195.27,1.67,-1.55,1.67,-1.55,1.54,1.58,1.46,3.22,3.22,3.22
197.22,1.67,-1.52,1.67,-1.52,1.51,1.55,1.42,3.19,3.19,3.19
199.19,1.67,-1.49,1.67,-1.49,1.48,1.52,1.37,3.16,3.16,3.16
201.18,1.67,-1.45,1.67,-1.45,1.45,1.49,1.33,3.13,3.13,3.12
203.19,1.67,-1.42,1.67,-1.42,1.42,1.47,1.29,3.10,3.10,3.09
205.23,1.67,-1.39,1.67,-1.39,1.39,1.44,1.25,3.06,3.06,3.06
207.28,1.67,-1.36,1.67,-1.36,1.36,1.41,1.21,3.03,3.03,3.03
209.35,1.67,-1.33,1.67,-1.33,1.32,1.39,1.17,3.00,3.00,3.00
211.44,1.67,-1.29,1.67,-1.29,1.29,1.36,1.14,2.96,2.96,2.96
213.56,1.67,-1.26,1.67,-1.26,1.26,1.34,1.10,2.93,2.93,2.94
215.69,1.67,-1.22,1.67,-1.22,1.22,1.31,1.07,2.90,2.90,2.90
217.85,1.67,-1.18,1.67,-1.19,1.19,1.29,1.04,2.86,2.86,2.86
220.03,1.67,-1.16,1.67,-1.16,1.16,1.27,1.01,2.83,2.83,2.83
222.23,1.67,-1.13,1.67,-1.13,1.12,1.25,0.98,2.80,2.80,2.80
224.45,1.67,-1.09,1.67,-1.10,1.09,1.23,0.95,2.77,2.77,2.77
226.70,1.67,-1.07,1.67,-1.06,1.07,1.20,0.92,2.74,2.74,2.74
228.96,1.67,-1.04,1.67,-1.04,1.04,1.18,0.90,2.71,2.71,2.71
231.25,1.67,-1.01,1.67,-1.01,1.02,1.16,0.87,2.69,2.69,2.69
233.57,1.67,-1.00,1.67,-0.99,0.99,1.14,0.85,2.67,2.67,2.67
235.90,1.67,-0.97,1.67,-0.97,0.97,1.13,0.83,2.65,2.65,2.64
238.26,1.67,-0.95,1.67,-0.95,0.95,1.11,0.81,2.63,2.63,2.63
240.64,1.67,-0.94,1.67,-0.94,0.94,1.09,0.79,2.61,2.61,2.61
243.05,1.67,-0.92,1.67,-0.92,0.92,1.07,0.77,2.60,2.60,2.60
245.48,1.67,-0.91,1.67,-0.91,0.91,1.06,0.76,2.58,2.58,2.58
247.93,1.67,-0.89,1.67,-0.89,0.89,1.04,0.74,2.57,2.57,2.57
250.41,1.67,-0.88,1.67,-0.88,0.88,1.02,0.73,2.55,2.55,2.55
252.92,1.67,-0.86,1.67,-0.86,0.87,1.01,0.72,2.54,2.54,2.54
255.45,1.67,-0.85,1.67,-0.85,0.85,0.99,0.71,2.53,2.53,2.52
258.00,1.67,-0.84,1.67,-0.84,0.84,0.98,0.70,2.51,2.51,2.51
260.58,1.67,-0.83,1.67,-0.83,0.82,0.97,0.69,2.50,2.50,2.51
263.19,1.67,-0.82,1.67,-0.82,0.81,0.95,0.69,2.48,2.48,2.49
265.82,1.67,-0.80,1.68,-0.80,0.79,0.94,0.68,2.47,2.47,2.48
268.48,1.68,-0.78,1.68,-0.78,0.77,0.93,0.68,2.46,2.46,2.46
271.16,1.69,-0.76,1.69,-0.76,0.76,0.92,0.68,2.45,2.45,2.45
273.87,1.69,-0.74,1.70,-0.74,0.75,0.90,0.68,2.44,2.44,2.44
276.61,1.69,-0.73,1.69,-0.73,0.74,0.89,0.68,2.43,2.43,2.42
279.38,1.68,-0.73,1.69,-0.72,0.73,0.88,0.68,2.42,2.42,2.41
282.17,1.67,-0.72,1.67,-0.73,0.73,0.87,0.68,2.41,2.41,2.40
284.99,1.65,-0.73,1.65,-0.74,0.74,0.87,0.68,2.40,2.39,2.38
287.84,1.61,-0.76,1.62,-0.75,0.75,0.86,0.69,2.37,2.37,2.37
290.72,1.58,-0.78,1.59,-0.77,0.77,0.85,0.69,2.36,2.36,2.36
293.63,1.55,-0.79,1.55,-0.79,0.79,0.84,0.70,2.35,2.35,2.35
296.57,1.52,-0.81,1.52,-0.81,0.81,0.83,0.71,2.34,2.33,2.33
299.53,1.48,-0.84,1.49,-0.83,0.83,0.83,0.71,2.32,2.32,2.32
302.53,1.45,-0.86,1.45,-0.85,0.85,0.82,0.72,2.30,2.30,2.31
305.55,1.42,-0.86,1.42,-0.87,0.86,0.82,0.73,2.28,2.28,2.29
308.61,1.39,-0.88,1.40,-0.87,0.87,0.81,0.74,2.26,2.27,2.28
311.69,1.38,-0.88,1.38,-0.88,0.87,0.81,0.75,2.26,2.26,2.26
314.81,1.37,-0.87,1.37,-0.87,0.87,0.80,0.77,2.25,2.24,2.24
317.96,1.35,-0.88,1.36,-0.87,0.87,0.80,0.78,2.23,2.23,2.23
321.14,1.34,-0.86,1.34,-0.87,0.87,0.80,0.79,2.21,2.21,2.21
324.35,1.32,-0.87,1.33,-0.87,0.86,0.80,0.81,2.19,2.19,2.20
327.59,1.31,-0.86,1.32,-0.86,0.86,0.80,0.82,2.18,2.18,2.17
330.87,1.30,-0.86,1.30,-0.86,0.87,0.80,0.84,2.17,2.17,2.16
334.18,1.28,-0.86,1.28,-0.86,0.87,0.80,0.85,2.16,2.15,2.14
337.52,1.24,-0.89,1.25,-0.88,0.88,0.80,0.87,2.13,2.13,2.13
340.90,1.21,-0.89,1.22,-0.90,0.90,0.80,0.89,2.11,2.11,2.11
344.30,1.18,-0.91,1.18,-0.91,0.91,0.80,0.91,2.10,2.09,2.10
347.75,1.14,-0.93,1.15,-0.93,0.93,0.81,0.93,2.07,2.08,2.08
351.23,1.11,-0.94,1.11,-0.94,0.94,0.81,0.95,2.06,2.06,2.05
354.74,1.08,-0.96,1.08,-0.96,0.96,0.82,0.97,2.04,2.04,2.04
358.28,1.05,-0.97,1.06,-0.97,0.96,0.82,0.99,2.02,2.02,2.02
361.87,1.03,-0.97,1.03,-0.97,0.96,0.83,1.01,2.00,2.00,2.00
365.49,1.01,-0.98,1.02,-0.97,0.96,0.84,1.03,1.97,1.97,1.99
369.14,1.01,-0.95,1.01,-0.96,0.94,0.85,1.06,1.96,1.96,1.97
372.83,1.01,-0.94,1.02,-0.94,0.93,0.85,1.08,1.94,1.95,1.96
376.56,1.02,-0.91,1.03,-0.91,0.91,0.86,1.11,1.94,1.94,1.94
380.33,1.03,-0.88,1.03,-0.89,0.90,0.87,1.13,1.93,1.93,1.92
384.13,1.03,-0.87,1.03,-0.87,0.88,0.89,1.16,1.92,1.92,1.91
387.97,1.02,-0.86,1.03,-0.86,0.88,0.90,1.18,1.90,1.90,1.88
391.85,1.01,-0.86,1.01,-0.86,0.87,0.91,1.21,1.89,1.88,1.87
395.77,0.98,-0.88,0.99,-0.88,0.88,0.92,1.24,1.87,1.87,1.86
399.73,0.95,-0.90,0.96,-0.90,0.89,0.93,1.26,1.85,1.85,1.85
403.72,0.92,-0.92,0.92,-0.92,0.91,0.95,1.29,1.84,1.84,1.84
407.76,0.89,-0.94,0.89,-0.94,0.93,0.96,1.32,1.83,1.82,1.83
411.84,0.85,-0.96,0.86,-0.96,0.95,0.97,1.35,1.81,1.81,1.81
415.96,0.82,-0.97,0.82,-0.98,0.97,0.98,1.38,1.80,1.80,1.80
420.12,0.79,-0.99,0.79,-0.99,0.99,0.99,1.40,1.78,1.78,1.79
424.32,0.76,-1.01,0.77,-1.01,1.00,1.01,1.43,1.76,1.77,1.78
428.56,0.75,-1.01,0.75,-1.01,1.01,1.02,1.46,1.76,1.76,1.77
432.85,0.73,-1.01,0.73,-1.02,1.02,1.03,1.48,1.75,1.75,1.75
437.18,0.71,-1.02,0.72,-1.02,1.02,1.04,1.51,1.73,1.74,1.74
441.55,0.70,-1.02,0.70,-1.02,1.02,1.05,1.53,1.73,1.72,1.73
445.96,0.68,-1.02,0.68,-1.02,1.02,1.05,1.56,1.71,1.71,1.71
450.42,0.66,-1.02,0.66,-1.02,1.03,1.06,1.58,1.69,1.69,1.68
454.93,0.64,-1.03,0.64,-1.03,1.03,1.07,1.60,1.68,1.67,1.67
459.48,0.61,-1.04,0.62,-1.03,1.04,1.07,1.62,1.65,1.66,1.65
464.07,0.59,-1.04,0.59,-1.04,1.05,1.08,1.64,1.64,1.64,1.63
468.71,0.56,-1.05,0.56,-1.05,1.05,1.08,1.66,1.62,1.62,1.61
473.40,0.52,-1.08,0.53,-1.07,1.07,1.09,1.67,1.59,1.60,1.60
478.13,0.50,-1.08,0.50,-1.08,1.08,1.09,1.69,1.58,1.58,1.58
482.91,0.47,-1.10,0.48,-1.09,1.09,1.10,1.70,1.57,1.57,1.57
487.74,0.45,-1.10,0.45,-1.10,1.11,1.10,1.71,1.56,1.56,1.55
492.62,0.42,-1.12,0.42,-1.12,1.13,1.11,1.71,1.55,1.55,1.54
497.55,0.39,-1.14,0.39,-1.14,1.14,1.12,1.72,1.54,1.53,1.53
502.52,0.35,-1.17,0.36,-1.16,1.15,1.12,1.72,1.51,1.51,1.52
507.55,0.32,-1.19,0.33,-1.18,1.17,1.13,1.72,1.49,1.49,1.51
512.62,0.30,-1.19,0.30,-1.19,1.18,1.14,1.72,1.48,1.48,1.49
517.75,0.28,-1.20,0.28,-1.19,1.19,1.16,1.72,1.48,1.48,1.48
522.93,0.26,-1.20,0.26,-1.20,1.21,1.17,1.71,1.47,1.47,1.46
