frequency,raw
20.00,6.64
20.20,6.60
20.40,6.55
20.61,6.51
20.81,6.47
21.02,6.43
21.23,6.37
21.44,6.33
21.66,6.29
21.87,6.24
22.09,6.21
22.31,6.19
22.54,6.18
22.76,6.17
22.99,6.15
23.22,6.12
23.45,6.07
23.69,6.04
23.92,5.99
24.16,5.96
24.40,5.94
24.65,5.91
24.89,5.90
25.14,5.87
25.39,5.85
25.65,5.83
25.91,5.80
26.16,5.76
26.43,5.71
26.69,5.67
26.96,5.63
27.23,5.59
27.50,5.56
27.77,5.53
28.05,5.50
28.33,5.47
28.62,5.45
28.90,5.43
29.19,5.39
29.48,5.35
29.78,5.31
30.08,5.28
30.38,5.26
30.68,5.24
30.99,5.22
31.30,5.17
31.61,5.11
31.93,5.05
32.24,5.05
32.57,5.05
32.89,5.06
33.22,5.04
33.55,5.01
33.89,4.97
34.23,4.95
34.57,4.92
34.92,4.90
35.27,4.88
35.62,4.84
35.97,4.81
36.33,4.81
36.70,4.80
37.06,4.79
37.43,4.76
37.81,4.73
38.19,4.70
38.57,4.70
38.95,4.70
39.34,4.67
39.74,4.63
40.14,4.60
40.54,4.60
40.94,4.60
41.35,4.61
41.76,4.61
42.18,4.59
42.60,4.56
43.03,4.52
43.46,4.53
43.90,4.53
44.33,4.50
44.78,4.46
45.23,4.44
45.68,4.44
46.13,4.44
46.60,4.44
47.06,4.43
47.53,4.43
48.01,4.42
48.49,4.41
48.97,4.40
49.46,4.39
49.96,4.37
50.46,4.36
50.96,4.35
51.47,4.34
51.99,4.33
52.51,4.32
53.03,4.31
53.56,4.30
54.10,4.29
54.64,4.28
55.18,4.27
55.74,4.26
56.29,4.26
56.86,4.25
57.42,4.24
58.00,4.23
58.58,4.18
59.16,4.15
59.76,4.16
60.35,4.17
60.96,4.18
61.57,4.25
62.18,4.31
62.80,4.33
63.43,4.36
64.07,4.39
64.71,4.41
65.35,4.44
66.01,4.46
66.67,4.48
67.33,4.49
68.01,4.51
68.69,4.52
69.37,4.53
70.07,4.55
70.77,4.55
71.48,4.56
72.19,4.57
72.91,4.58
73.64,4.59
74.38,4.61
75.12,4.63
75.87,4.70
76.63,4.74
77.40,4.76
78.17,4.78
78.95,4.79
79.74,4.81
80.54,4.82
81.35,4.84
82.16,4.85
82.98,4.86
83.81,4.87
84.65,4.88
85.50,4.90
86.35,4.95
87.22,5.01
88.09,5.02
88.97,5.03
89.86,5.03
90.76,5.04
91.66,5.06
92.58,5.06
93.51,5.07
94.44,5.07
95.39,5.07
96.34,5.07
97.30,5.07
98.28,5.06
99.26,5.05
100.25,5.03
101.25,5.01
102.27,5.01
103.29,5.01
104.32,5.00
105.37,4.99
106.42,4.97
107.48,4.96
108.56,4.94
109.64,4.93
110.74,4.92
111.85,4.90
112.97,4.90
114.10,4.88
115.24,4.88
116.39,4.87
117.55,4.87
118.73,4.86
119.92,4.85
121.12,4.85
122.33,4.80
123.55,4.74
124.79,4.71
126.03,4.70
127.29,4.69
128.57,4.67
129.85,4.66
131.15,4.65
132.46,4.64
133.79,4.63
135.12,4.59
136.48,4.53
137.84,4.48
139.22,4.43
140.61,4.40
142.02,4.39
143.44,4.39
144.87,4.39
146.32,4.36
147.78,4.32
149.26,4.27
150.75,4.24
152.26,4.27
153.78,4.31
155.32,4.34
156.88,4.38
158.44,4.38
160.03,4.35
161.63,4.31
163.24,4.28
164.88,4.23
166.53,4.14
168.19,4.04
169.87,3.91
171.57,3.80
173.29,3.71
175.02,3.66
176.77,3.62
178.54,3.58
180.32,3.56
182.13,3.53
183.95,3.51
185.79,3.41
187.65,3.31
189.52,3.29
191.42,3.29
193.33,3.28
195.27,3.18
197.22,3.13
199.19,3.09
201.18,3.02
203.19,2.91
205.23,2.81
207.28,2.72
209.35,2.64
211.44,2.59
213.56,2.58
215.69,2.52
217.85,2.45
220.03,2.34
222.23,2.27
224.45,2.22
226.70,2.14
228.96,2.11
231.25,2.03
233.57,1.90
235.90,1.80
238.26,1.75
240.64,1.75
243.05,1.75
245.48,1.76
247.93,1.78
250.41,1.87
252.92,1.90
255.45,1.90
258.00,1.96
260.58,2.02
263.19,2.10
265.82,2.12
268.48,2.12
271.16,2.12
273.87,2.12
276.61,2.20
279.38,2.21
282.17,2.17
284.99,2.12
287.84,2.12
290.72,2.11
293.63,2.00
296.57,1.95
299.53,1.94
302.53,1.85
305.55,1.72
308.61,1.60
311.69,1.60
314.81,1.56
317.96,1.45
321.14,1.37
324.35,1.32
327.59,1.22
330.87,1.06
334.18,0.92
337.52,0.81
340.90,0.74
344.30,0.65
347.75,0.50
351.23,0.42
354.74,0.39
358.28,0.32
361.87,0.21
365.49,0.14
369.14,0.04
372.83,0.00
376.56,0.01
380.33,0.00
384.13,-0.04
387.97,-0.05
391.85,-0.09
395.77,-0.10
399.73,-0.06
403.72,-0.01
407.76,0.04
411.84,0.12
415.96,0.26
420.12,0.36
424.32,0.45
428.56,0.52
432.85,0.63
437.18,0.78
441.55,0.85
445.96,0.91
450.42,0.99
454.93,1.05
459.48,1.08
464.07,1.12
468.71,1.13
473.40,1.15
478.13,1.25
482.91,1.31
487.74,1.31
492.62,1.32
497.55,1.32
502.52,1.34
507.55,1.36
512.62,1.41
517.75,1.54
522.93,1.58
528.16,1.58
533.44,1.60
538.77,1.41
544.16,1.07
549.60,0.91
555.10,0.67
560.65,0.76
566.25,0.57
571.92,0.38
577.64,0.14
583.41,-0.08
589.25,-0.04
595.14,0.03
601.09,-0.00
607.10,-0.02
613.17,-0.02
619.30,0.02
625.50,0.16
631.75,0.42
638.07,0.50
644.45,0.62
650.89,1.05
657.40,1.24
663.98,1.42
670.62,1.69
677.32,1.96
684.10,2.26
690.94,2.43
697.85,2.62
704.83,2.87
711.87,2.99
718.99,3.00
726.18,3.24
733.44,2.86
740.78,2.40
748.19,1.64
755.67,1.06
763.23,0.83
770.86,0.77
778.57,0.84
786.35,0.80
794.22,0.50
802.16,0.31
810.18,0.11
818.28,0.10
826.46,0.18
834.73,0.28
843.08,0.30
851.51,0.13
860.02,-0.07
868.62,0.05
877.31,0.52
886.08,0.69
894.94,0.74
903.89,0.75
912.93,0.66
922.06,0.59
931.28,0.51
940.59,0.45
950.00,0.36
959.50,0.28
969.09,0.23
978.78,0.17
988.57,0.14
998.46,0.09
1008.44,-0.00
1018.53,-0.06
1028.71,-0.08
1039.00,0.02
1049.39,0.09
1059.88,0.14
1070.48,0.07
1081.19,-0.33
1092.00,-0.81
1102.92,-1.25
1113.95,-1.62
1125.09,-1.99
1136.34,-2.24
1147.70,-2.42
1159.18,-2.67
1170.77,-2.64
1182.48,-2.36
1194.30,-2.03
1206.25,-1.63
1218.31,-1.24
1230.49,-0.83
1242.80,-0.68
1255.22,-0.73
1267.78,-0.87
1280.45,-0.99
1293.26,-1.09
1306.19,-1.08
1319.25,-1.09
1332.45,-1.10
1345.77,-1.06
1359.23,-0.89
1372.82,-0.57
1386.55,-0.13
1400.41,0.28
1414.42,0.78
1428.56,1.18
1442.85,1.64
1457.28,2.00
1471.85,2.25
1486.57,2.40
1501.43,2.58
1516.45,2.68
1531.61,2.56
1546.93,2.64
1562.40,2.93
1578.02,2.83
1593.80,2.81
1609.74,2.76
1625.84,3.12
1642.10,3.66
1658.52,4.15
1675.10,4.67
1691.85,5.26
1708.77,6.06
1725.86,6.60
1743.12,7.06
1760.55,7.13
1778.15,6.82
1795.94,6.77
1813.90,6.90
1832.03,7.05
1850.36,7.10
1868.86,7.37
1887.55,7.89
1906.42,8.27
1925.49,8.60
1944.74,8.62
1964.19,8.35
1983.83,8.43
2003.67,8.50
2023.71,8.39
2043.94,8.12
2064.38,8.33
2085.03,8.61
2105.88,8.99
2126.94,9.26
2148.20,9.31
2169.69,9.34
2191.38,9.42
2213.30,9.53
2235.43,9.22
2257.78,9.00
2280.36,8.63
2303.17,8.33
2326.20,8.20
2349.46,8.08
2372.95,8.01
2396.68,8.11
2420.65,8.40
2444.86,8.59
2469.31,8.61
2494.00,8.65
2518.94,8.67
2544.13,8.59
2569.57,8.51
2595.27,8.24
2621.22,7.92
2647.43,7.61
2673.90,7.25
2700.64,7.11
2727.65,7.50
2754.93,7.87
2782.48,8.04
2810.30,8.46
2838.40,8.85
2866.79,9.33
2895.46,9.69
2924.41,9.76
2953.65,9.70
2983.19,9.76
3013.02,9.93
3043.15,9.99
3073.58,10.06
3104.32,10.19
3135.36,10.31
3166.72,10.46
3198.38,10.53
3230.37,10.49
3262.67,10.50
3295.30,10.53
3328.25,10.51
3361.53,10.44
3395.15,10.37
3429.10,10.55
3463.39,10.76
3498.03,10.96
3533.01,10.68
3568.34,10.42
3604.02,10.18
3640.06,10.18
3676.46,10.34
3713.22,10.49
3750.36,10.64
3787.86,10.96
3825.74,11.50
3864.00,11.84
3902.64,12.37
3941.66,12.84
3981.08,13.19
4020.89,13.37
4061.10,13.28
4101.71,13.11
4142.73,13.11
4184.15,13.15
4226.00,13.19
4268.26,13.26
4310.94,13.33
4354.05,13.12
4397.59,12.87
4441.56,12.42
4485.98,12.18
4530.84,11.77
4576.15,11.52
4621.91,11.19
4668.13,10.85
4714.81,10.67
4761.96,10.46
4809.58,10.37
4857.67,10.30
4906.25,10.33
4955.31,10.28
5004.87,10.37
5054.91,10.55
5105.46,10.72
5156.52,11.08
5208.08,12.00
5260.16,13.15
5312.77,13.84
5365.89,14.47
5419.55,14.98
5473.75,15.19
5528.49,15.44
5583.77,15.47
5639.61,15.54
5696.00,15.63
5752.96,15.87
5810.49,16.01
5868.60,15.87
5927.28,15.57
5986.56,15.18
6046.42,14.86
6106.89,14.67
6167.96,14.28
6229.64,13.74
6291.93,12.93
6354.85,12.34
6418.40,11.55
6482.58,10.61
6547.41,9.54
6612.88,8.46
6679.01,7.56
6745.80,6.78
6813.26,5.86
6881.39,5.21
6950.21,4.50
7019.71,4.04
7089.91,4.04
7160.81,4.15
7232.41,4.47
7304.74,5.06
7377.79,5.60
7451.56,6.09
7526.08,6.52
7601.34,7.09
7677.35,7.40
7754.13,7.59
7831.67,7.48
7909.98,7.23
7989.08,7.03
8068.98,6.71
8149.67,6.40
8231.16,6.18
8313.47,5.88
8396.61,5.47
8480.57,4.80
8565.38,4.13
8651.03,3.47
8737.54,2.76
8824.92,1.82
8913.17,1.06
9002.30,0.73
9092.32,0.60
9183.25,0.67
9275.08,0.79
9367.83,0.33
9461.51,-0.33
9556.12,-1.37
9651.68,-1.56
9748.20,-1.33
9845.68,-1.23
9944.14,-1.37
10043.58,-1.50
10144.02,-1.20
10245.46,-0.59
10347.91,0.12
10451.39,0.73
10555.91,1.20
10661.46,1.59
10768.08,1.97
10875.76,2.33
10984.52,2.60
11094.36,2.85
11205.31,2.90
11317.36,2.91
11430.53,2.95
11544.84,2.89
11660.29,2.93
11776.89,2.86
11894.66,2.79
12013.60,2.80
12133.74,2.69
12255.08,2.62
12377.63,2.80
12501.41,3.53
12626.42,3.73
12752.68,3.06
12880.21,2.38
13009.01,1.79
13139.10,1.22
13270.49,0.43
13403.20,-0.41
13537.23,-2.54
13672.60,-4.73
13809.33,-6.37
13947.42,-6.47
14086.90,-7.72
14227.77,-8.84
14370.04,-9.54
14513.74,-10.74
14658.88,-10.93
14805.47,-9.62
14953.52,-9.87
15103.06,-12.11
15254.09,-15.05
15406.63,-16.06
15560.70,-17.49
15716.30,-19.21
15873.47,-20.52
16032.20,-21.43
16192.52,-23.09
16354.45,-25.15
16517.99,-25.73
16683.17,-24.94
16850.01,-23.96
17018.51,-23.49
17188.69,-23.66
17360.58,-24.78
17534.18,-26.15
17709.53,-27.69
17886.62,-29.26
18065.49,-30.72
18246.14,-31.54
18428.60,-30.75
18612.89,-31.38
18799.02,-32.56
18987.01,-33.49
19176.88,-33.25
19368.65,-33.28
19562.33,-33.47
19757.96,-33.87
19955.54,-35.26
