frequency,raw,error,smoothed,error_smoothed,equalization,parametric_eq,fixed_band_eq,equalized_raw,equalized_smoothed,target
20.00,-4.97,-4.96,-4.97,-4.96,4.96,4.30,1.78,-0.01,-0.01,-0.02
20.20,-4.89,-4.94,-4.90,-4.94,4.94,4.34,1.83,0.04,0.04,0.04
20.40,-4.82,-4.92,-4.82,-4.92,4.92,4.38,1.88,0.09,0.10,0.09
20.61,-4.75,-4.90,-4.74,-4.89,4.89,4.42,1.93,0.15,0.15,0.15
20.81,-4.66,-4.87,-4.67,-4.87,4.87,4.46,1.99,0.21,0.21,0.20
21.02,-4.58,-4.85,-4.59,-4.85,4.85,4.50,2.04,0.26,0.26,0.26
21.23,-4.51,-4.83,-4.51,-4.82,4.82,4.53,2.10,0.31,0.31,0.31
21.44,-4.43,-4.80,-4.43,-4.80,4.80,4.56,2.16,0.36,0.36,0.36
21.66,-4.35,-4.77,-4.35,-4.77,4.77,4.58,2.22,0.41,0.41,0.41
21.87,-4.27,-4.74,-4.28,-4.74,4.74,4.61,2.28,0.47,0.47,0.46
22.09,-4.20,-4.72,-4.20,-4.71,4.71,4.63,2.35,0.51,0.51,0.51
22.31,-4.12,-4.69,-4.13,-4.69,4.68,4.64,2.41,0.56,0.56,0.56
22.54,-4.05,-4.66,-4.05,-4.65,4.65,4.66,2.48,0.60,0.60,0.60
22.76,-3.97,-4.62,-3.97,-4.62,4.62,4.67,2.55,0.65,0.65,0.65
22.99,-3.89,-4.58,-3.90,-4.59,4.59,4.68,2.62,0.70,0.69,0.69
23.22,-3.82,-4.56,-3.82,-4.56,4.56,4.68,2.69,0.74,0.74,0.74
23.45,-3.74,-4.52,-3.75,-4.53,4.53,4.68,2.77,0.79,0.78,0.78
23.69,-3.67,-4.50,-3.67,-4.50,4.50,4.68,2.84,0.82,0.83,0.83
23.92,-3.59,-4.46,-3.60,-4.47,4.47,4.68,2.92,0.88,0.87,0.87
24.16,-3.52,-4.44,-3.52,-4.44,4.44,4.67,3.00,0.91,0.91,0.92
24.40,-3.45,-4.41,-3.45,-4.41,4.41,4.66,3.08,0.95,0.96,0.96
24.65,-3.37,-4.37,-3.38,-4.38,4.38,4.64,3.16,1.00,1.00,1.00
24.89,-3.30,-4.34,-3.30,-4.34,4.34,4.63,3.24,1.04,1.04,1.04
25.14,-3.23,-4.31,-3.23,-4.31,4.31,4.60,3.32,1.08,1.08,1.08
25.39,-3.16,-4.28,-3.16,-4.28,4.28,4.58,3.40,1.12,1.12,1.12
25.65,-3.09,-4.25,-3.09,-4.25,4.25,4.56,3.49,1.15,1.16,1.16
25.91,-3.03,-4.22,-3.02,-4.22,4.22,4.53,3.57,1.19,1.19,1.19
26.16,-2.95,-4.19,-2.95,-4.19,4.18,4.50,3.65,1.23,1.23,1.24
26.43,-2.88,-4.15,-2.88,-4.15,4.15,4.46,3.73,1.27,1.27,1.26
26.69,-2.81,-4.12,-2.81,-4.12,4.12,4.43,3.81,1.30,1.30,1.30
26.96,-2.74,-4.09,-2.74,-4.08,4.08,4.39,3.89,1.34,1.34,1.34
27.23,-2.67,-4.05,-2.67,-4.05,4.05,4.35,3.97,1.38,1.38,1.37
27.50,-2.60,-4.02,-2.61,-4.02,4.02,4.31,4.04,1.42,1.41,1.41
27.77,-2.54,-3.99,-2.54,-3.99,3.99,4.27,4.11,1.45,1.45,1.45
28.05,-2.47,-3.95,-2.48,-3.96,3.96,4.22,4.18,1.49,1.48,1.48
28.33,-2.41,-3.93,-2.41,-3.93,3.93,4.18,4.25,1.52,1.52,1.52
28.62,-2.34,-3.90,-2.35,-3.90,3.90,4.13,4.31,1.56,1.56,1.56
28.90,-2.28,-3.88,-2.28,-3.88,3.88,4.08,4.36,1.59,1.59,1.60
29.19,-2.22,-3.85,-2.22,-3.85,3.85,4.03,4.41,1.63,1.63,1.63
29.48,-2.16,-3.83,-2.16,-3.83,3.83,3.99,4.46,1.67,1.67,1.67
29.78,-2.10,-3.81,-2.10,-3.81,3.81,3.94,4.50,1.70,1.70,1.70
30.08,-2.04,-3.78,-2.05,-3.78,3.78,3.89,4.54,1.74,1.74,1.73
30.38,-1.99,-3.77,-1.99,-3.76,3.76,3.84,4.57,1.77,1.77,1.77
30.68,-1.93,-3.74,-1.94,-3.74,3.74,3.79,4.59,1.81,1.80,1.80
30.99,-1.88,-3.72,-1.88,-3.72,3.72,3.73,4.61,1.84,1.84,1.84
31.30,-1.83,-3.70,-1.83,-3.70,3.70,3.68,4.62,1.87,1.87,1.87
31.61,-1.78,-3.68,-1.78,-3.68,3.69,3.63,4.62,1.90,1.90,1.90
31.93,-1.73,-3.66,-1.74,-3.66,3.67,3.58,4.62,1.93,1.93,1.93
32.24,-1.69,-3.65,-1.69,-3.65,3.65,3.53,4.61,1.96,1.96,1.96
32.57,-1.65,-3.64,-1.65,-3.63,3.63,3.49,4.59,1.98,1.98,1.98
32.89,-1.60,-3.62,-1.61,-3.62,3.61,3.44,4.57,2.01,2.01,2.01
33.22,-1.56,-3.59,-1.56,-3.60,3.59,3.39,4.55,2.03,2.03,2.03
33.55,-1.51,-3.57,-1.52,-3.57,3.57,3.34,4.52,2.06,2.06,2.06
33.89,-1.47,-3.55,-1.47,-3.55,3.55,3.29,4.48,2.08,2.08,2.08
34.23,-1.42,-3.52,-1.43,-3.53,3.53,3.25,4.44,2.11,2.10,2.10
34.57,-1.38,-3.51,-1.38,-3.50,3.51,3.20,4.40,2.12,2.12,2.12
34.92,-1.34,-3.49,-1.34,-3.49,3.49,3.16,4.35,2.14,2.14,2.14
35.27,-1.30,-3.46,-1.31,-3.47,3.47,3.12,4.31,2.16,2.16,2.16
35.62,-1.27,-3.45,-1.27,-3.45,3.45,3.08,4.25,2.17,2.18,2.18
35.97,-1.23,-3.43,-1.24,-3.43,3.43,3.04,4.20,2.20,2.19,2.20
36.33,-1.20,-3.41,-1.20,-3.41,3.41,3.00,4.15,2.21,2.21,2.20
36.70,-1.17,-3.40,-1.17,-3.39,3.39,2.96,4.09,2.22,2.23,2.22
37.06,-1.13,-3.37,-1.14,-3.37,3.38,2.93,4.03,2.24,2.24,2.24
37.43,-1.10,-3.35,-1.11,-3.36,3.36,2.89,3.98,2.25,2.25,2.25
37.81,-1.08,-3.35,-1.08,-3.34,3.34,2.86,3.92,2.25,2.26,2.26
38.19,-1.04,-3.32,-1.05,-3.32,3.32,2.83,3.87,2.27,2.27,2.27
38.57,-1.01,-3.29,-1.02,-3.30,3.29,2.80,3.81,2.28,2.28,2.28
38.95,-0.98,-3.27,-0.99,-3.27,3.27,2.77,3.76,2.29,2.29,2.29
39.34,-0.96,-3.26,-0.96,-3.25,3.25,2.75,3.70,2.29,2.29,2.29
39.74,-0.93,-3.23,-0.93,-3.23,3.23,2.72,3.65,2.30,2.30,2.30
40.14,-0.90,-3.20,-0.91,-3.21,3.21,2.70,3.60,2.30,2.30,2.30
40.54,-0.88,-3.19,-0.88,-3.19,3.19,2.68,3.56,2.30,2.30,2.30
40.94,-0.86,-3.17,-0.86,-3.17,3.17,2.66,3.51,2.31,2.31,2.31
41.35,-0.84,-3.15,-0.84,-3.15,3.15,2.65,3.47,2.31,2.31,2.31
41.76,-0.82,-3.14,-0.82,-3.13,3.14,2.63,3.43,2.31,2.31,2.31
42.18,-0.80,-3.11,-0.81,-3.12,3.12,2.62,3.39,2.32,2.31,2.31
42.60,-0.79,-3.11,-0.79,-3.11,3.11,2.61,3.35,2.31,2.31,2.31
43.03,-0.78,-3.09,-0.78,-3.10,3.10,2.61,3.32,2.31,2.31,2.31
43.46,-0.77,-3.09,-0.77,-3.09,3.09,2.60,3.29,2.31,2.31,2.32
43.90,-0.76,-3.08,-0.76,-3.08,3.08,2.60,3.26,2.31,2.32,2.31
44.33,-0.75,-3.07,-0.75,-3.07,3.07,2.61,3.23,2.32,2.31,2.32
44.78,-0.74,-3.06,-0.75,-3.06,3.06,2.61,3.21,2.32,2.31,2.31
45.23,-0.74,-3.06,-0.74,-3.05,3.05,2.62,3.19,2.31,2.31,2.32
45.68,-0.73,-3.05,-0.73,-3.05,3.04,2.63,3.17,2.31,2.31,2.31
46.13,-0.72,-3.03,-0.72,-3.04,3.03,2.64,3.15,2.31,2.30,2.31
46.60,-0.71,-3.02,-0.71,-3.02,3.02,2.66,3.14,2.30,2.31,2.31
47.06,-0.70,-3.01,-0.70,-3.01,3.01,2.68,3.13,2.30,2.31,2.30
47.53,-0.69,-2.99,-0.70,-3.00,3.00,2.70,3.12,2.31,2.30,2.30
48.01,-0.69,-3.00,-0.69,-2.99,3.00,2.73,3.11,2.30,2.30,2.30
48.49,-0.69,-2.99,-0.69,-2.99,2.99,2.76,3.11,2.30,2.30,2.30
48.97,-0.69,-2.98,-0.70,-2.99,2.99,2.79,3.10,2.30,2.30,2.29
49.46,-0.70,-3.00,-0.71,-2.99,3.00,2.83,3.10,2.30,2.29,2.29
49.96,-0.72,-3.01,-0.72,-3.01,3.01,2.86,3.10,2.28,2.29,2.28
50.46,-0.73,-3.02,-0.74,-3.02,3.02,2.90,3.11,2.28,2.28,2.29
50.96,-0.75,-3.03,-0.75,-3.03,3.03,2.95,3.11,2.27,2.28,2.28
51.47,-0.76,-3.04,-0.76,-3.04,3.04,2.99,3.11,2.27,2.27,2.28
51.99,-0.77,-3.05,-0.78,-3.05,3.05,3.04,3.12,2.27,2.27,2.27
52.51,-0.79,-3.06,-0.79,-3.06,3.06,3.08,3.12,2.26,2.27,2.26
53.03,-0.80,-3.07,-0.81,-3.07,3.07,3.13,3.13,2.26,2.26,2.26
53.56,-0.82,-3.08,-0.82,-3.08,3.08,3.17,3.14,2.25,2.25,2.25
54.10,-0.83,-3.08,-0.84,-3.08,3.08,3.21,3.14,2.25,2.25,2.25
54.64,-0.85,-3.09,-0.85,-3.09,3.09,3.25,3.15,2.24,2.24,2.24
55.18,-0.87,-3.10,-0.87,-3.10,3.10,3.29,3.15,2.22,2.22,2.22
55.74,-0.89,-3.11,-0.89,-3.11,3.10,3.32,3.16,2.21,2.21,2.21
56.29,-0.91,-3.11,-0.91,-3.11,3.11,3.34,3.16,2.20,2.20,2.19
56.86,-0.93,-3.11,-0.93,-3.11,3.11,3.35,3.16,2.18,2.18,2.18
57.42,-0.95,-3.11,-0.96,-3.12,3.12,3.36,3.16,2.16,2.16,2.16
58.00,-0.98,-3.12,-0.98,-3.12,3.12,3.36,3.15,2.14,2.14,2.14
58.58,-1.00,-3.12,-1.00,-3.12,3.12,3.35,3.15,2.12,2.12,2.11
59.16,-1.02,-3.11,-1.03,-3.12,3.12,3.33,3.14,2.09,2.09,2.09
59.76,-1.04,-3.11,-1.04,-3.11,3.11,3.30,3.12,2.06,2.06,2.07
60.35,-1.06,-3.10,-1.06,-3.10,3.10,3.26,3.11,2.03,2.03,2.03
60.96,-1.07,-3.08,-1.08,-3.08,3.08,3.21,3.09,2.00,2.00,2.01
61.57,-1.08,-3.07,-1.08,-3.06,3.06,3.15,3.07,1.97,1.97,1.98
62.18,-1.08,-3.03,-1.08,-3.03,3.03,3.09,3.04,1.95,1.95,1.95
62.80,-1.07,-3.00,-1.08,-3.00,3.00,3.01,3.01,1.92,1.92,1.92
63.43,-1.06,-2.96,-1.07,-2.96,2.96,2.93,2.97,1.90,1.90,1.90
64.07,-1.05,-2.92,-1.05,-2.92,2.93,2.85,2.94,1.87,1.87,1.87
64.71,-1.04,-2.89,-1.04,-2.89,2.89,2.76,2.89,1.84,1.85,1.84
65.35,-1.02,-2.85,-1.02,-2.85,2.85,2.68,2.85,1.82,1.82,1.82
66.01,-1.00,-2.81,-1.00,-2.81,2.81,2.58,2.80,1.80,1.80,1.80
66.67,-0.97,-2.76,-0.98,-2.76,2.76,2.49,2.75,1.79,1.79,1.79
67.33,-0.95,-2.72,-0.95,-2.72,2.72,2.40,2.69,1.77,1.77,1.77
68.01,-0.92,-2.68,-0.92,-2.68,2.68,2.31,2.63,1.75,1.76,1.76
68.69,-0.89,-2.64,-0.89,-2.64,2.63,2.22,2.57,1.74,1.74,1.75
69.37,-0.85,-2.59,-0.86,-2.59,2.59,2.13,2.50,1.74,1.73,1.73
70.07,-0.82,-2.55,-0.82,-2.54,2.55,2.04,2.44,1.72,1.72,1.72
70.77,-0.78,-2.49,-0.79,-2.50,2.50,1.96,2.37,1.72,1.72,1.71
71.48,-0.75,-2.46,-0.75,-2.45,2.46,1.87,2.30,1.70,1.71,1.71
72.19,-0.71,-2.41,-0.72,-2.41,2.41,1.79,2.22,1.69,1.69,1.69
72.91,-0.68,-2.36,-0.69,-2.37,2.36,1.71,2.15,1.68,1.67,1.68
73.64,-0.65,-2.32,-0.65,-2.31,2.31,1.64,2.07,1.65,1.66,1.66
74.38,-0.61,-2.26,-0.61,-2.26,2.26,1.57,2.00,1.64,1.65,1.65
75.12,-0.56,-2.20,-0.57,-2.20,2.20,1.50,1.92,1.64,1.63,1.63
75.87,-0.53,-2.15,-0.53,-2.15,2.15,1.43,1.84,1.62,1.62,1.62
76.63,-0.49,-2.09,-0.50,-2.09,2.10,1.36,1.76,1.60,1.60,1.60
77.40,-0.46,-2.03,-0.47,-2.04,2.04,1.30,1.69,1.58,1.58,1.57
78.17,-0.43,-1.99,-0.43,-1.99,1.99,1.24,1.61,1.55,1.55,1.55
78.95,-0.40,-1.94,-0.40,-1.93,1.93,1.18,1.53,1.52,1.53,1.53
79.74,-0.36,-1.88,-0.36,-1.88,1.87,1.13,1.45,1.50,1.50,1.51
80.54,-0.32,-1.82,-0.32,-1.82,1.81,1.07,1.37,1.48,1.48,1.49
81.35,-0.27,-1.75,-0.27,-1.75,1.74,1.02,1.29,1.47,1.47,1.47
82.16,-0.22,-1.68,-0.22,-1.68,1.68,0.97,1.22,1.46,1.46,1.45
82.98,-0.17,-1.60,-0.17,-1.61,1.62,0.92,1.14,1.44,1.44,1.43
83.81,-0.12,-1.54,-0.13,-1.55,1.55,0.87,1.06,1.43,1.43,1.42
84.65,-0.08,-1.49,-0.09,-1.49,1.49,0.83,0.98,1.41,1.41,1.41
85.50,-0.05,-1.45,-0.05,-1.44,1.44,0.78,0.91,1.38,1.39,1.39
86.35,-0.00,-1.38,-0.01,-1.38,1.38,0.74,0.83,1.38,1.37,1.38
87.22,0.04,-1.33,0.03,-1.33,1.33,0.70,0.76,1.37,1.36,1.36
88.09,0.07,-1.28,0.07,-1.28,1.28,0.65,0.68,1.35,1.35,1.35
88.97,0.11,-1.23,0.10,-1.23,1.23,0.61,0.61,1.34,1.33,1.33
89.86,0.14,-1.18,0.14,-1.18,1.18,0.58,0.53,1.32,1.32,1.32
90.76,0.17,-1.14,0.17,-1.13,1.13,0.54,0.46,1.29,1.30,1.30
91.66,0.21,-1.08,0.20,-1.08,1.08,0.50,0.38,1.28,1.28,1.28
92.58,0.24,-1.03,0.24,-1.03,1.02,0.46,0.31,1.26,1.26,1.27
93.51,0.28,-0.96,0.28,-0.97,0.97,0.43,0.24,1.25,1.25,1.24
94.44,0.32,-0.91,0.31,-0.91,0.92,0.39,0.17,1.23,1.23,1.22
95.39,0.35,-0.85,0.34,-0.85,0.86,0.35,0.10,1.21,1.20,1.19
96.34,0.37,-0.80,0.37,-0.80,0.80,0.32,0.03,1.17,1.17,1.17
97.30,0.39,-0.74,0.39,-0.74,0.73,0.28,-0.04,1.12,1.12,1.13
98.28,0.42,-0.68,0.41,-0.68,0.67,0.25,-0.11,1.08,1.08,1.10
99.26,0.45,-0.61,0.45,-0.61,0.60,0.22,-0.18,1.04,1.05,1.06
100.25,0.50,-0.53,0.50,-0.52,0.52,0.18,-0.25,1.02,1.02,1.02
101.25,0.55,-0.44,0.54,-0.44,0.45,0.15,-0.32,0.99,0.99,0.98
102.27,0.60,-0.35,0.59,-0.36,0.37,0.11,-0.39,0.97,0.96,0.94
103.29,0.62,-0.29,0.62,-0.28,0.29,0.08,-0.45,0.91,0.91,0.90
104.32,0.65,-0.21,0.65,-0.21,0.21,0.04,-0.52,0.86,0.86,0.85
105.37,0.69,-0.13,0.68,-0.13,0.13,0.01,-0.58,0.82,0.81,0.82
106.42,0.71,-0.06,0.71,-0.06,0.06,-0.03,-0.64,0.76,0.76,0.77
107.48,0.74,0.01,0.74,0.01,-0.02,-0.06,-0.70,0.71,0.71,0.73
108.56,0.77,0.09,0.77,0.09,-0.11,-0.10,-0.76,0.66,0.67,0.68
109.64,0.82,0.18,0.81,0.18,-0.19,-0.14,-0.82,0.63,0.62,0.64
110.74,0.87,0.28,0.86,0.27,-0.27,-0.17,-0.88,0.60,0.59,0.59
111.85,0.91,0.36,0.91,0.36,-0.35,-0.21,-0.93,0.56,0.56,0.55
112.97,0.97,0.45,0.96,0.45,-0.43,-0.25,-0.98,0.54,0.53,0.51
114.10,1.00,0.52,0.99,0.52,-0.51,-0.29,-1.03,0.49,0.49,0.47
115.24,1.03,0.59,1.02,0.59,-0.58,-0.33,-1.08,0.44,0.44,0.43
116.39,1.04,0.64,1.04,0.64,-0.66,-0.37,-1.13,0.38,0.39,0.40
117.55,1.07,0.70,1.07,0.71,-0.73,-0.42,-1.17,0.34,0.35,0.37
118.73,1.12,0.78,1.12,0.79,-0.80,-0.46,-1.21,0.32,0.32,0.33
119.92,1.18,0.87,1.17,0.86,-0.87,-0.51,-1.24,0.31,0.30,0.30
121.12,1.23,0.95,1.22,0.94,-0.94,-0.55,-1.28,0.29,0.28,0.28
122.33,1.26,0.99,1.26,1.01,-1.00,-0.60,-1.31,0.25,0.26,0.26
123.55,1.31,1.07,1.31,1.08,-1.07,-0.65,-1.34,0.24,0.24,0.24
124.79,1.36,1.15,1.35,1.14,-1.13,-0.70,-1.36,0.23,0.22,0.21
126.03,1.40,1.20,1.39,1.19,-1.18,-0.75,-1.38,0.21,0.20,0.19
127.29,1.41,1.24,1.41,1.24,-1.23,-0.81,-1.40,0.17,0.18,0.17
128.57,1.43,1.27,1.43,1.28,-1.28,-0.86,-1.41,0.14,0.15,0.16
129.85,1.46,1.32,1.45,1.32,-1.33,-0.92,-1.43,0.12,0.12,0.13
131.15,1.49,1.37,1.48,1.37,-1.38,-0.98,-1.44,0.10,0.10,0.12
132.46,1.52,1.42,1.52,1.42,-1.43,-1.04,-1.44,0.09,0.09,0.10
133.79,1.56,1.48,1.56,1.48,-1.48,-1.10,-1.45,0.08,0.08,0.08
135.12,1.61,1.55,1.60,1.54,-1.53,-1.17,-1.45,0.07,0.06,0.05
136.48,1.63,1.59,1.63,1.60,-1.59,-1.23,-1.45,0.04,0.04,0.03
137.84,1.66,1.64,1.65,1.64,-1.64,-1.30,-1.45,0.01,0.01,0.01
139.22,1.68,1.69,1.68,1.69,-1.70,-1.37,-1.44,-0.02,-0.02,-0.02
140.61,1.70,1.73,1.71,1.74,-1.75,-1.44,-1.44,-0.06,-0.05,-0.04
142.02,1.75,1.81,1.74,1.80,-1.81,-1.52,-1.43,-0.06,-0.07,-0.06
143.44,1.77,1.85,1.77,1.86,-1.86,-1.59,-1.42,-0.09,-0.09,-0.08
144.87,1.81,1.92,1.80,1.91,-1.91,-1.67,-1.41,-0.10,-0.11,-0.11
146.32,1.82,1.95,1.82,1.95,-1.95,-1.74,-1.40,-0.14,-0.13,-0.14
147.78,1.85,2.00,1.84,2.00,-1.99,-1.82,-1.39,-0.15,-0.15,-0.15
149.26,1.86,2.03,1.86,2.04,-2.03,-1.89,-1.38,-0.17,-0.17,-0.18
150.75,1.87,2.07,1.86,2.07,-2.06,-1.97,-1.37,-0.20,-0.20,-0.20
152.26,1.87,2.09,1.86,2.09,-2.09,-2.04,-1.36,-0.22,-0.22,-0.23
153.78,1.86,2.11,1.86,2.11,-2.11,-2.11,-1.34,-0.25,-0.25,-0.25
155.32,1.86,2.12,1.86,2.12,-2.13,-2.18,-1.33,-0.27,-0.27,-0.26
156.88,1.86,2.14,1.85,2.14,-2.14,-2.24,-1.32,-0.29,-0.29,-0.29
158.44,1.85,2.16,1.85,2.16,-2.16,-2.30,-1.31,-0.31,-0.31,-0.31
160.03,1.85,2.18,1.85,2.17,-2.18,-2.35,-1.30,-0.33,-0.33,-0.33
161.63,1.85,2.19,1.84,2.19,-2.19,-2.40,-1.29,-0.35,-0.35,-0.34
163.24,1.85,2.21,1.85,2.21,-2.21,-2.44,-1.28,-0.37,-0.37,-0.36
164.88,1.85,2.23,1.85,2.23,-2.24,-2.48,-1.27,-0.39,-0.39,-0.38
166.53,1.86,2.25,1.86,2.25,-2.26,-2.50,-1.26,-0.40,-0.40,-0.39
168.19,1.87,2.28,1.86,2.27,-2.27,-2.52,-1.26,-0.41,-0.41,-0.41
169.87,1.87,2.29,1.87,2.29,-2.29,-2.53,-1.25,-0.42,-0.42,-0.43
171.57,1.87,2.30,1.87,2.30,-2.30,-2.53,-1.25,-0.43,-0.43,-0.44
173.29,1.87,2.31,1.86,2.31,-2.30,-2.52,-1.24,-0.43,-0.44,-0.44
175.02,1.85,2.30,1.85,2.30,-2.29,-2.51,-1.24,-0.45,-0.45,-0.45
176.77,1.83,2.29,1.83,2.29,-2.28,-2.48,-1.24,-0.46,-0.45,-0.47
178.54,1.81,2.27,1.80,2.27,-2.27,-2.45,-1.24,-0.46,-0.46,-0.46
180.32,1.78,2.24,1.78,2.25,-2.25,-2.41,-1.24,-0.47,-0.47,-0.47
182.13,1.75,2.22,1.75,2.22,-2.22,-2.37,-1.24,-0.48,-0.48,-0.47
183.95,1.72,2.19,1.72,2.19,-2.19,-2.32,-1.24,-0.48,-0.48,-0.48
185.79,1.69,2.16,1.69,2.16,-2.16,-2.26,-1.24,-0.48,-0.47,-0.47
187.65,1.67,2.14,1.66,2.14,-2.13,-2.21,-1.25,-0.47,-0.47,-0.47
189.52,1.64,2.11,1.63,2.11,-2.10,-2.15,-1.25,-0.46,-0.47,-0.48
191.42,1.60,2.07,1.60,2.07,-2.07,-2.08,-1.26,-0.47,-0.47,-0.48
193.33,1.56,2.04,1.56,2.04,-2.04,-2.02,-1.27,-0.48,-0.48,-0.48
195.27,1.52,2.00,1.52,2.00,-2.01,-1.95,-1.27,-0.49,-0.49,-0.48
197.22,1.49,1.97,1.49,1.97,-1.98,-1.89,-1.28,-0.49,-0.49,-0.48
199.19,1.46,1.94,1.46,1.94,-1.95,-1.82,-1.29,-0.49,-0.49,-0.48
201.18,1.43,1.92,1.43,1.92,-1.92,-1.75,-1.30,-0.50,-0.49,-0.49
203.19,1.40,1.89,1.40,1.89,-1.89,-1.69,-1.31,-0.50,-0.50,-0.49
205.23,1.37,1.87,1.36,1.87,-1.86,-1.63,-1.32,-0.49,-0.50,-0.50
207.28,1.32,1.83,1.32,1.83,-1.82,-1.56,-1.33,-0.51,-0.50,-0.51
209.35,1.28,1.79,1.28,1.79,-1.78,-1.50,-1.34,-0.50,-0.50,-0.51
211.44,1.23,1.75,1.22,1.75,-1.74,-1.44,-1.36,-0.51,-0.51,-0.52
213.56,1.17,1.70,1.16,1.69,-1.69,-1.39,-1.37,-0.52,-0.52,-0.53
215.69,1.10,1.62,1.10,1.63,-1.64,-1.33,-1.38,-0.54,-0.54,-0.53
217.85,1.03,1.56,1.03,1.57,-1.58,-1.28,-1.39,-0.56,-0.55,-0.54
220.03,0.98,1.52,0.98,1.52,-1.53,-1.23,-1.40,-0.55,-0.56,-0.54
222.23,0.93,1.48,0.93,1.48,-1.48,-1.18,-1.41,-0.55,-0.55,-0.55
224.45,0.88,1.43,0.87,1.43,-1.42,-1.13,-1.41,-0.55,-0.55,-0.56
226.70,0.83,1.39,0.82,1.38,-1.37,-1.09,-1.42,-0.55,-0.56,-0.57
228.96,0.75,1.32,0.76,1.33,-1.32,-1.04,-1.43,-0.58,-0.56,-0.57
231.25,0.70,1.27,0.69,1.27,-1.28,-1.00,-1.43,-0.58,-0.59,-0.58
233.57,0.64,1.23,0.63,1.22,-1.23,-0.96,-1.43,-0.60,-0.60,-0.60
235.90,0.56,1.16,0.57,1.18,-1.19,-0.93,-1.44,-0.63,-0.61,-0.60
238.26,0.53,1.14,0.52,1.13,-1.14,-0.89,-1.44,-0.61,-0.62,-0.62
240.64,0.48,1.10,0.48,1.10,-1.10,-0.86,-1.43,-0.62,-0.62,-0.62
243.05,0.44,1.07,0.43,1.07,-1.06,-0.82,-1.43,-0.62,-0.62,-0.64
245.48,0.39,1.04,0.38,1.03,-1.02,-0.79,-1.42,-0.63,-0.64,-0.65
247.93,0.31,0.96,0.32,0.98,-0.98,-0.76,-1.42,-0.68,-0.66,-0.66
250.41,0.27,0.94,0.26,0.93,-0.94,-0.74,-1.41,-0.68,-0.68,-0.67
252.92,0.21,0.88,0.22,0.90,-0.91,-0.71,-1.39,-0.70,-0.69,-0.68
255.45,0.19,0.88,0.18,0.87,-0.87,-0.68,-1.38,-0.68,-0.69,-0.69
258.00,0.15,0.84,0.14,0.84,-0.83,-0.66,-1.36,-0.68,-0.69,-0.70
260.58,0.09,0.80,0.09,0.80,-0.79,-0.64,-1.35,-0.70,-0.70,-0.71
263.19,0.04,0.75,0.03,0.75,-0.75,-0.62,-1.33,-0.71,-0.71,-0.71
265.82,-0.02,0.69,-0.02,0.70,-0.71,-0.59,-1.30,-0.73,-0.72,-0.72
268.48,-0.06,0.67,-0.06,0.66,-0.67,-0.57,-1.28,-0.73,-0.73,-0.73
271.16,-0.10,0.63,-0.11,0.63,-0.62,-0.56,-1.25,-0.73,-0.74,-0.73
273.87,-0.16,0.58,-0.16,0.59,-0.59,-0.54,-1.23,-0.75,-0.74,-0.75
276.61,-0.20,0.56,-0.21,0.55,-0.55,-0.52,-1.20,-0.76,-0.76,-0.76
279.38,-0.25,0.51,-0.25,0.52,-0.52,-0.50,-1.17,-0.78,-0.78,-0.76
282.17,-0.29,0.48,-0.29,0.49,-0.50,-0.49,-1.13,-0.79,-0.79,-0.78
284.99,-0.31,0.48,-0.32,0.47,-0.48,-0.47,-1.10,-0.79,-0.80,-0.79
287.84,-0.34,0.46,-0.34,0.46,-0.46,-0.46,-1.07,-0.80,-0.80,-0.80
290.72,-0.36,0.45,-0.36,0.45,-0.45,-0.45,-1.03,-0.81,-0.81,-0.82
293.63,-0.38,0.44,-0.39,0.44,-0.43,-0.43,-1.00,-0.82,-0.82,-0.83
296.57,-0.41,0.43,-0.41,0.43,-0.42,-0.42,-0.96,-0.84,-0.84,-0.84
299.53,-0.44,0.41,-0.44,0.41,-0.41,-0.41,-0.92,-0.86,-0.85,-0.85
302.53,-0.46,0.40,-0.47,0.40,-0.40,-0.40,-0.89,-0.87,-0.87,-0.87
305.55,-0.49,0.38,-0.49,0.39,-0.39,-0.39,-0.85,-0.89,-0.88,-0.88
308.61,-0.51,0.38,-0.51,0.38,-0.38,-0.38,-0.81,-0.89,-0.89,-0.89
311.69,-0.53,0.37,-0.53,0.37,-0.36,-0.37,-0.77,-0.90,-0.90,-0.90
314.81,-0.55,0.36,-0.56,0.36,-0.34,-0.36,-0.73,-0.90,-0.90,-0.91
317.96,-0.58,0.34,-0.59,0.34,-0.33,-0.35,-0.70,-0.91,-0.91,-0.93
321.14,-0.62,0.30,-0.62,0.31,-0.31,-0.34,-0.66,-0.93,-0.93,-0.93
324.35,-0.65,0.29,-0.66,0.28,-0.29,-0.34,-0.62,-0.94,-0.94,-0.94
327.59,-0.69,0.25,-0.69,0.26,-0.27,-0.33,-0.58,-0.96,-0.96,-0.94
330.87,-0.70,0.25,-0.71,0.24,-0.25,-0.32,-0.54,-0.96,-0.96,-0.95
334.18,-0.72,0.23,-0.72,0.23,-0.24,-0.32,-0.50,-0.96,-0.97,-0.95
337.52,-0.73,0.22,-0.73,0.23,-0.23,-0.31,-0.47,-0.97,-0.96,-0.96
340.90,-0.74,0.22,-0.74,0.22,-0.22,-0.31,-0.43,-0.97,-0.97,-0.97
344.30,-0.74,0.22,-0.75,0.22,-0.22,-0.30,-0.39,-0.96,-0.96,-0.97
347.75,-0.75,0.22,-0.75,0.22,-0.21,-0.29,-0.35,-0.96,-0.96,-0.97
351.23,-0.76,0.21,-0.77,0.20,-0.20,-0.29,-0.32,-0.96,-0.96,-0.97
354.74,-0.78,0.19,-0.78,0.19,-0.18,-0.29,-0.28,-0.96,-0.96,-0.97
358.28,-0.81,0.16,-0.81,0.16,-0.16,-0.28,-0.24,-0.97,-0.97,-0.97
361.87,-0.83,0.14,-0.84,0.14,-0.13,-0.28,-0.20,-0.97,-0.97,-0.97
365.49,-0.87,0.10,-0.87,0.11,-0.10,-0.27,-0.17,-0.98,-0.97,-0.98
369.14,-0.90,0.07,-0.90,0.07,-0.07,-0.27,-0.13,-0.98,-0.98,-0.98
372.83,-0.93,0.03,-0.94,0.03,-0.04,-0.27,-0.09,-0.98,-0.98,-0.97
376.56,-0.97,-0.01,-0.97,0.00,-0.01,-0.27,-0.06,-0.99,-0.98,-0.97
380.33,-0.99,-0.01,-0.99,-0.02,0.01,-0.26,-0.02,-0.98,-0.98,-0.98
384.13,-1.01,-0.03,-1.02,-0.04,0.04,-0.26,0.01,-0.97,-0.98,-0.98
387.97,-1.03,-0.05,-1.04,-0.06,0.06,-0.26,0.05,-0.97,-0.97,-0.98
391.85,-1.06,-0.08,-1.06,-0.08,0.08,-0.26,0.08,-0.98,-0.98,-0.98
395.77,-1.09,-0.11,-1.09,-0.11,0.10,-0.26,0.11,-0.99,-0.99,-0.98
399.73,-1.12,-0.13,-1.12,-0.13,0.13,-0.25,0.15,-1.00,-1.00,-0.99
403.72,-1.14,-0.15,-1.14,-0.15,0.15,-0.25,0.18,-1.00,-1.00,-0.99
407.76,-1.16,-0.16,-1.16,-0.16,0.17,-0.25,0.21,-1.00,-1.00,-1.01
411.84,-1.18,-0.18,-1.19,-0.18,0.19,-0.25,0.24,-1.00,-1.00,-1.01
415.96,-1.22,-0.21,-1.22,-0.20,0.21,-0.25,0.28,-1.02,-1.01,-1.02
420.12,-1.25,-0.23,-1.25,-0.22,0.22,-0.25,0.30,-1.03,-1.03,-1.03
424.32,-1.28,-0.24,-1.29,-0.24,0.24,-0.25,0.33,-1.05,-1.05,-1.05
428.56,-1.31,-0.26,-1.31,-0.25,0.25,-0.25,0.36,-1.07,-1.07,-1.06
432.85,-1.33,-0.27,-1.33,-0.26,0.26,-0.25,0.39,-1.08,-1.08,-1.07
437.18,-1.35,-0.26,-1.35,-0.26,0.26,-0.25,0.41,-1.09,-1.09,-1.09
441.55,-1.36,-0.25,-1.37,-0.26,0.26,-0.25,0.44,-1.10,-1.11,-1.11
445.96,-1.38,-0.26,-1.39,-0.26,0.26,-0.26,0.46,-1.12,-1.12,-1.12
450.42,-1.41,-0.27,-1.41,-0.27,0.26,-0.26,0.48,-1.15,-1.14,-1.14
454.93,-1.42,-0.26,-1.43,-0.27,0.27,-0.26,0.50,-1.16,-1.16,-1.16
459.48,-1.44,-0.27,-1.44,-0.27,0.28,-0.26,0.51,-1.17,-1.17,-1.17
464.07,-1.46,-0.27,-1.47,-0.28,0.29,-0.26,0.52,-1.18,-1.18,-1.19
468.71,-1.49,-0.29,-1.50,-0.29,0.30,-0.27,0.54,-1.19,-1.19,-1.20
473.40,-1.53,-0.31,-1.53,-0.31,0.32,-0.27,0.54,-1.21,-1.21,-1.22
478.13,-1.57,-0.34,-1.57,-0.34,0.34,-0.27,0.55,-1.23,-1.23,-1.23
482.91,-1.61,-0.37,-1.61,-0.36,0.36,-0.28,0.55,-1.26,-1.25,-1.24
487.74,-1.63,-0.38,-1.64,-0.38,0.37,-0.28,0.56,-1.26,-1.26,-1.25
492.62,-1.65,-0.39,-1.65,-0.39,0.38,-0.28,0.55,-1.27,-1.27,-1.26
