frequency,raw,error,smoothed,error_smoothed,equalization,parametric_eq,fixed_band_eq,equalized_raw,equalized_smoothed,target
20.00,3.15,3.95,3.15,3.95,-3.96,-2.86,-1.16,-0.81,-0.81,-0.80
20.20,3.07,3.88,3.07,3.87,-3.87,-2.86,-1.19,-0.80,-0.80,-0.81
20.40,2.99,3.80,2.99,3.80,-3.79,-2.86,-1.23,-0.80,-0.80,-0.81
20.61,2.91,3.73,2.91,3.72,-3.72,-2.85,-1.26,-0.80,-0.80,-0.82
20.81,2.84,3.66,2.83,3.65,-3.65,-2.85,-1.30,-0.81,-0.81,-0.82
21.02,2.75,3.57,2.75,3.58,-3.58,-2.85,-1.34,-0.83,-0.82,-0.82
21.23,2.68,3.52,2.68,3.51,-3.52,-2.85,-1.37,-0.84,-0.84,-0.84
21.44,2.60,3.46,2.60,3.46,-3.46,-2.84,-1.42,-0.86,-0.86,-0.86
21.66,2.53,3.41,2.53,3.41,-3.41,-2.84,-1.46,-0.88,-0.88,-0.88
21.87,2.45,3.36,2.45,3.36,-3.36,-2.84,-1.50,-0.91,-0.91,-0.91
22.09,2.39,3.32,2.39,3.32,-3.32,-2.84,-1.54,-0.93,-0.93,-0.93
22.31,2.33,3.28,2.33,3.28,-3.29,-2.83,-1.59,-0.96,-0.96,-0.95
22.54,2.27,3.25,2.27,3.25,-3.26,-2.83,-1.63,-0.98,-0.98,-0.98
22.76,2.22,3.23,2.22,3.23,-3.22,-2.83,-1.68,-1.01,-1.01,-1.01
22.99,2.16,3.20,2.16,3.20,-3.19,-2.82,-1.73,-1.04,-1.04,-1.04
23.22,2.10,3.17,2.10,3.17,-3.16,-2.82,-1.78,-1.06,-1.06,-1.07
23.45,2.05,3.14,2.05,3.14,-3.13,-2.82,-1.83,-1.08,-1.09,-1.09
23.69,1.99,3.10,1.99,3.11,-3.10,-2.81,-1.88,-1.11,-1.11,-1.11
23.92,1.94,3.07,1.94,3.07,-3.07,-2.81,-1.93,-1.13,-1.13,-1.13
24.16,1.89,3.03,1.89,3.03,-3.03,-2.80,-1.98,-1.15,-1.15,-1.14
24.40,1.83,2.99,1.83,3.00,-3.00,-2.80,-2.04,-1.17,-1.17,-1.16
24.65,1.78,2.97,1.78,2.96,-2.97,-2.80,-2.09,-1.19,-1.19,-1.18
24.89,1.73,2.93,1.73,2.94,-2.94,-2.79,-2.15,-1.21,-1.21,-1.21
25.14,1.68,2.91,1.68,2.91,-2.91,-2.79,-2.20,-1.23,-1.23,-1.23
25.39,1.64,2.89,1.64,2.88,-2.88,-2.78,-2.26,-1.24,-1.25,-1.25
25.65,1.59,2.85,1.59,2.86,-2.86,-2.78,-2.31,-1.27,-1.26,-1.26
25.91,1.55,2.84,1.55,2.83,-2.83,-2.78,-2.37,-1.28,-1.28,-1.29
26.16,1.51,2.81,1.51,2.81,-2.81,-2.77,-2.43,-1.30,-1.30,-1.30
26.43,1.47,2.79,1.47,2.79,-2.78,-2.77,-2.48,-1.31,-1.31,-1.32
26.69,1.43,2.76,1.43,2.76,-2.76,-2.76,-2.54,-1.33,-1.33,-1.33
26.96,1.39,2.74,1.39,2.74,-2.74,-2.76,-2.59,-1.35,-1.35,-1.35
27.23,1.35,2.71,1.35,2.71,-2.71,-2.75,-2.64,-1.36,-1.37,-1.36
27.50,1.30,2.68,1.30,2.69,-2.69,-2.75,-2.70,-1.39,-1.39,-1.38
27.77,1.26,2.66,1.26,2.66,-2.67,-2.74,-2.75,-1.41,-1.41,-1.40
28.05,1.23,2.64,1.22,2.65,-2.64,-2.74,-2.80,-1.41,-1.42,-1.41
28.33,1.18,2.63,1.19,2.62,-2.62,-2.73,-2.84,-1.44,-1.43,-1.45
28.62,1.15,2.61,1.15,2.60,-2.59,-2.72,-2.88,-1.44,-1.45,-1.46
28.90,1.11,2.57,1.11,2.57,-2.57,-2.72,-2.92,-1.46,-1.46,-1.46
29.19,1.07,2.55,1.07,2.55,-2.55,-2.71,-2.96,-1.48,-1.48,-1.48
29.48,1.04,2.52,1.04,2.52,-2.53,-2.71,-3.00,-1.49,-1.49,-1.48
29.78,1.00,2.50,1.00,2.50,-2.51,-2.70,-3.03,-1.51,-1.50,-1.50
30.08,0.97,2.48,0.97,2.48,-2.48,-2.69,-3.06,-1.51,-1.52,-1.51
30.38,0.93,2.46,0.93,2.47,-2.46,-2.69,-3.08,-1.53,-1.53,-1.53
30.68,0.89,2.44,0.89,2.45,-2.44,-2.68,-3.10,-1.55,-1.55,-1.55
30.99,0.86,2.44,0.85,2.43,-2.42,-2.67,-3.12,-1.56,-1.57,-1.58
31.30,0.81,2.40,0.82,2.40,-2.40,-2.67,-3.13,-1.59,-1.59,-1.59
31.61,0.78,2.38,0.77,2.38,-2.38,-2.66,-3.14,-1.60,-1.61,-1.60
31.93,0.73,2.36,0.73,2.36,-2.36,-2.65,-3.14,-1.63,-1.63,-1.63
32.24,0.69,2.34,0.69,2.34,-2.35,-2.64,-3.14,-1.66,-1.65,-1.65
32.57,0.66,2.33,0.66,2.33,-2.33,-2.64,-3.14,-1.67,-1.67,-1.67
32.89,0.62,2.31,0.62,2.31,-2.31,-2.63,-3.13,-1.69,-1.69,-1.69
33.22,0.59,2.31,0.59,2.30,-2.30,-2.62,-3.12,-1.71,-1.71,-1.72
33.55,0.55,2.28,0.55,2.28,-2.28,-2.62,-3.11,-1.73,-1.73,-1.73
33.89,0.51,2.27,0.51,2.27,-2.27,-2.61,-3.09,-1.76,-1.76,-1.76
34.23,0.48,2.25,0.48,2.26,-2.26,-2.60,-3.07,-1.78,-1.78,-1.77
34.57,0.45,2.25,0.45,2.25,-2.25,-2.59,-3.05,-1.80,-1.80,-1.80
34.92,0.42,2.25,0.42,2.24,-2.24,-2.58,-3.03,-1.82,-1.82,-1.83
35.27,0.39,2.23,0.39,2.23,-2.23,-2.58,-3.00,-1.84,-1.84,-1.84
35.62,0.36,2.22,0.36,2.22,-2.22,-2.57,-2.98,-1.86,-1.86,-1.86
35.97,0.33,2.22,0.33,2.21,-2.22,-2.56,-2.95,-1.89,-1.89,-1.89
36.33,0.30,2.21,0.30,2.21,-2.21,-2.55,-2.92,-1.91,-1.91,-1.91
36.70,0.27,2.20,0.27,2.21,-2.20,-2.54,-2.89,-1.93,-1.93,-1.93
37.06,0.25,2.21,0.25,2.20,-2.20,-2.54,-2.86,-1.95,-1.95,-1.96
37.43,0.22,2.19,0.22,2.20,-2.19,-2.53,-2.83,-1.97,-1.97,-1.97
37.81,0.19,2.19,0.19,2.19,-2.19,-2.52,-2.79,-2.00,-1.99,-2.00
38.19,0.17,2.19,0.17,2.18,-2.19,-2.51,-2.76,-2.02,-2.02,-2.02
38.57,0.14,2.17,0.14,2.18,-2.18,-2.50,-2.73,-2.04,-2.04,-2.03
38.95,0.12,2.18,0.12,2.18,-2.18,-2.49,-2.70,-2.06,-2.06,-2.06
39.34,0.10,2.18,0.10,2.18,-2.18,-2.49,-2.68,-2.08,-2.08,-2.08
39.74,0.08,2.19,0.08,2.18,-2.18,-2.48,-2.65,-2.10,-2.10,-2.11
40.14,0.06,2.19,0.06,2.18,-2.18,-2.47,-2.62,-2.12,-2.12,-2.13
40.54,0.03,2.18,0.04,2.18,-2.18,-2.46,-2.60,-2.15,-2.15,-2.15
40.94,0.02,2.18,0.02,2.18,-2.18,-2.46,-2.57,-2.16,-2.17,-2.16
41.35,-0.00,2.19,0.00,2.19,-2.18,-2.45,-2.55,-2.18,-2.18,-2.19
41.76,-0.01,2.19,-0.01,2.19,-2.18,-2.44,-2.53,-2.19,-2.20,-2.20
42.18,-0.03,2.18,-0.03,2.19,-2.19,-2.44,-2.51,-2.22,-2.22,-2.22
42.60,-0.05,2.19,-0.05,2.18,-2.19,-2.43,-2.49,-2.24,-2.24,-2.24
43.03,-0.06,2.18,-0.06,2.19,-2.20,-2.42,-2.47,-2.26,-2.26,-2.24
43.46,-0.08,2.19,-0.07,2.20,-2.20,-2.42,-2.46,-2.28,-2.28,-2.27
43.90,-0.08,2.22,-0.09,2.21,-2.21,-2.41,-2.45,-2.29,-2.30,-2.30
44.33,-0.10,2.23,-0.10,2.23,-2.22,-2.41,-2.44,-2.32,-2.32,-2.33
44.78,-0.11,2.23,-0.11,2.24,-2.23,-2.40,-2.43,-2.34,-2.34,-2.34
45.23,-0.12,2.25,-0.12,2.25,-2.25,-2.40,-2.42,-2.37,-2.37,-2.37
45.68,-0.13,2.25,-0.13,2.26,-2.26,-2.40,-2.42,-2.39,-2.38,-2.38
46.13,-0.13,2.28,-0.13,2.27,-2.27,-2.39,-2.41,-2.40,-2.40,-2.41
46.60,-0.14,2.28,-0.14,2.28,-2.27,-2.39,-2.41,-2.41,-2.42,-2.42
47.06,-0.15,2.28,-0.15,2.28,-2.28,-2.39,-2.41,-2.44,-2.43,-2.43
47.53,-0.16,2.29,-0.16,2.29,-2.30,-2.39,-2.41,-2.46,-2.45,-2.45
48.01,-0.16,2.31,-0.16,2.30,-2.31,-2.39,-2.42,-2.47,-2.48,-2.47
48.49,-0.17,2.32,-0.17,2.32,-2.33,-2.39,-2.42,-2.50,-2.50,-2.49
48.97,-0.18,2.34,-0.18,2.34,-2.35,-2.39,-2.43,-2.53,-2.52,-2.52
49.46,-0.18,2.37,-0.18,2.37,-2.37,-2.39,-2.44,-2.55,-2.55,-2.55
49.96,-0.18,2.39,-0.18,2.39,-2.39,-2.40,-2.44,-2.57,-2.57,-2.57
50.46,-0.18,2.41,-0.18,2.41,-2.41,-2.40,-2.46,-2.59,-2.59,-2.59
50.96,-0.18,2.43,-0.18,2.44,-2.43,-2.40,-2.47,-2.61,-2.61,-2.61
51.47,-0.18,2.46,-0.18,2.45,-2.45,-2.41,-2.48,-2.63,-2.63,-2.64
51.99,-0.19,2.47,-0.19,2.47,-2.47,-2.42,-2.50,-2.66,-2.66,-2.66
52.51,-0.19,2.48,-0.19,2.48,-2.49,-2.42,-2.51,-2.68,-2.68,-2.67
53.03,-0.19,2.50,-0.19,2.50,-2.51,-2.43,-2.53,-2.70,-2.70,-2.69
53.56,-0.19,2.53,-0.19,2.52,-2.53,-2.44,-2.55,-2.72,-2.71,-2.72
54.10,-0.18,2.56,-0.19,2.55,-2.55,-2.45,-2.57,-2.73,-2.73,-2.74
54.64,-0.19,2.57,-0.19,2.57,-2.57,-2.46,-2.58,-2.76,-2.75,-2.76
55.18,-0.19,2.59,-0.19,2.59,-2.59,-2.48,-2.60,-2.78,-2.78,-2.78
55.74,-0.19,2.61,-0.19,2.61,-2.61,-2.49,-2.62,-2.80,-2.80,-2.80
56.29,-0.19,2.63,-0.19,2.63,-2.63,-2.51,-2.64,-2.82,-2.82,-2.82
56.86,-0.18,2.66,-0.18,2.66,-2.65,-2.52,-2.66,-2.83,-2.84,-2.84
57.42,-0.18,2.68,-0.18,2.68,-2.67,-2.54,-2.68,-2.85,-2.85,-2.86
58.00,-0.18,2.70,-0.18,2.70,-2.69,-2.56,-2.70,-2.87,-2.87,-2.88
58.58,-0.18,2.71,-0.18,2.71,-2.72,-2.58,-2.72,-2.90,-2.89,-2.89
59.16,-0.17,2.73,-0.17,2.73,-2.74,-2.60,-2.74,-2.91,-2.91,-2.90
59.76,-0.17,2.76,-0.17,2.76,-2.76,-2.63,-2.76,-2.93,-2.93,-2.93
60.35,-0.16,2.79,-0.16,2.78,-2.79,-2.65,-2.78,-2.95,-2.95,-2.95
60.96,-0.16,2.81,-0.16,2.81,-2.82,-2.68,-2.80,-2.98,-2.97,-2.97
61.57,-0.15,2.85,-0.15,2.85,-2.84,-2.70,-2.82,-2.99,-2.99,-3.00
62.18,-0.15,2.88,-0.15,2.88,-2.87,-2.73,-2.83,-3.02,-3.02,-3.03
62.80,-0.14,2.90,-0.14,2.90,-2.90,-2.76,-2.85,-3.04,-3.04,-3.04
63.43,-0.14,2.93,-0.14,2.93,-2.92,-2.79,-2.86,-3.06,-3.06,-3.07
64.07,-0.14,2.95,-0.14,2.95,-2.95,-2.82,-2.88,-3.09,-3.09,-3.09
64.71,-0.13,2.97,-0.13,2.97,-2.97,-2.86,-2.89,-3.10,-3.11,-3.10
65.35,-0.13,2.99,-0.13,2.99,-3.00,-2.89,-2.91,-3.13,-3.13,-3.12
66.01,-0.12,3.02,-0.12,3.02,-3.02,-2.92,-2.92,-3.14,-3.14,-3.14
66.67,-0.11,3.05,-0.11,3.05,-3.05,-2.96,-2.94,-3.16,-3.16,-3.16
67.33,-0.10,3.08,-0.10,3.08,-3.07,-3.00,-2.95,-3.17,-3.18,-3.18
68.01,-0.10,3.10,-0.10,3.10,-3.10,-3.04,-2.96,-3.20,-3.20,-3.20
68.69,-0.09,3.13,-0.09,3.13,-3.13,-3.08,-2.98,-3.22,-3.22,-3.22
69.37,-0.09,3.15,-0.09,3.15,-3.15,-3.12,-2.99,-3.24,-3.24,-3.24
70.07,-0.08,3.18,-0.08,3.18,-3.18,-3.16,-3.00,-3.26,-3.26,-3.26
70.77,-0.07,3.20,-0.07,3.21,-3.21,-3.20,-3.02,-3.28,-3.28,-3.27
71.48,-0.06,3.24,-0.06,3.24,-3.24,-3.24,-3.03,-3.30,-3.30,-3.30
72.19,-0.06,3.26,-0.06,3.27,-3.27,-3.28,-3.05,-3.33,-3.32,-3.32
72.91,-0.05,3.30,-0.05,3.30,-3.30,-3.33,-3.07,-3.35,-3.35,-3.35
73.64,-0.04,3.34,-0.04,3.33,-3.33,-3.37,-3.08,-3.37,-3.37,-3.38
74.38,-0.04,3.35,-0.03,3.37,-3.36,-3.42,-3.10,-3.40,-3.40,-3.39
75.12,-0.02,3.40,-0.03,3.39,-3.39,-3.46,-3.12,-3.41,-3.42,-3.42
75.87,-0.02,3.43,-0.02,3.42,-3.43,-3.51,-3.15,-3.45,-3.44,-3.45
76.63,-0.01,3.45,-0.01,3.46,-3.46,-3.56,-3.17,-3.47,-3.47,-3.46
77.40,-0.00,3.49,-0.00,3.49,-3.49,-3.60,-3.20,-3.49,-3.49,-3.49
78.17,-0.00,3.53,0.01,3.53,-3.53,-3.65,-3.22,-3.53,-3.52,-3.53
78.95,0.02,3.57,0.01,3.56,-3.56,-3.70,-3.26,-3.54,-3.55,-3.55
79.74,0.02,3.59,0.02,3.59,-3.60,-3.74,-3.29,-3.58,-3.57,-3.57
80.54,0.03,3.63,0.03,3.63,-3.63,-3.79,-3.32,-3.60,-3.60,-3.60
81.35,0.05,3.68,0.04,3.67,-3.67,-3.84,-3.36,-3.62,-3.63,-3.63
82.16,0.05,3.71,0.05,3.71,-3.71,-3.89,-3.40,-3.66,-3.65,-3.66
82.98,0.06,3.74,0.06,3.75,-3.74,-3.94,-3.44,-3.68,-3.68,-3.68
83.81,0.07,3.79,0.07,3.78,-3.78,-3.98,-3.48,-3.71,-3.72,-3.72
84.65,0.07,3.82,0.07,3.82,-3.82,-4.03,-3.53,-3.75,-3.75,-3.75
85.50,0.08,3.85,0.08,3.86,-3.86,-4.08,-3.58,-3.78,-3.78,-3.77
86.35,0.09,3.90,0.09,3.90,-3.90,-4.13,-3.63,-3.81,-3.81,-3.81
87.22,0.09,3.93,0.10,3.94,-3.94,-4.18,-3.69,-3.85,-3.84,-3.84
88.09,0.11,3.99,0.10,3.98,-3.97,-4.22,-3.74,-3.86,-3.87,-3.88
88.97,0.11,4.01,0.11,4.01,-4.01,-4.27,-3.80,-3.90,-3.90,-3.90
89.86,0.12,4.04,0.12,4.05,-4.05,-4.32,-3.87,-3.93,-3.93,-3.92
90.76,0.12,4.09,0.12,4.09,-4.09,-4.37,-3.93,-3.97,-3.97,-3.97
91.66,0.13,4.13,0.13,4.13,-4.13,-4.41,-4.00,-4.00,-4.00,-4.00
92.58,0.13,4.17,0.13,4.17,-4.17,-4.46,-4.07,-4.04,-4.03,-4.04
93.51,0.14,4.20,0.14,4.20,-4.21,-4.50,-4.15,-4.07,-4.07,-4.06
94.44,0.15,4.24,0.15,4.25,-4.25,-4.55,-4.22,-4.10,-4.10,-4.09
95.39,0.16,4.29,0.16,4.29,-4.29,-4.60,-4.30,-4.13,-4.13,-4.13
96.34,0.16,4.34,0.16,4.34,-4.33,-4.64,-4.38,-4.17,-4.17,-4.18
97.30,0.16,4.38,0.16,4.38,-4.38,-4.68,-4.47,-4.22,-4.21,-4.22
98.28,0.17,4.42,0.17,4.42,-4.42,-4.73,-4.55,-4.25,-4.25,-4.25
99.26,0.18,4.47,0.18,4.47,-4.47,-4.77,-4.64,-4.29,-4.29,-4.29
100.25,0.18,4.51,0.18,4.51,-4.51,-4.82,-4.73,-4.33,-4.33,-4.33
101.25,0.19,4.56,0.19,4.56,-4.56,-4.86,-4.82,-4.37,-4.37,-4.37
102.27,0.19,4.60,0.19,4.60,-4.60,-4.90,-4.91,-4.41,-4.41,-4.41
103.29,0.20,4.66,0.20,4.65,-4.65,-4.94,-5.01,-4.45,-4.45,-4.46
104.32,0.20,4.69,0.20,4.70,-4.70,-4.99,-5.10,-4.50,-4.49,-4.49
105.37,0.21,4.75,0.20,4.74,-4.74,-5.03,-5.20,-4.53,-4.54,-4.54
106.42,0.20,4.78,0.21,4.79,-4.79,-5.07,-5.29,-4.59,-4.58,-4.58
107.48,0.21,4.83,0.21,4.83,-4.84,-5.11,-5.38,-4.63,-4.63,-4.62
108.56,0.22,4.90,0.21,4.88,-4.89,-5.15,-5.48,-4.67,-4.67,-4.68
109.64,0.22,4.93,0.22,4.94,-4.94,-5.19,-5.57,-4.72,-4.71,-4.71
110.74,0.23,4.99,0.23,4.99,-4.99,-5.23,-5.66,-4.76,-4.76,-4.76
111.85,0.24,5.04,0.23,5.04,-5.04,-5.27,-5.75,-4.80,-4.81,-4.80
112.97,0.24,5.11,0.24,5.10,-5.10,-5.31,-5.83,-4.86,-4.86,-4.87
114.10,0.24,5.15,0.25,5.15,-5.15,-5.34,-5.91,-4.91,-4.91,-4.91
115.24,0.26,5.21,0.26,5.21,-5.21,-5.38,-5.99,-4.95,-4.95,-4.95
116.39,0.27,5.27,0.27,5.26,-5.26,-5.42,-6.07,-4.99,-5.00,-5.00
117.55,0.27,5.32,0.27,5.32,-5.32,-5.46,-6.13,-5.05,-5.04,-5.05
118.73,0.28,5.37,0.28,5.37,-5.37,-5.49,-6.20,-5.09,-5.09,-5.09
119.92,0.29,5.42,0.29,5.42,-5.42,-5.53,-6.26,-5.13,-5.13,-5.13
121.12,0.30,5.47,0.30,5.48,-5.47,-5.57,-6.31,-5.17,-5.17,-5.17
122.33,0.31,5.53,0.31,5.52,-5.52,-5.60,-6.35,-5.21,-5.21,-5.22
123.55,0.31,5.57,0.31,5.57,-5.57,-5.64,-6.40,-5.26,-5.26,-5.26
124.79,0.32,5.61,0.32,5.61,-5.62,-5.67,-6.43,-5.30,-5.30,-5.29
126.03,0.33,5.66,0.33,5.66,-5.67,-5.71,-6.46,-5.34,-5.34,-5.33
127.29,0.34,5.72,0.34,5.72,-5.72,-5.74,-6.48,-5.38,-5.38,-5.38
128.57,0.35,5.77,0.35,5.77,-5.77,-5.78,-6.49,-5.42,-5.42,-5.42
129.85,0.37,5.83,0.36,5.82,-5.82,-5.81,-6.50,-5.45,-5.45,-5.46
131.15,0.37,5.87,0.37,5.87,-5.86,-5.85,-6.51,-5.49,-5.49,-5.50
132.46,0.38,5.91,0.38,5.91,-5.91,-5.88,-6.50,-5.53,-5.53,-5.53
133.79,0.39,5.95,0.39,5.95,-5.95,-5.91,-6.50,-5.56,-5.57,-5.56
135.12,0.40,6.00,0.40,5.99,-6.00,-5.95,-6.48,-5.60,-5.60,-5.60
136.48,0.41,6.03,0.41,6.03,-6.03,-5.98,-6.47,-5.63,-5.63,-5.62
137.84,0.42,6.07,0.42,6.07,-6.07,-6.01,-6.45,-5.65,-5.65,-5.65
139.22,0.43,6.11,0.43,6.11,-6.11,-6.04,-6.43,-5.68,-5.68,-5.68
140.61,0.44,6.15,0.44,6.14,-6.14,-6.07,-6.40,-5.70,-5.70,-5.71
142.02,0.46,6.18,0.45,6.18,-6.18,-6.11,-6.38,-5.72,-5.72,-5.72
143.44,0.46,6.20,0.47,6.21,-6.21,-6.14,-6.35,-5.75,-5.74,-5.74
144.87,0.48,6.24,0.48,6.24,-6.24,-6.17,-6.32,-5.76,-5.76,-5.76
146.32,0.49,6.27,0.49,6.27,-6.27,-6.20,-6.29,-5.78,-5.78,-5.78
147.78,0.50,6.29,0.50,6.30,-6.30,-6.23,-6.26,-5.80,-5.79,-5.79
149.26,0.52,6.33,0.51,6.33,-6.33,-6.26,-6.24,-5.81,-5.81,-5.81
150.75,0.52,6.36,0.52,6.36,-6.36,-6.29,-6.21,-5.84,-5.84,-5.84
152.26,0.53,6.39,0.53,6.39,-6.39,-6.32,-6.19,-5.86,-5.86,-5.86
153.78,0.54,6.41,0.54,6.42,-6.42,-6.35,-6.17,-5.88,-5.88,-5.87
155.32,0.56,6.45,0.56,6.45,-6.45,-6.38,-6.15,-5.89,-5.89,-5.89
156.88,0.57,6.48,0.57,6.48,-6.48,-6.41,-6.13,-5.91,-5.91,-5.91
158.44,0.58,6.51,0.58,6.51,-6.51,-6.43,-6.12,-5.93,-5.93,-5.93
160.03,0.60,6.55,0.59,6.55,-6.55,-6.46,-6.10,-5.95,-5.95,-5.95
161.63,0.60,6.58,0.61,6.58,-6.58,-6.49,-6.10,-5.98,-5.97,-5.98
163.24,0.62,6.62,0.62,6.62,-6.61,-6.52,-6.09,-5.99,-5.99,-6.00
164.88,0.64,6.65,0.64,6.65,-6.65,-6.54,-6.10,-6.01,-6.01,-6.01
166.53,0.65,6.68,0.65,6.68,-6.68,-6.57,-6.10,-6.03,-6.03,-6.03
168.19,0.66,6.72,0.66,6.72,-6.72,-6.60,-6.11,-6.06,-6.06,-6.06
169.87,0.67,6.75,0.67,6.75,-6.75,-6.62,-6.12,-6.08,-6.08,-6.08
171.57,0.69,6.79,0.69,6.79,-6.79,-6.65,-6.14,-6.10,-6.10,-6.10
173.29,0.70,6.82,0.70,6.83,-6.83,-6.67,-6.16,-6.13,-6.13,-6.12
175.02,0.72,6.87,0.72,6.87,-6.87,-6.70,-6.19,-6.15,-6.15,-6.15
176.77,0.73,6.91,0.73,6.91,-6.91,-6.72,-6.22,-6.18,-6.18,-6.18
178.54,0.74,6.96,0.74,6.96,-6.95,-6.75,-6.26,-6.21,-6.21,-6.22
180.32,0.75,7.00,0.75,7.00,-7.00,-6.77,-6.30,-6.25,-6.25,-6.25
182.13,0.76,7.03,0.76,7.04,-7.04,-6.79,-6.34,-6.28,-6.28,-6.27
183.95,0.77,7.08,0.77,7.08,-7.08,-6.82,-6.39,-6.31,-6.31,-6.32
185.79,0.79,7.13,0.79,7.13,-7.12,-6.84,-6.45,-6.33,-6.34,-6.34
187.65,0.80,7.17,0.80,7.17,-7.16,-6.86,-6.50,-6.36,-6.37,-6.37
189.52,0.80,7.20,0.81,7.21,-7.20,-6.88,-6.57,-6.41,-6.40,-6.40
191.42,0.82,7.25,0.82,7.24,-7.24,-6.90,-6.64,-6.42,-6.43,-6.43
193.33,0.83,7.28,0.83,7.28,-7.28,-6.92,-6.71,-6.45,-6.45,-6.45
195.27,0.84,7.32,0.84,7.32,-7.32,-6.94,-6.78,-6.48,-6.48,-6.48
197.22,0.84,7.34,0.84,7.35,-7.35,-6.96,-6.86,-6.51,-6.51,-6.50
199.19,0.85,7.40,0.85,7.39,-7.39,-6.98,-6.95,-6.54,-6.53,-6.55
201.18,0.87,7.43,0.86,7.42,-7.42,-7.00,-7.03,-6.55,-6.56,-6.56
203.19,0.87,7.45,0.87,7.45,-7.45,-7.02,-7.12,-6.58,-6.58,-6.58
205.23,0.88,7.49,0.88,7.48,-7.48,-7.04,-7.21,-6.60,-6.60,-6.61
207.28,0.89,7.50,0.89,7.51,-7.51,-7.06,-7.30,-6.62,-6.62,-6.61
209.35,0.90,7.54,0.90,7.54,-7.54,-7.07,-7.40,-6.64,-6.64,-6.64
211.44,0.92,7.59,0.91,7.57,-7.57,-7.09,-7.49,-6.65,-6.65,-6.67
213.56,0.92,7.59,0.92,7.59,-7.59,-7.10,-7.59,-6.67,-6.67,-6.67
215.69,0.93,7.60,0.93,7.61,-7.62,-7.12,-7.68,-6.69,-6.68,-6.67
217.85,0.94,7.63,0.94,7.63,-7.64,-7.13,-7.78,-6.70,-6.69,-6.69
220.03,0.96,7.66,0.96,7.66,-7.66,-7.15,-7.87,-6.70,-6.70,-6.70
222.23,0.98,7.69,0.98,7.68,-7.67,-7.16,-7.96,-6.69,-6.70,-6.71
224.45,0.99,7.68,0.99,7.69,-7.69,-7.17,-8.05,-6.70,-6.69,-6.69
226.70,1.00,7.69,1.00,7.70,-7.70,-7.19,-8.13,-6.70,-6.70,-6.69
228.96,1.02,7.71,1.02,7.70,-7.71,-7.20,-8.21,-6.69,-6.69,-6.69
231.25,1.03,7.70,1.03,7.71,-7.72,-7.21,-8.28,-6.69,-6.69,-6.68
233.57,1.05,7.72,1.05,7.72,-7.72,-7.22,-8.35,-6.67,-6.67,-6.67
235.90,1.06,7.72,1.06,7.72,-7.72,-7.23,-8.40,-6.66,-6.66,-6.66
238.26,1.08,7.73,1.08,7.73,-7.72,-7.24,-8.46,-6.64,-6.64,-6.65
240.64,1.08,7.71,1.08,7.72,-7.71,-7.25,-8.49,-6.63,-6.62,-6.63
243.05,1.09,7.71,1.08,7.69,-7.69,-7.25,-8.53,-6.60,-6.61,-6.62
245.48,1.07,7.66,1.07,7.67,-7.66,-7.26,-8.55,-6.59,-6.59,-6.59
247.93,1.06,7.63,1.06,7.64,-7.63,-7.27,-8.56,-6.57,-6.57,-6.57
250.41,1.05,7.61,1.05,7.60,-7.60,-7.27,-8.56,-6.55,-6.55,-6.56
252.92,1.03,7.56,1.03,7.56,-7.55,-7.28,-8.55,-6.52,-6.53,-6.53
255.45,1.00,7.50,1.00,7.51,-7.51,-7.28,-8.53,-6.51,-6.50,-6.50
258.00,0.98,7.47,0.98,7.46,-7.46,-7.29,-8.50,-6.48,-6.48,-6.49
260.58,0.96,7.42,0.96,7.42,-7.42,-7.29,-8.46,-6.46,-6.46,-6.46
263.19,0.94,7.37,0.94,7.38,-7.38,-7.29,-8.42,-6.44,-6.44,-6.43
265.82,0.93,7.35,0.93,7.34,-7.34,-7.30,-8.36,-6.41,-6.42,-6.42
268.48,0.92,7.30,0.92,7.31,-7.32,-7.30,-8.29,-6.40,-6.39,-6.38
271.16,0.93,7.29,0.93,7.29,-7.30,-7.30,-8.22,-6.37,-6.37,-6.36
273.87,0.94,7.28,0.94,7.28,-7.28,-7.30,-8.14,-6.34,-6.34,-6.34
276.61,0.96,7.27,0.96,7.28,-7.28,-7.30,-8.06,-6.32,-6.32,-6.31
279.38,0.99,7.29,0.99,7.28,-7.28,-7.30,-7.97,-6.29,-6.29,-6.30
282.17,1.02,7.29,1.02,7.29,-7.28,-7.29,-7.87,-6.26,-6.27,-6.27
284.99,1.05,7.29,1.05,7.30,-7.29,-7.29,-7.78,-6.24,-6.24,-6.24
287.84,1.09,7.31,1.09,7.31,-7.31,-7.29,-7.68,-6.22,-6.22,-6.22
290.72,1.13,7.32,1.13,7.32,-7.32,-7.28,-7.58,-6.19,-6.19,-6.19
293.63,1.17,7.33,1.17,7.33,-7.33,-7.28,-7.48,-6.16,-6.16,-6.16
296.57,1.21,7.34,1.21,7.35,-7.34,-7.27,-7.38,-6.14,-6.13,-6.13
299.53,1.25,7.36,1.25,7.36,-7.35,-7.27,-7.28,-6.10,-6.10,-6.11
302.53,1.28,7.37,1.28,7.36,-7.35,-7.26,-7.18,-6.07,-6.07,-6.09
305.55,1.31,7.35,1.31,7.36,-7.35,-7.25,-7.08,-6.04,-6.04,-6.04
308.61,1.34,7.35,1.34,7.35,-7.34,-7.24,-6.99,-6.00,-6.01,-6.01
311.69,1.35,7.33,1.35,7.33,-7.33,-7.23,-6.89,-5.98,-5.97,-5.98
314.81,1.37,7.30,1.37,7.31,-7.31,-7.22,-6.80,-5.94,-5.94,-5.93
317.96,1.37,7.28,1.37,7.28,-7.28,-7.21,-6.72,-5.91,-5.91,-5.91
321.14,1.37,7.25,1.37,7.25,-7.24,-7.20,-6.63,-5.87,-5.88,-5.88
324.35,1.35,7.20,1.35,7.21,-7.20,-7.19,-6.55,-5.85,-5.85,-5.85
327.59,1.34,7.17,1.33,7.16,-7.16,-7.18,-6.47,-5.82,-5.83,-5.83
330.87,1.31,7.11,1.31,7.11,-7.11,-7.16,-6.40,-5.80,-5.80,-5.80
334.18,1.28,7.06,1.28,7.06,-7.06,-7.15,-6.33,-5.78,-5.78,-5.78
337.52,1.26,7.02,1.25,7.01,-7.01,-7.13,-6.27,-5.75,-5.76,-5.76
340.90,1.22,6.95,1.22,6.96,-6.96,-7.12,-6.21,-5.74,-5.74,-5.73
344.30,1.19,6.90,1.19,6.91,-6.91,-7.10,-6.15,-5.72,-5.72,-5.71
347.75,1.16,6.86,1.16,6.86,-6.86,-7.08,-6.10,-5.70,-5.70,-5.70
351.23,1.14,6.82,1.14,6.81,-6.81,-7.07,-6.06,-5.67,-5.67,-5.68
354.74,1.11,6.77,1.11,6.77,-6.77,-7.05,-6.02,-5.66,-5.66,-5.66
358.28,1.08,6.72,1.08,6.72,-6.72,-7.03,-5.98,-5.64,-5.64,-5.64
361.87,1.05,6.67,1.05,6.68,-6.68,-7.01,-5.95,-5.63,-5.63,-5.62
365.49,1.03,6.63,1.03,6.63,-6.64,-6.98,-5.92,-5.61,-5.61,-5.60
369.14,1.01,6.60,1.01,6.60,-6.60,-6.96,-5.89,-5.59,-5.59,-5.59
372.83,0.99,6.57,0.99,6.57,-6.57,-6.94,-5.87,-5.58,-5.57,-5.58
376.56,0.98,6.55,0.98,6.54,-6.53,-6.92,-5.86,-5.55,-5.55,-5.57
380.33,0.96,6.50,0.96,6.50,-6.50,-6.89,-5.85,-5.54,-5.54,-5.54
384.13,0.94,6.46,0.94,6.46,-6.46,-6.87,-5.84,-5.52,-5.52,-5.52
387.97,0.92,6.42,0.92,6.42,-6.43,-6.84,-5.84,-5.51,-5.51,-5.50
391.85,0.91,6.40,0.91,6.39,-6.39,-6.82,-5.84,-5.48,-5.49,-5.49
395.77,0.89,6.35,0.90,6.36,-6.36,-6.79,-5.84,-5.47,-5.46,-5.46
399.73,0.89,6.33,0.88,6.33,-6.32,-6.76,-5.85,-5.43,-5.44,-5.44
403.72,0.87,6.29,0.87,6.29,-6.29,-6.73,-5.86,-5.42,-5.42,-5.42
407.76,0.85,6.25,0.86,6.26,-6.26,-6.70,-5.87,-5.41,-5.40,-5.40
411.84,0.84,6.22,0.84,6.22,-6.23,-6.67,-5.89,-5.39,-5.38,-5.38
415.96,0.84,6.20,0.84,6.19,-6.20,-6.64,-5.90,-5.36,-5.36,-5.36
420.12,0.83,6.17,0.83,6.17,-6.17,-6.61,-5.92,-5.34,-5.34,-5.34
424.32,0.82,6.14,0.82,6.14,-6.14,-6.58,-5.94,-5.32,-5.31,-5.32
428.56,0.81,6.11,0.81,6.11,-6.11,-6.54,-5.96,-5.30,-5.30,-5.30
432.85,0.80,6.08,0.80,6.08,-6.08,-6.51,-5.98,-5.28,-5.28,-5.28
437.18,0.79,6.04,0.79,6.04,-6.04,-6.47,-6.01,-5.25,-5.25,-5.25
441.55,0.79,6.01,0.79,6.01,-6.01,-6.44,-6.03,-5.22,-5.22,-5.22
445.96,0.78,5.98,0.78,5.98,-5.98,-6.40,-6.05,-5.20,-5.20,-5.20
450.42,0.77,5.95,0.77,5.94,-5.94,-6.37,-6.07,-5.17,-5.17,-5.18
454.93,0.75,5.89,0.75,5.90,-5.90,-6.33,-6.09,-5.15,-5.15,-5.14
459.48,0.74,5.86,0.74,5.86,-5.86,-6.29,-6.10,-5.12,-5.12,-5.12
