frequency,raw,error,smoothed,error_smoothed,equalization,parametric_eq,fixed_band_eq,equalized_raw,equalized_smoothed,target
20.00,-17.78,-17.76,-17.78,-17.76,6.00,4.88,2.88,-11.78,-11.78,-0.01
20.20,-17.64,-17.62,-17.64,-17.63,6.00,4.94,2.96,-11.64,-11.64,-0.01
20.40,-17.50,-17.48,-17.50,-17.49,6.00,5.01,3.04,-11.50,-11.50,-0.01
20.61,-17.36,-17.36,-17.36,-17.35,6.00,5.07,3.13,-11.36,-11.36,-0.01
20.81,-17.22,-17.21,-17.22,-17.21,6.00,5.13,3.22,-11.22,-11.22,-0.01
21.02,-17.08,-17.07,-17.07,-17.07,6.00,5.20,3.31,-11.08,-11.07,-0.01
21.23,-16.93,-16.92,-16.93,-16.93,6.00,5.26,3.41,-10.93,-10.93,-0.01
21.44,-16.78,-16.78,-16.78,-16.78,6.00,5.32,3.51,-10.78,-10.78,0.00
21.66,-16.63,-16.63,-16.63,-16.63,6.00,5.38,3.61,-10.63,-10.63,0.00
21.87,-16.47,-16.48,-16.47,-16.48,6.00,5.45,3.71,-10.47,-10.47,0.00
22.09,-16.31,-16.31,-16.30,-16.30,6.00,5.51,3.82,-10.31,-10.30,0.00
22.31,-16.10,-16.12,-16.11,-16.12,6.00,5.57,3.93,-10.10,-10.11,0.01
22.54,-15.91,-15.91,-15.90,-15.91,6.00,5.63,4.04,-9.91,-9.90,0.00
22.76,-15.71,-15.72,-15.70,-15.71,6.00,5.68,4.15,-9.71,-9.70,0.01
22.99,-15.51,-15.52,-15.53,-15.54,6.00,5.74,4.27,-9.51,-9.53,0.01
23.22,-15.40,-15.41,-15.39,-15.40,6.00,5.80,4.39,-9.40,-9.39,0.01
23.45,-15.29,-15.30,-15.28,-15.29,6.00,5.85,4.52,-9.29,-9.28,0.01
23.69,-15.18,-15.19,-15.18,-15.19,6.00,5.91,4.64,-9.18,-9.18,0.01
23.92,-15.07,-15.09,-15.06,-15.07,6.00,5.96,4.77,-9.07,-9.06,0.02
24.16,-14.93,-14.94,-14.92,-14.94,6.00,6.01,4.90,-8.93,-8.92,0.01
24.40,-14.77,-14.77,-14.77,-14.78,6.00,6.06,5.03,-8.77,-8.77,0.01
24.65,-14.62,-14.63,-14.61,-14.62,6.00,6.11,5.17,-8.62,-8.61,0.01
24.89,-14.46,-14.45,-14.47,-14.47,6.00,6.16,5.31,-8.46,-8.47,-0.00
25.14,-14.34,-14.33,-14.34,-14.34,6.00,6.21,5.44,-8.34,-8.34,-0.00
25.39,-14.25,-14.23,-14.24,-14.23,6.00,6.25,5.58,-8.25,-8.24,-0.01
25.65,-14.16,-14.15,-14.15,-14.14,6.00,6.29,5.72,-8.16,-8.15,-0.01
25.91,-14.07,-14.05,-14.07,-14.05,6.00,6.33,5.87,-8.07,-8.07,-0.02
26.16,-13.99,-13.96,-13.99,-13.96,6.00,6.37,6.01,-7.99,-7.99,-0.02
26.43,-13.91,-13.87,-13.91,-13.88,6.00,6.41,6.15,-7.91,-7.91,-0.03
26.69,-13.82,-13.78,-13.83,-13.79,6.00,6.44,6.29,-7.82,-7.83,-0.04
26.96,-13.74,-13.70,-13.73,-13.69,6.00,6.47,6.42,-7.74,-7.73,-0.04
27.23,-13.62,-13.58,-13.61,-13.57,6.00,6.50,6.56,-7.62,-7.61,-0.04
27.50,-13.48,-13.43,-13.48,-13.43,6.00,6.53,6.69,-7.48,-7.48,-0.05
27.77,-13.34,-13.29,-13.34,-13.30,6.00,6.55,6.82,-7.34,-7.34,-0.05
28.05,-13.22,-13.18,-13.23,-13.19,6.00,6.57,6.94,-7.22,-7.23,-0.04
28.33,-13.15,-13.11,-13.15,-13.11,6.00,6.59,7.06,-7.15,-7.15,-0.04
28.62,-13.08,-13.04,-13.09,-13.05,6.00,6.61,7.17,-7.08,-7.09,-0.04
28.90,-13.01,-12.97,-12.98,-12.93,6.00,6.62,7.27,-7.01,-6.98,-0.04
29.19,-12.82,-12.77,-12.80,-12.76,6.00,6.63,7.37,-6.82,-6.80,-0.04
29.48,-12.56,-12.51,-12.56,-12.52,6.00,6.64,7.45,-6.56,-6.56,-0.04
29.78,-12.30,-12.26,-12.31,-12.26,6.00,6.65,7.52,-6.30,-6.31,-0.04
30.08,-12.07,-12.02,-12.10,-12.05,6.00,6.65,7.59,-6.07,-6.10,-0.06
30.38,-11.94,-11.88,-11.94,-11.88,6.00,6.65,7.64,-5.94,-5.94,-0.06
30.68,-11.82,-11.76,-11.81,-11.75,6.00,6.65,7.68,-5.82,-5.81,-0.06
30.99,-11.70,-11.63,-11.68,-11.62,6.00,6.64,7.71,-5.70,-5.68,-0.07
31.30,-11.53,-11.46,-11.53,-11.46,6.00,6.63,7.72,-5.53,-5.53,-0.07
31.61,-11.37,-11.29,-11.37,-11.29,6.00,6.62,7.72,-5.37,-5.37,-0.08
31.93,-11.21,-11.13,-11.21,-11.12,6.00,6.61,7.71,-5.21,-5.21,-0.08
32.24,-11.06,-10.96,-11.06,-10.97,6.00,6.59,7.69,-5.06,-5.06,-0.09
32.57,-10.92,-10.81,-10.92,-10.82,6.00,6.58,7.65,-4.92,-4.92,-0.11
32.89,-10.78,-10.67,-10.77,-10.66,6.00,6.55,7.60,-4.78,-4.77,-0.11
33.22,-10.62,-10.51,-10.62,-10.50,6.00,6.53,7.55,-4.62,-4.62,-0.11
33.55,-10.46,-10.34,-10.46,-10.34,6.00,6.51,7.48,-4.46,-4.46,-0.12
33.89,-10.30,-10.17,-10.30,-10.18,6.00,6.48,7.40,-4.30,-4.30,-0.13
34.23,-10.16,-10.03,-10.16,-10.03,6.00,6.45,7.32,-4.16,-4.16,-0.13
34.57,-10.03,-9.88,-10.03,-9.88,6.00,6.42,7.23,-4.03,-4.03,-0.14
34.92,-9.89,-9.74,-9.88,-9.74,6.00,6.38,7.13,-3.89,-3.88,-0.15
35.27,-9.72,-9.57,-9.71,-9.56,6.00,6.35,7.03,-3.72,-3.71,-0.15
35.62,-9.54,-9.39,-9.54,-9.38,6.00,6.31,6.92,-3.54,-3.54,-0.15
35.97,-9.36,-9.19,-9.38,-9.22,6.00,6.27,6.81,-3.36,-3.38,-0.16
36.33,-9.26,-9.09,-9.26,-9.10,6.00,6.24,6.69,-3.26,-3.26,-0.16
36.70,-9.17,-9.00,-9.16,-8.99,6.00,6.19,6.58,-3.17,-3.16,-0.17
37.06,-9.06,-8.89,-9.04,-8.87,6.00,6.15,6.46,-3.06,-3.04,-0.17
37.43,-8.88,-8.70,-8.88,-8.71,6.00,6.11,6.34,-2.88,-2.88,-0.17
37.81,-8.70,-8.53,-8.71,-8.54,6.00,6.07,6.23,-2.70,-2.71,-0.16
38.19,-8.53,-8.36,-8.52,-8.35,6.00,6.02,6.11,-2.53,-2.52,-0.17
38.57,-8.38,-8.21,-8.37,-8.20,6.00,5.98,5.99,-2.38,-2.37,-0.17
38.95,-8.22,-8.04,-8.26,-8.09,6.00,5.93,5.88,-2.22,-2.26,-0.17
39.34,-8.19,-8.01,-8.20,-8.02,6.00,5.89,5.77,-2.19,-2.20,-0.18
39.74,-8.18,-8.00,-8.15,-7.97,6.00,5.84,5.66,-2.18,-2.15,-0.18
40.14,-8.11,-7.93,-8.08,-7.90,6.00,5.80,5.55,-2.11,-2.08,-0.18
40.54,-7.94,-7.75,-7.95,-7.76,6.00,5.75,5.44,-1.94,-1.95,-0.19
40.94,-7.77,-7.58,-7.77,-7.58,6.00,5.71,5.34,-1.77,-1.77,-0.19
41.35,-7.60,-7.39,-7.59,-7.39,6.00,5.67,5.24,-1.60,-1.59,-0.20
41.76,-7.44,-7.22,-7.45,-7.23,6.00,5.63,5.15,-1.44,-1.45,-0.22
42.18,-7.33,-7.10,-7.37,-7.14,6.00,5.59,5.06,-1.33,-1.37,-0.23
42.60,-7.31,-7.06,-7.30,-7.06,6.00,5.55,4.97,-1.31,-1.30,-0.24
43.03,-7.28,-7.02,-7.22,-6.95,6.00,5.52,4.88,-1.28,-1.22,-0.26
43.46,-7.08,-6.79,-7.08,-6.80,6.00,5.49,4.80,-1.07,-1.08,-0.28
43.90,-6.89,-6.59,-6.92,-6.62,6.01,5.46,4.72,-0.88,-0.90,-0.30
44.33,-6.76,-6.44,-6.76,-6.44,6.02,5.44,4.64,-0.74,-0.74,-0.31
44.78,-6.66,-6.33,-6.66,-6.33,6.02,5.42,4.57,-0.64,-0.65,-0.33
45.23,-6.59,-6.25,-6.61,-6.26,6.01,5.40,4.51,-0.58,-0.60,-0.34
45.68,-6.56,-6.20,-6.55,-6.19,5.98,5.39,4.44,-0.57,-0.56,-0.36
46.13,-6.49,-6.12,-6.44,-6.08,5.95,5.38,4.38,-0.54,-0.49,-0.36
46.60,-6.31,-5.94,-6.32,-5.95,5.90,5.37,4.32,-0.41,-0.41,-0.37
47.06,-6.15,-5.77,-6.21,-5.84,5.85,5.35,4.27,-0.30,-0.37,-0.37
47.53,-6.13,-5.75,-6.13,-5.75,5.78,5.34,4.21,-0.35,-0.35,-0.38
48.01,-6.11,-5.73,-6.04,-5.67,5.69,5.31,4.17,-0.42,-0.36,-0.38
48.49,-5.95,-5.57,-5.95,-5.58,5.59,5.28,4.12,-0.36,-0.37,-0.37
48.97,-5.80,-5.43,-5.85,-5.48,5.47,5.23,4.08,-0.33,-0.38,-0.37
49.46,-5.75,-5.38,-5.75,-5.38,5.35,5.17,4.04,-0.40,-0.40,-0.37
49.96,-5.70,-5.33,-5.63,-5.27,5.24,5.09,4.00,-0.46,-0.39,-0.36
50.46,-5.49,-5.14,-5.48,-5.13,5.13,5.00,3.96,-0.36,-0.35,-0.35
50.96,-5.26,-4.91,-5.32,-4.97,5.02,4.90,3.93,-0.24,-0.31,-0.35
51.47,-5.19,-4.84,-5.19,-4.84,4.90,4.79,3.90,-0.29,-0.29,-0.35
51.99,-5.14,-4.78,-5.12,-4.76,4.78,4.68,3.87,-0.35,-0.34,-0.36
52.51,-5.07,-4.70,-5.07,-4.70,4.67,4.56,3.84,-0.40,-0.40,-0.37
53.03,-5.00,-4.62,-4.99,-4.61,4.57,4.45,3.82,-0.43,-0.42,-0.37
53.56,-4.88,-4.49,-4.88,-4.49,4.47,4.33,3.79,-0.41,-0.40,-0.38
54.10,-4.76,-4.36,-4.75,-4.36,4.38,4.22,3.77,-0.38,-0.37,-0.39
54.64,-4.64,-4.22,-4.65,-4.24,4.29,4.12,3.75,-0.35,-0.37,-0.41
55.18,-4.56,-4.12,-4.59,-4.15,4.18,4.02,3.72,-0.38,-0.41,-0.43
55.74,-4.56,-4.10,-4.53,-4.08,4.06,3.92,3.70,-0.50,-0.48,-0.46
56.29,-4.49,-4.00,-4.47,-3.98,3.93,3.83,3.68,-0.56,-0.54,-0.49
56.86,-4.36,-3.85,-4.37,-3.86,3.80,3.74,3.65,-0.56,-0.57,-0.51
57.42,-4.23,-3.69,-4.23,-3.69,3.67,3.65,3.63,-0.55,-0.56,-0.54
58.00,-4.10,-3.53,-4.09,-3.52,3.54,3.57,3.61,-0.55,-0.54,-0.57
58.58,-3.97,-3.36,-3.98,-3.37,3.41,3.49,3.58,-0.56,-0.57,-0.61
59.16,-3.87,-3.23,-3.90,-3.27,3.28,3.42,3.55,-0.59,-0.63,-0.64
59.76,-3.87,-3.20,-3.83,-3.15,3.16,3.34,3.52,-0.71,-0.67,-0.67
60.35,-3.79,-3.08,-3.76,-3.05,3.05,3.27,3.49,-0.74,-0.71,-0.71
60.96,-3.65,-2.91,-3.69,-2.96,2.96,3.20,3.46,-0.69,-0.74,-0.74
61.57,-3.64,-2.87,-3.64,-2.87,2.88,3.13,3.43,-0.75,-0.76,-0.77
62.18,-3.64,-2.84,-3.63,-2.82,2.83,3.07,3.39,-0.81,-0.79,-0.80
62.80,-3.64,-2.80,-3.63,-2.80,2.79,3.00,3.35,-0.84,-0.84,-0.84
63.43,-3.64,-2.76,-3.63,-2.76,2.77,2.94,3.31,-0.86,-0.86,-0.87
64.07,-3.64,-2.73,-3.64,-2.73,2.77,2.88,3.27,-0.87,-0.87,-0.91
64.71,-3.68,-2.73,-3.69,-2.75,2.78,2.82,3.22,-0.90,-0.92,-0.95
65.35,-3.75,-2.76,-3.76,-2.78,2.79,2.76,3.18,-0.96,-0.98,-0.99
66.01,-3.87,-2.85,-3.83,-2.81,2.80,2.70,3.13,-1.07,-1.03,-1.01
66.67,-3.87,-2.82,-3.87,-2.83,2.79,2.64,3.08,-1.08,-1.08,-1.04
67.33,-3.87,-2.80,-3.89,-2.82,2.78,2.58,3.02,-1.09,-1.11,-1.06
68.01,-3.87,-2.77,-3.87,-2.78,2.75,2.53,2.97,-1.12,-1.12,-1.09
68.69,-3.86,-2.74,-3.82,-2.71,2.71,2.47,2.91,-1.15,-1.12,-1.11
69.37,-3.77,-2.64,-3.77,-2.64,2.64,2.41,2.85,-1.12,-1.12,-1.13
70.07,-3.64,-2.50,-3.69,-2.55,2.57,2.36,2.80,-1.07,-1.12,-1.14
70.77,-3.64,-2.49,-3.59,-2.44,2.47,2.30,2.74,-1.16,-1.12,-1.15
71.48,-3.53,-2.37,-3.53,-2.37,2.37,2.25,2.67,-1.16,-1.16,-1.16
72.19,-3.42,-2.24,-3.47,-2.29,2.26,2.20,2.61,-1.16,-1.21,-1.18
72.91,-3.42,-2.24,-3.37,-2.18,2.15,2.14,2.55,-1.26,-1.21,-1.18
73.64,-3.27,-2.07,-3.26,-2.06,2.05,2.09,2.49,-1.22,-1.21,-1.20
74.38,-3.13,-1.92,-3.14,-1.93,1.95,2.03,2.43,-1.17,-1.19,-1.21
75.12,-3.01,-1.78,-3.03,-1.80,1.86,1.98,2.36,-1.15,-1.17,-1.23
75.87,-2.97,-1.71,-2.98,-1.73,1.77,1.92,2.30,-1.20,-1.21,-1.25
76.63,-2.96,-1.69,-2.95,-1.68,1.68,1.87,2.24,-1.28,-1.28,-1.27
77.40,-2.94,-1.65,-2.91,-1.62,1.59,1.81,2.18,-1.35,-1.33,-1.29
78.17,-2.87,-1.56,-2.85,-1.54,1.51,1.75,2.12,-1.36,-1.35,-1.31
78.95,-2.74,-1.40,-2.78,-1.45,1.43,1.69,2.06,-1.31,-1.35,-1.34
79.74,-2.73,-1.37,-2.70,-1.35,1.36,1.63,2.00,-1.37,-1.35,-1.35
80.54,-2.65,-1.27,-2.63,-1.25,1.28,1.57,1.94,-1.36,-1.35,-1.38
81.35,-2.56,-1.16,-2.57,-1.18,1.20,1.51,1.88,-1.36,-1.38,-1.40
82.16,-2.51,-1.09,-2.54,-1.12,1.11,1.45,1.82,-1.39,-1.42,-1.42
82.98,-2.51,-1.07,-2.50,-1.07,1.04,1.38,1.77,-1.47,-1.46,-1.44
83.81,-2.51,-1.06,-2.45,-0.99,0.98,1.31,1.71,-1.53,-1.47,-1.45
84.65,-2.36,-0.88,-2.38,-0.91,0.92,1.24,1.66,-1.44,-1.46,-1.47
85.50,-2.28,-0.79,-2.31,-0.82,0.87,1.17,1.60,-1.41,-1.45,-1.49
86.35,-2.28,-0.78,-2.27,-0.77,0.81,1.10,1.55,-1.47,-1.46,-1.50
87.22,-2.28,-0.76,-2.29,-0.77,0.75,1.02,1.50,-1.53,-1.54,-1.52
88.09,-2.28,-0.75,-2.28,-0.74,0.68,0.93,1.45,-1.59,-1.59,-1.53
88.97,-2.28,-0.73,-2.22,-0.67,0.63,0.85,1.40,-1.65,-1.60,-1.55
89.86,-2.12,-0.55,-2.15,-0.58,0.58,0.76,1.35,-1.54,-1.58,-1.57
90.76,-2.06,-0.47,-2.08,-0.49,0.53,0.67,1.30,-1.53,-1.55,-1.59
91.66,-2.05,-0.44,-2.04,-0.43,0.49,0.58,1.25,-1.56,-1.55,-1.60
92.58,-2.05,-0.43,-2.04,-0.42,0.45,0.48,1.21,-1.60,-1.59,-1.62
93.51,-2.05,-0.41,-2.05,-0.41,0.42,0.39,1.16,-1.63,-1.63,-1.64
94.44,-2.05,-0.39,-2.05,-0.39,0.39,0.30,1.12,-1.66,-1.66,-1.66
95.39,-2.05,-0.37,-2.05,-0.37,0.37,0.21,1.07,-1.68,-1.68,-1.67
96.34,-2.05,-0.36,-2.05,-0.36,0.33,0.12,1.03,-1.71,-1.72,-1.69
97.30,-2.05,-0.34,-2.06,-0.35,0.30,0.04,0.99,-1.75,-1.76,-1.71
98.28,-2.05,-0.32,-2.02,-0.29,0.25,-0.02,0.95,-1.80,-1.77,-1.73
99.26,-1.99,-0.24,-1.95,-0.20,0.19,-0.08,0.91,-1.80,-1.76,-1.75
100.25,-1.83,-0.05,-1.88,-0.11,0.14,-0.11,0.87,-1.69,-1.75,-1.78
101.25,-1.82,-0.02,-1.82,-0.03,0.08,-0.14,0.84,-1.74,-1.75,-1.80
102.27,-1.82,0.01,-1.80,0.02,0.02,-0.15,0.80,-1.80,-1.78,-1.83
103.29,-1.82,0.04,-1.82,0.04,-0.04,-0.14,0.77,-1.85,-1.85,-1.86
104.32,-1.82,0.08,-1.82,0.08,-0.09,-0.12,0.73,-1.91,-1.91,-1.89
105.37,-1.82,0.12,-1.82,0.11,-0.14,-0.09,0.70,-1.95,-1.95,-1.93
106.42,-1.82,0.16,-1.82,0.16,-0.18,-0.05,0.67,-2.00,-2.00,-1.97
107.48,-1.82,0.21,-1.82,0.21,-0.23,-0.01,0.64,-2.05,-2.05,-2.02
108.56,-1.82,0.26,-1.82,0.26,-0.27,0.04,0.61,-2.09,-2.09,-2.08
109.64,-1.82,0.31,-1.82,0.31,-0.31,0.09,0.58,-2.13,-2.13,-2.13
110.74,-1.82,0.36,-1.81,0.37,-0.35,0.14,0.55,-2.17,-2.16,-2.18
111.85,-1.82,0.41,-1.80,0.43,-0.38,0.19,0.53,-2.20,-2.18,-2.23
112.97,-1.82,0.47,-1.84,0.44,-0.41,0.24,0.51,-2.23,-2.26,-2.29
114.10,-1.87,0.47,-1.91,0.43,-0.44,0.29,0.48,-2.31,-2.35,-2.34
115.24,-2.05,0.34,-1.99,0.40,-0.46,0.33,0.46,-2.51,-2.44,-2.38
116.39,-2.05,0.39,-2.04,0.39,-0.46,0.37,0.44,-2.51,-2.50,-2.43
117.55,-2.05,0.43,-2.04,0.43,-0.45,0.40,0.43,-2.49,-2.49,-2.48
118.73,-2.05,0.47,-2.05,0.47,-0.42,0.44,0.41,-2.46,-2.47,-2.52
119.92,-2.06,0.50,-2.12,0.44,-0.37,0.47,0.40,-2.43,-2.49,-2.56
121.12,-2.29,0.30,-2.25,0.34,-0.31,0.49,0.39,-2.59,-2.56,-2.59
122.33,-2.43,0.20,-2.42,0.21,-0.22,0.52,0.38,-2.65,-2.64,-2.63
123.55,-2.61,0.05,-2.58,0.07,-0.10,0.54,0.37,-2.71,-2.68,-2.65
124.79,-2.72,-0.03,-2.73,-0.05,0.05,0.56,0.36,-2.67,-2.68,-2.69
126.03,-2.90,-0.18,-2.92,-0.21,0.23,0.58,0.36,-2.66,-2.69,-2.71
127.29,-3.16,-0.42,-3.15,-0.40,0.44,0.59,0.35,-2.72,-2.71,-2.74
128.57,-3.42,-0.64,-3.41,-0.64,0.67,0.61,0.35,-2.75,-2.74,-2.77
129.85,-3.68,-0.88,-3.68,-0.88,0.90,0.62,0.35,-2.78,-2.78,-2.80
131.15,-3.94,-1.12,-3.94,-1.11,1.14,0.63,0.36,-2.80,-2.80,-2.82
132.46,-4.20,-1.35,-4.21,-1.35,1.37,0.64,0.36,-2.83,-2.84,-2.85
133.79,-4.47,-1.58,-4.48,-1.60,1.57,0.65,0.37,-2.89,-2.90,-2.88
135.12,-4.72,-1.81,-4.72,-1.81,1.75,0.66,0.38,-2.97,-2.97,-2.91
136.48,-4.93,-1.99,-4.90,-1.96,1.88,0.67,0.38,-3.04,-3.02,-2.94
137.84,-5.01,-2.04,-4.99,-2.03,1.97,0.68,0.40,-3.03,-3.02,-2.97
139.22,-5.01,-2.02,-5.02,-2.03,2.02,0.69,0.41,-2.99,-3.00,-2.99
140.61,-5.01,-1.99,-5.02,-2.00,2.02,0.70,0.42,-2.99,-2.99,-3.02
142.02,-5.01,-1.96,-5.02,-1.98,1.99,0.71,0.44,-3.02,-3.04,-3.04
143.44,-5.01,-1.94,-5.01,-1.94,1.92,0.72,0.45,-3.09,-3.09,-3.07
144.87,-5.01,-1.91,-4.95,-1.85,1.84,0.72,0.47,-3.16,-3.11,-3.10
146.32,-4.86,-1.72,-4.88,-1.75,1.76,0.73,0.49,-3.10,-3.12,-3.14
147.78,-4.78,-1.61,-4.81,-1.64,1.68,0.74,0.51,-3.10,-3.13,-3.17
149.26,-4.78,-1.57,-4.77,-1.56,1.61,0.75,0.53,-3.17,-3.16,-3.21
150.75,-4.78,-1.52,-4.77,-1.52,1.54,0.76,0.56,-3.24,-3.23,-3.25
152.26,-4.78,-1.48,-4.78,-1.48,1.47,0.77,0.58,-3.31,-3.31,-3.30
153.78,-4.78,-1.43,-4.78,-1.43,1.41,0.78,0.60,-3.37,-3.37,-3.35
155.32,-4.78,-1.37,-4.78,-1.37,1.36,0.79,0.63,-3.42,-3.42,-3.40
156.88,-4.78,-1.32,-4.78,-1.32,1.31,0.80,0.66,-3.47,-3.47,-3.46
158.44,-4.78,-1.28,-4.78,-1.28,1.26,0.81,0.68,-3.51,-3.51,-3.50
160.03,-4.78,-1.24,-4.78,-1.24,1.23,0.83,0.71,-3.55,-3.55,-3.54
161.63,-4.78,-1.20,-4.77,-1.19,1.21,0.84,0.74,-3.57,-3.57,-3.58
163.24,-4.78,-1.17,-4.77,-1.16,1.20,0.86,0.77,-3.58,-3.57,-3.61
164.88,-4.78,-1.14,-4.79,-1.15,1.20,0.87,0.80,-3.58,-3.59,-3.64
166.53,-4.82,-1.16,-4.85,-1.19,1.21,0.89,0.83,-3.61,-3.64,-3.66
168.19,-4.94,-1.26,-4.92,-1.24,1.23,0.91,0.86,-3.71,-3.69,-3.68
169.87,-5.01,-1.32,-4.98,-1.30,1.25,0.93,0.90,-3.75,-3.73,-3.69
171.57,-5.01,-1.32,-5.02,-1.33,1.28,0.95,0.93,-3.73,-3.74,-3.68
173.29,-5.01,-1.33,-5.01,-1.33,1.30,0.98,0.97,-3.71,-3.71,-3.68
175.02,-5.01,-1.33,-5.01,-1.33,1.33,1.00,1.00,-3.68,-3.68,-3.68
176.77,-5.01,-1.34,-5.01,-1.34,1.36,1.03,1.04,-3.65,-3.65,-3.66
178.54,-5.01,-1.36,-5.00,-1.35,1.39,1.06,1.08,-3.62,-3.61,-3.65
180.32,-5.01,-1.37,-5.00,-1.36,1.42,1.09,1.11,-3.59,-3.58,-3.64
182.13,-5.01,-1.39,-5.04,-1.42,1.45,1.12,1.15,-3.56,-3.59,-3.62
183.95,-5.10,-1.48,-5.11,-1.50,1.49,1.16,1.19,-3.61,-3.63,-3.61
185.79,-5.23,-1.62,-5.18,-1.58,1.53,1.19,1.23,-3.70,-3.66,-3.61
187.65,-5.24,-1.64,-5.24,-1.63,1.57,1.23,1.27,-3.66,-3.66,-3.60
189.52,-5.24,-1.63,-5.24,-1.64,1.62,1.27,1.31,-3.61,-3.62,-3.60
191.42,-5.24,-1.63,-5.23,-1.62,1.67,1.32,1.36,-3.57,-3.56,-3.61
193.33,-5.24,-1.62,-5.27,-1.66,1.70,1.37,1.40,-3.53,-3.57,-3.62
195.27,-5.34,-1.72,-5.34,-1.72,1.73,1.41,1.44,-3.61,-3.61,-3.62
197.22,-5.44,-1.82,-5.41,-1.78,1.75,1.47,1.48,-3.68,-3.66,-3.62
199.19,-5.47,-1.84,-5.46,-1.83,1.78,1.52,1.53,-3.69,-3.68,-3.63
201.18,-5.47,-1.82,-5.47,-1.83,1.81,1.58,1.57,-3.66,-3.66,-3.64
203.19,-5.47,-1.81,-5.46,-1.81,1.85,1.64,1.61,-3.62,-3.62,-3.65
205.23,-5.47,-1.80,-5.50,-1.83,1.87,1.70,1.66,-3.59,-3.62,-3.66
207.28,-5.55,-1.86,-5.56,-1.88,1.89,1.76,1.70,-3.66,-3.67,-3.68
209.35,-5.67,-1.97,-5.63,-1.94,1.91,1.82,1.74,-3.76,-3.73,-3.70
211.44,-5.70,-1.99,-5.69,-1.98,1.93,1.89,1.78,-3.77,-3.76,-3.71
213.56,-5.70,-1.97,-5.70,-1.97,1.96,1.95,1.82,-3.74,-3.74,-3.73
215.69,-5.70,-1.96,-5.70,-1.96,1.99,2.01,1.86,-3.70,-3.70,-3.74
217.85,-5.70,-1.94,-5.73,-1.98,2.02,2.08,1.90,-3.67,-3.71,-3.76
220.03,-5.79,-2.02,-5.79,-2.03,2.05,2.14,1.94,-3.74,-3.74,-3.76
222.23,-5.89,-2.11,-5.86,-2.08,2.07,2.19,1.97,-3.82,-3.79,-3.78
224.45,-5.92,-2.13,-5.91,-2.12,2.07,2.25,2.01,-3.84,-3.84,-3.79
226.70,-5.92,-2.11,-5.93,-2.12,2.08,2.29,2.04,-3.84,-3.85,-3.80
228.96,-5.92,-2.11,-5.92,-2.11,2.08,2.33,2.07,-3.83,-3.84,-3.81
231.25,-5.92,-2.09,-5.92,-2.09,2.09,2.37,2.09,-3.83,-3.83,-3.83
233.57,-5.92,-2.08,-5.92,-2.08,2.10,2.39,2.11,-3.82,-3.82,-3.83
235.90,-5.92,-2.08,-5.90,-2.06,2.11,2.41,2.13,-3.81,-3.79,-3.84
238.26,-5.92,-2.06,-5.92,-2.07,2.12,2.41,2.15,-3.79,-3.79,-3.86
240.64,-5.92,-2.06,-5.97,-2.11,2.15,2.41,2.16,-3.77,-3.83,-3.86
243.05,-6.08,-2.21,-6.05,-2.18,2.17,2.39,2.17,-3.90,-3.87,-3.87
245.48,-6.15,-2.28,-6.12,-2.24,2.20,2.37,2.17,-3.95,-3.92,-3.87
247.93,-6.15,-2.27,-6.16,-2.28,2.23,2.33,2.17,-3.92,-3.93,-3.88
250.41,-6.15,-2.27,-6.15,-2.27,2.25,2.29,2.17,-3.90,-3.90,-3.88
252.92,-6.15,-2.26,-6.15,-2.26,2.27,2.24,2.16,-3.88,-3.88,-3.89
255.45,-6.15,-2.26,-6.15,-2.26,2.27,2.18,2.15,-3.87,-3.87,-3.89
258.00,-6.15,-2.25,-6.15,-2.25,2.27,2.11,2.14,-3.87,-3.87,-3.89
260.58,-6.15,-2.25,-6.15,-2.25,2.27,2.04,2.12,-3.88,-3.88,-3.90
263.19,-6.15,-2.23,-6.15,-2.24,2.25,1.97,2.09,-3.89,-3.89,-3.91
265.82,-6.15,-2.23,-6.15,-2.23,2.24,1.90,2.07,-3.91,-3.91,-3.92
268.48,-6.15,-2.23,-6.16,-2.24,2.22,1.82,2.04,-3.93,-3.94,-3.92
271.16,-6.15,-2.21,-6.15,-2.22,2.20,1.74,2.00,-3.94,-3.95,-3.93
273.87,-6.15,-2.21,-6.10,-2.17,2.17,1.66,1.97,-3.98,-3.93,-3.94
276.61,-6.02,-2.08,-6.04,-2.09,2.12,1.58,1.93,-3.90,-3.92,-3.94
279.38,-5.94,-1.98,-5.98,-2.03,2.04,1.50,1.89,-3.90,-3.94,-3.95
282.17,-5.92,-1.96,-5.91,-1.95,1.93,1.42,1.84,-3.99,-3.98,-3.96
284.99,-5.87,-1.91,-5.84,-1.88,1.79,1.35,1.80,-4.08,-4.05,-3.96
287.84,-5.69,-1.72,-5.68,-1.71,1.63,1.28,1.75,-4.06,-4.05,-3.96
290.72,-5.48,-1.51,-5.46,-1.49,1.46,1.21,1.70,-4.02,-4.00,-3.97
293.63,-5.16,-1.19,-5.21,-1.24,1.29,1.14,1.65,-3.87,-3.92,-3.97
296.57,-5.03,-1.06,-5.02,-1.05,1.11,1.07,1.60,-3.91,-3.90,-3.97
299.53,-4.84,-0.87,-4.85,-0.87,0.95,1.01,1.55,-3.89,-3.90,-3.97
302.53,-4.78,-0.79,-4.73,-0.75,0.79,0.95,1.49,-3.99,-3.94,-3.98
305.55,-4.59,-0.60,-4.64,-0.65,0.65,0.89,1.44,-3.93,-3.98,-3.99
308.61,-4.56,-0.57,-4.57,-0.58,0.55,0.84,1.39,-4.01,-4.02,-3.99
311.69,-4.56,-0.56,-4.49,-0.49,0.47,0.78,1.33,-4.09,-4.02,-4.00
314.81,-4.42,-0.40,-4.43,-0.42,0.41,0.73,1.28,-4.00,-4.02,-4.01
317.96,-4.34,-0.31,-4.37,-0.34,0.37,0.68,1.23,-3.97,-4.00,-4.03
321.14,-4.33,-0.28,-4.32,-0.28,0.32,0.64,1.17,-4.01,-4.00,-4.05
324.35,-4.33,-0.27,-4.32,-0.26,0.28,0.59,1.12,-4.05,-4.04,-4.06
327.59,-4.33,-0.26,-4.34,-0.27,0.23,0.55,1.06,-4.09,-4.11,-4.07
330.87,-4.33,-0.25,-4.33,-0.25,0.19,0.51,1.01,-4.14,-4.14,-4.08
334.18,-4.33,-0.23,-4.28,-0.19,0.16,0.47,0.96,-4.17,-4.13,-4.09
337.52,-4.20,-0.09,-4.21,-0.11,0.12,0.44,0.91,-4.08,-4.10,-4.10
340.90,-4.12,-0.01,-4.14,-0.03,0.07,0.40,0.86,-4.05,-4.07,-4.11
344.30,-4.10,0.02,-4.11,0.01,0.02,0.37,0.80,-4.08,-4.09,-4.12
347.75,-4.10,0.02,-4.10,0.02,-0.04,0.34,0.75,-4.14,-4.14,-4.12
351.23,-4.10,0.02,-4.06,0.06,-0.11,0.31,0.70,-4.20,-4.16,-4.12
354.74,-4.00,0.12,-3.99,0.13,-0.16,0.28,0.66,-4.16,-4.15,-4.12
358.28,-3.89,0.23,-3.92,0.20,-0.19,0.26,0.61,-4.08,-4.12,-4.12
361.87,-3.87,0.25,-3.87,0.25,-0.21,0.23,0.56,-4.08,-4.08,-4.11
365.49,-3.87,0.25,-3.85,0.26,-0.22,0.21,0.51,-4.08,-4.07,-4.11
369.14,-3.87,0.25,-3.85,0.26,-0.21,0.18,0.46,-4.08,-4.06,-4.12
372.83,-3.87,0.25,-3.89,0.22,-0.20,0.16,0.42,-4.06,-4.09,-4.12
376.56,-3.92,0.19,-3.95,0.16,-0.17,0.14,0.37,-4.09,-4.12,-4.11
380.33,-4.07,0.04,-4.03,0.08,-0.13,0.12,0.33,-4.20,-4.16,-4.11
384.13,-4.10,0.01,-4.09,0.02,-0.09,0.11,0.28,-4.18,-4.17,-4.11
387.97,-4.10,0.01,-4.10,0.01,-0.03,0.09,0.24,-4.13,-4.14,-4.11
391.85,-4.10,0.01,-4.09,0.02,0.02,0.07,0.19,-4.08,-4.07,-4.11
395.77,-4.10,0.01,-4.12,-0.01,0.07,0.06,0.15,-4.03,-4.05,-4.11
399.73,-4.16,-0.05,-4.18,-0.08,0.11,0.04,0.11,-4.05,-4.08,-4.10
403.72,-4.29,-0.18,-4.25,-0.15,0.14,0.03,0.06,-4.15,-4.12,-4.10
407.76,-4.33,-0.22,-4.31,-0.21,0.17,0.01,0.02,-4.16,-4.15,-4.10
411.84,-4.33,-0.22,-4.34,-0.23,0.20,0.00,-0.02,-4.13,-4.14,-4.10
415.96,-4.33,-0.22,-4.33,-0.23,0.23,-0.01,-0.06,-4.10,-4.11,-4.11
420.12,-4.33,-0.22,-4.33,-0.22,0.25,-0.03,-0.10,-4.08,-4.08,-4.11
424.32,-4.33,-0.22,-4.33,-0.22,0.25,-0.04,-0.14,-4.08,-4.08,-4.11
428.56,-4.33,-0.22,-4.33,-0.22,0.23,-0.05,-0.18,-4.10,-4.10,-4.11
