frequency,raw,error,smoothed,error_smoothed,equalization,parametric_eq,fixed_band_eq,equalized_raw,equalized_smoothed,target
20.00,-3.64,-6.03,-3.64,-6.03,6.02,5.64,2.03,2.38,2.39,2.40
20.20,-3.60,-5.97,-3.60,-5.98,5.96,5.62,2.09,2.36,2.36,2.38
20.40,-3.57,-5.91,-3.56,-5.91,5.90,5.60,2.15,2.34,2.34,2.35
20.61,-3.53,-5.86,-3.53,-5.85,5.84,5.57,2.21,2.32,2.32,2.33
20.81,-3.49,-5.79,-3.49,-5.79,5.79,5.55,2.28,2.30,2.30,2.31
21.02,-3.45,-5.72,-3.45,-5.73,5.73,5.53,2.34,2.29,2.29,2.28
21.23,-3.41,-5.66,-3.41,-5.67,5.68,5.50,2.41,2.27,2.27,2.26
21.44,-3.39,-5.62,-3.38,-5.62,5.63,5.48,2.48,2.24,2.24,2.24
21.66,-3.36,-5.57,-3.36,-5.57,5.57,5.45,2.55,2.21,2.21,2.22
21.87,-3.34,-5.53,-3.33,-5.53,5.52,5.42,2.63,2.18,2.19,2.20
22.09,-3.30,-5.47,-3.30,-5.48,5.47,5.40,2.71,2.18,2.17,2.17
22.31,-3.28,-5.43,-3.28,-5.43,5.43,5.37,2.78,2.15,2.15,2.15
22.54,-3.26,-5.38,-3.25,-5.38,5.38,5.34,2.87,2.12,2.13,2.12
22.76,-3.23,-5.33,-3.23,-5.34,5.34,5.32,2.95,2.11,2.11,2.10
22.99,-3.21,-5.29,-3.21,-5.29,5.29,5.29,3.03,2.09,2.09,2.08
23.22,-3.19,-5.25,-3.18,-5.25,5.25,5.26,3.12,2.06,2.07,2.06
23.45,-3.16,-5.21,-3.16,-5.21,5.21,5.23,3.21,2.05,2.05,2.05
23.69,-3.14,-5.17,-3.13,-5.17,5.17,5.20,3.30,2.03,2.03,2.03
23.92,-3.11,-5.13,-3.11,-5.13,5.13,5.17,3.39,2.02,2.02,2.02
24.16,-3.09,-5.09,-3.09,-5.09,5.09,5.14,3.48,2.01,2.01,2.00
24.40,-3.07,-5.06,-3.07,-5.06,5.06,5.11,3.58,1.99,1.99,1.99
24.65,-3.05,-5.03,-3.05,-5.02,5.02,5.08,3.68,1.97,1.98,1.98
24.89,-3.03,-4.99,-3.02,-4.99,4.99,5.05,3.77,1.96,1.96,1.96
25.14,-3.00,-4.95,-3.00,-4.95,4.95,5.02,3.87,1.96,1.95,1.95
25.39,-2.98,-4.92,-2.98,-4.92,4.92,4.98,3.97,1.94,1.94,1.94
25.65,-2.96,-4.89,-2.95,-4.88,4.88,4.95,4.07,1.92,1.93,1.93
25.91,-2.93,-4.85,-2.93,-4.85,4.84,4.92,4.17,1.92,1.91,1.92
26.16,-2.91,-4.81,-2.91,-4.81,4.81,4.89,4.27,1.90,1.90,1.91
26.43,-2.88,-4.77,-2.88,-4.77,4.77,4.85,4.37,1.89,1.89,1.89
26.69,-2.86,-4.73,-2.85,-4.73,4.73,4.82,4.46,1.88,1.88,1.88
26.96,-2.83,-4.69,-2.83,-4.69,4.70,4.78,4.56,1.87,1.87,1.87
27.23,-2.80,-4.65,-2.80,-4.66,4.66,4.75,4.65,1.86,1.86,1.86
27.50,-2.78,-4.62,-2.78,-4.62,4.63,4.72,4.74,1.85,1.85,1.84
27.77,-2.76,-4.60,-2.75,-4.59,4.59,4.68,4.83,1.84,1.84,1.84
28.05,-2.73,-4.56,-2.73,-4.56,4.56,4.65,4.91,1.83,1.83,1.83
28.33,-2.71,-4.53,-2.70,-4.53,4.53,4.61,4.99,1.82,1.83,1.82
28.62,-2.68,-4.50,-2.68,-4.50,4.50,4.57,5.06,1.82,1.82,1.82
28.90,-2.65,-4.46,-2.65,-4.46,4.46,4.54,5.13,1.81,1.81,1.81
29.19,-2.63,-4.44,-2.62,-4.43,4.42,4.50,5.19,1.80,1.80,1.81
29.48,-2.59,-4.39,-2.59,-4.39,4.38,4.46,5.24,1.80,1.80,1.80
29.78,-2.55,-4.35,-2.55,-4.35,4.34,4.43,5.29,1.80,1.79,1.80
30.08,-2.52,-4.30,-2.51,-4.30,4.30,4.39,5.32,1.78,1.79,1.79
30.38,-2.48,-4.26,-2.48,-4.26,4.26,4.35,5.35,1.78,1.78,1.79
30.68,-2.44,-4.21,-2.44,-4.22,4.22,4.32,5.38,1.78,1.78,1.77
30.99,-2.41,-4.17,-2.41,-4.17,4.18,4.28,5.39,1.77,1.77,1.76
31.30,-2.38,-4.14,-2.38,-4.13,4.14,4.24,5.39,1.76,1.77,1.76
31.61,-2.35,-4.10,-2.35,-4.10,4.10,4.20,5.39,1.76,1.75,1.75
31.93,-2.33,-4.07,-2.33,-4.07,4.07,4.16,5.37,1.74,1.74,1.74
32.24,-2.31,-4.04,-2.30,-4.04,4.04,4.12,5.35,1.73,1.73,1.74
32.57,-2.28,-4.00,-2.28,-4.01,4.00,4.08,5.32,1.72,1.72,1.73
32.89,-2.26,-3.97,-2.25,-3.97,3.97,4.04,5.28,1.71,1.71,1.72
33.22,-2.23,-3.93,-2.23,-3.93,3.94,4.00,5.24,1.71,1.70,1.70
33.55,-2.21,-3.90,-2.21,-3.90,3.90,3.96,5.18,1.69,1.69,1.69
33.89,-2.19,-3.87,-2.18,-3.86,3.86,3.93,5.12,1.68,1.68,1.68
34.23,-2.16,-3.83,-2.16,-3.83,3.83,3.88,5.06,1.67,1.67,1.67
34.57,-2.13,-3.79,-2.13,-3.79,3.79,3.84,4.99,1.66,1.66,1.67
34.92,-2.10,-3.75,-2.10,-3.75,3.75,3.80,4.91,1.66,1.66,1.66
35.27,-2.07,-3.71,-2.07,-3.71,3.71,3.76,4.83,1.65,1.65,1.64
35.62,-2.04,-3.68,-2.04,-3.67,3.68,3.72,4.75,1.64,1.64,1.64
35.97,-2.01,-3.64,-2.01,-3.64,3.64,3.68,4.66,1.63,1.63,1.63
36.33,-1.97,-3.59,-1.97,-3.60,3.60,3.64,4.57,1.63,1.62,1.63
36.70,-1.95,-3.56,-1.94,-3.56,3.56,3.60,4.48,1.61,1.62,1.61
37.06,-1.91,-3.51,-1.91,-3.52,3.52,3.56,4.39,1.61,1.61,1.60
37.43,-1.88,-3.48,-1.88,-3.47,3.48,3.52,4.30,1.60,1.60,1.60
37.81,-1.85,-3.43,-1.84,-3.43,3.43,3.47,4.21,1.59,1.59,1.59
38.19,-1.81,-3.39,-1.81,-3.39,3.39,3.43,4.12,1.59,1.58,1.58
38.57,-1.78,-3.35,-1.78,-3.35,3.35,3.39,4.02,1.57,1.57,1.57
38.95,-1.75,-3.32,-1.74,-3.31,3.31,3.35,3.93,1.56,1.57,1.57
39.34,-1.71,-3.26,-1.71,-3.27,3.27,3.31,3.84,1.56,1.56,1.56
39.74,-1.67,-3.22,-1.67,-3.22,3.22,3.26,3.75,1.55,1.55,1.55
40.14,-1.64,-3.18,-1.63,-3.18,3.18,3.22,3.67,1.54,1.54,1.54
40.54,-1.60,-3.13,-1.60,-3.13,3.13,3.18,3.58,1.53,1.53,1.54
40.94,-1.56,-3.08,-1.56,-3.08,3.08,3.14,3.50,1.53,1.52,1.52
41.35,-1.52,-3.04,-1.52,-3.03,3.04,3.09,3.42,1.52,1.52,1.52
41.76,-1.48,-2.98,-1.48,-2.98,2.99,3.05,3.34,1.51,1.51,1.51
42.18,-1.44,-2.94,-1.44,-2.94,2.94,3.01,3.26,1.50,1.50,1.50
42.60,-1.41,-2.89,-1.40,-2.89,2.89,2.96,3.18,1.49,1.49,1.49
43.03,-1.37,-2.85,-1.37,-2.85,2.84,2.92,3.11,1.48,1.48,1.48
43.46,-1.33,-2.80,-1.33,-2.80,2.80,2.88,3.04,1.47,1.47,1.47
43.90,-1.29,-2.75,-1.29,-2.75,2.75,2.83,2.97,1.47,1.47,1.46
44.33,-1.25,-2.71,-1.25,-2.71,2.71,2.79,2.90,1.46,1.46,1.46
44.78,-1.22,-2.66,-1.21,-2.66,2.66,2.75,2.84,1.45,1.45,1.44
45.23,-1.18,-2.62,-1.18,-2.62,2.62,2.70,2.78,1.44,1.44,1.44
45.68,-1.15,-2.58,-1.15,-2.58,2.58,2.66,2.72,1.43,1.43,1.43
46.13,-1.11,-2.54,-1.11,-2.54,2.54,2.62,2.66,1.43,1.43,1.43
46.60,-1.08,-2.50,-1.07,-2.50,2.50,2.57,2.61,1.42,1.42,1.42
47.06,-1.04,-2.45,-1.04,-2.46,2.46,2.53,2.56,1.42,1.42,1.42
47.53,-1.01,-2.42,-1.01,-2.42,2.42,2.49,2.50,1.41,1.41,1.41
48.01,-0.98,-2.38,-0.98,-2.38,2.38,2.44,2.46,1.40,1.41,1.41
48.49,-0.95,-2.35,-0.95,-2.35,2.34,2.40,2.41,1.40,1.40,1.40
48.97,-0.92,-2.31,-0.92,-2.31,2.31,2.35,2.37,1.39,1.39,1.39
49.46,-0.89,-2.27,-0.89,-2.27,2.27,2.31,2.32,1.38,1.38,1.38
49.96,-0.86,-2.23,-0.86,-2.23,2.23,2.26,2.28,1.38,1.38,1.38
50.46,-0.83,-2.20,-0.83,-2.20,2.20,2.22,2.24,1.37,1.37,1.37
50.96,-0.80,-2.16,-0.80,-2.16,2.16,2.18,2.20,1.37,1.36,1.36
51.47,-0.78,-2.13,-0.77,-2.13,2.13,2.13,2.17,1.35,1.35,1.35
51.99,-0.75,-2.09,-0.75,-2.09,2.09,2.09,2.13,1.34,1.34,1.34
52.51,-0.72,-2.05,-0.72,-2.06,2.06,2.04,2.09,1.34,1.33,1.34
53.03,-0.70,-2.02,-0.69,-2.02,2.02,2.00,2.06,1.32,1.33,1.33
53.56,-0.67,-1.98,-0.67,-1.98,1.99,1.95,2.03,1.32,1.32,1.32
54.10,-0.64,-1.95,-0.64,-1.95,1.95,1.91,1.99,1.31,1.31,1.31
54.64,-0.62,-1.91,-0.62,-1.91,1.91,1.86,1.96,1.30,1.30,1.30
55.18,-0.60,-1.88,-0.59,-1.88,1.88,1.82,1.93,1.28,1.29,1.29
55.74,-0.57,-1.84,-0.57,-1.85,1.84,1.77,1.90,1.28,1.27,1.28
56.29,-0.55,-1.81,-0.54,-1.81,1.81,1.72,1.86,1.26,1.26,1.27
56.86,-0.52,-1.77,-0.52,-1.77,1.77,1.68,1.83,1.26,1.26,1.25
57.42,-0.49,-1.73,-0.49,-1.74,1.74,1.63,1.80,1.25,1.25,1.24
58.00,-0.47,-1.71,-0.46,-1.70,1.70,1.59,1.76,1.24,1.24,1.24
58.58,-0.45,-1.67,-0.44,-1.67,1.67,1.54,1.73,1.22,1.23,1.23
59.16,-0.41,-1.62,-0.42,-1.63,1.63,1.50,1.69,1.22,1.21,1.21
59.76,-0.40,-1.60,-0.39,-1.60,1.59,1.45,1.65,1.20,1.20,1.20
60.35,-0.37,-1.56,-0.37,-1.56,1.56,1.40,1.61,1.19,1.19,1.20
60.96,-0.35,-1.53,-0.34,-1.52,1.52,1.36,1.57,1.17,1.17,1.18
61.57,-0.31,-1.47,-0.31,-1.48,1.48,1.31,1.53,1.17,1.17,1.17
62.18,-0.28,-1.43,-0.28,-1.43,1.44,1.26,1.49,1.16,1.16,1.15
62.80,-0.25,-1.38,-0.25,-1.39,1.39,1.22,1.44,1.15,1.14,1.13
63.43,-0.23,-1.36,-0.23,-1.35,1.35,1.17,1.40,1.13,1.13,1.13
64.07,-0.21,-1.32,-0.20,-1.31,1.31,1.12,1.35,1.10,1.11,1.11
64.71,-0.17,-1.26,-0.18,-1.27,1.26,1.07,1.30,1.10,1.09,1.09
65.35,-0.15,-1.22,-0.15,-1.22,1.22,1.02,1.25,1.07,1.07,1.08
66.01,-0.13,-1.18,-0.12,-1.18,1.18,0.98,1.19,1.05,1.06,1.06
66.67,-0.09,-1.13,-0.09,-1.13,1.13,0.93,1.14,1.04,1.04,1.04
67.33,-0.06,-1.08,-0.06,-1.08,1.08,0.88,1.08,1.03,1.02,1.02
68.01,-0.04,-1.04,-0.03,-1.03,1.04,0.83,1.02,1.00,1.00,1.00
68.69,-0.01,-0.99,-0.01,-0.99,0.99,0.78,0.96,0.98,0.98,0.98
69.37,0.01,-0.94,0.01,-0.94,0.94,0.73,0.90,0.95,0.96,0.96
70.07,0.04,-0.89,0.04,-0.89,0.89,0.68,0.84,0.94,0.94,0.93
70.77,0.06,-0.85,0.06,-0.85,0.85,0.63,0.77,0.91,0.91,0.91
71.48,0.09,-0.80,0.09,-0.80,0.80,0.58,0.71,0.89,0.89,0.89
72.19,0.11,-0.75,0.12,-0.75,0.75,0.53,0.64,0.86,0.86,0.87
72.91,0.14,-0.70,0.14,-0.70,0.70,0.48,0.57,0.84,0.84,0.84
73.64,0.16,-0.64,0.16,-0.65,0.65,0.43,0.50,0.81,0.81,0.81
74.38,0.18,-0.60,0.19,-0.59,0.59,0.38,0.43,0.77,0.78,0.78
75.12,0.22,-0.53,0.22,-0.54,0.54,0.33,0.36,0.76,0.75,0.76
75.87,0.24,-0.48,0.24,-0.48,0.48,0.27,0.29,0.73,0.73,0.72
76.63,0.26,-0.43,0.26,-0.42,0.43,0.22,0.22,0.69,0.69,0.69
77.40,0.28,-0.37,0.28,-0.37,0.37,0.17,0.15,0.65,0.65,0.65
78.17,0.30,-0.31,0.30,-0.31,0.31,0.11,0.07,0.62,0.62,0.62
78.95,0.32,-0.25,0.32,-0.25,0.25,0.06,-0.00,0.58,0.57,0.58
79.74,0.34,-0.19,0.34,-0.19,0.19,0.00,-0.08,0.53,0.53,0.54
80.54,0.36,-0.13,0.37,-0.13,0.13,-0.05,-0.15,0.49,0.49,0.50
81.35,0.39,-0.06,0.39,-0.06,0.06,-0.11,-0.23,0.46,0.46,0.46
82.16,0.42,0.01,0.42,0.00,-0.00,-0.16,-0.31,0.42,0.42,0.41
82.98,0.44,0.07,0.44,0.07,-0.07,-0.22,-0.39,0.37,0.37,0.37
83.81,0.47,0.14,0.47,0.14,-0.14,-0.28,-0.47,0.33,0.33,0.33
84.65,0.48,0.21,0.49,0.21,-0.21,-0.33,-0.54,0.27,0.28,0.28
85.50,0.52,0.29,0.52,0.28,-0.28,-0.39,-0.62,0.24,0.24,0.23
86.35,0.54,0.34,0.54,0.35,-0.35,-0.45,-0.71,0.19,0.19,0.20
87.22,0.57,0.42,0.58,0.42,-0.42,-0.51,-0.79,0.15,0.16,0.16
88.09,0.60,0.49,0.60,0.49,-0.49,-0.57,-0.87,0.11,0.11,0.11
88.97,0.63,0.57,0.63,0.56,-0.56,-0.63,-0.95,0.07,0.07,0.07
89.86,0.65,0.63,0.66,0.63,-0.63,-0.69,-1.04,0.02,0.03,0.02
90.76,0.68,0.70,0.68,0.70,-0.70,-0.76,-1.12,-0.02,-0.02,-0.02
91.66,0.71,0.78,0.71,0.77,-0.78,-0.82,-1.21,-0.06,-0.07,-0.06
92.58,0.74,0.84,0.75,0.85,-0.85,-0.88,-1.29,-0.11,-0.10,-0.10
93.51,0.78,0.93,0.78,0.93,-0.93,-0.95,-1.38,-0.14,-0.14,-0.15
94.44,0.82,1.01,0.82,1.00,-1.00,-1.01,-1.47,-0.18,-0.18,-0.18
95.39,0.85,1.09,0.85,1.08,-1.08,-1.08,-1.56,-0.23,-0.23,-0.23
96.34,0.88,1.15,0.89,1.16,-1.16,-1.14,-1.64,-0.28,-0.27,-0.27
97.30,0.92,1.24,0.92,1.24,-1.24,-1.21,-1.73,-0.32,-0.32,-0.32
98.28,0.96,1.32,0.96,1.32,-1.32,-1.28,-1.82,-0.36,-0.36,-0.36
99.26,0.99,1.40,1.00,1.40,-1.41,-1.34,-1.91,-0.41,-0.41,-0.41
100.25,1.03,1.49,1.03,1.49,-1.49,-1.41,-2.00,-0.46,-0.46,-0.46
101.25,1.07,1.58,1.07,1.57,-1.57,-1.48,-2.09,-0.50,-0.51,-0.50
102.27,1.10,1.66,1.11,1.66,-1.66,-1.55,-2.18,-0.56,-0.55,-0.55
103.29,1.14,1.75,1.15,1.75,-1.74,-1.62,-2.27,-0.60,-0.60,-0.60
104.32,1.18,1.84,1.18,1.83,-1.83,-1.69,-2.36,-0.65,-0.65,-0.65
105.37,1.22,1.92,1.22,1.92,-1.92,-1.77,-2.44,-0.69,-0.70,-0.70
106.42,1.24,1.99,1.25,2.00,-2.00,-1.84,-2.53,-0.76,-0.75,-0.75
107.48,1.28,2.08,1.28,2.09,-2.09,-1.91,-2.62,-0.81,-0.80,-0.80
108.56,1.32,2.17,1.32,2.17,-2.17,-1.98,-2.70,-0.85,-0.85,-0.85
109.64,1.36,2.26,1.36,2.26,-2.26,-2.06,-2.78,-0.90,-0.90,-0.90
110.74,1.39,2.34,1.40,2.35,-2.34,-2.13,-2.86,-0.95,-0.95,-0.95
111.85,1.43,2.43,1.43,2.43,-2.43,-2.21,-2.93,-0.99,-1.00,-1.00
112.97,1.46,2.51,1.46,2.51,-2.51,-2.28,-3.01,-1.05,-1.05,-1.05
114.10,1.49,2.59,1.49,2.59,-2.59,-2.35,-3.08,-1.10,-1.10,-1.09
115.24,1.52,2.67,1.52,2.67,-2.67,-2.43,-3.14,-1.15,-1.14,-1.14
116.39,1.55,2.74,1.55,2.74,-2.74,-2.50,-3.20,-1.19,-1.19,-1.19
117.55,1.58,2.82,1.58,2.82,-2.82,-2.58,-3.26,-1.23,-1.24,-1.24
118.73,1.60,2.89,1.61,2.89,-2.89,-2.65,-3.31,-1.28,-1.28,-1.29
119.92,1.63,2.96,1.63,2.96,-2.95,-2.73,-3.36,-1.32,-1.32,-1.32
121.12,1.65,3.02,1.65,3.02,-3.02,-2.80,-3.40,-1.37,-1.37,-1.37
122.33,1.67,3.08,1.67,3.08,-3.08,-2.87,-3.44,-1.41,-1.41,-1.41
123.55,1.69,3.14,1.69,3.14,-3.15,-2.95,-3.47,-1.45,-1.45,-1.45
124.79,1.71,3.20,1.71,3.20,-3.21,-3.02,-3.50,-1.49,-1.49,-1.49
126.03,1.73,3.27,1.73,3.26,-3.26,-3.09,-3.52,-1.53,-1.53,-1.53
127.29,1.75,3.32,1.75,3.32,-3.32,-3.16,-3.53,-1.57,-1.57,-1.57
128.57,1.76,3.36,1.77,3.37,-3.37,-3.23,-3.54,-1.61,-1.60,-1.60
129.85,1.78,3.43,1.78,3.42,-3.42,-3.30,-3.55,-1.64,-1.64,-1.64
131.15,1.79,3.47,1.79,3.47,-3.47,-3.36,-3.54,-1.67,-1.67,-1.68
132.46,1.80,3.51,1.80,3.52,-3.51,-3.42,-3.54,-1.71,-1.71,-1.71
133.79,1.81,3.55,1.81,3.55,-3.55,-3.49,-3.53,-1.74,-1.74,-1.74
135.12,1.81,3.59,1.81,3.59,-3.59,-3.55,-3.51,-1.77,-1.77,-1.77
136.48,1.81,3.62,1.81,3.62,-3.62,-3.60,-3.49,-1.81,-1.81,-1.80
137.84,1.81,3.64,1.82,3.65,-3.65,-3.66,-3.47,-1.84,-1.83,-1.82
139.22,1.82,3.68,1.82,3.68,-3.67,-3.71,-3.45,-1.85,-1.85,-1.85
140.61,1.82,3.71,1.82,3.70,-3.70,-3.76,-3.42,-1.87,-1.87,-1.88
142.02,1.82,3.72,1.82,3.72,-3.72,-3.81,-3.39,-1.90,-1.90,-1.90
143.44,1.81,3.73,1.81,3.74,-3.74,-3.85,-3.36,-1.92,-1.92,-1.92
144.87,1.80,3.75,1.81,3.75,-3.75,-3.89,-3.32,-1.95,-1.95,-1.95
146.32,1.80,3.77,1.80,3.76,-3.77,-3.92,-3.29,-1.97,-1.97,-1.96
147.78,1.79,3.77,1.80,3.78,-3.78,-3.96,-3.25,-1.99,-1.99,-1.98
149.26,1.79,3.80,1.79,3.79,-3.79,-3.99,-3.22,-2.00,-2.00,-2.01
150.75,1.78,3.80,1.78,3.80,-3.80,-4.01,-3.18,-2.02,-2.02,-2.02
152.26,1.77,3.81,1.77,3.81,-3.81,-4.03,-3.15,-2.04,-2.03,-2.04
153.78,1.76,3.81,1.77,3.82,-3.82,-4.05,-3.11,-2.05,-2.05,-2.05
155.32,1.76,3.83,1.76,3.82,-3.82,-4.06,-3.08,-2.06,-2.06,-2.06
156.88,1.75,3.83,1.75,3.82,-3.83,-4.07,-3.04,-2.07,-2.08,-2.07
158.44,1.73,3.82,1.74,3.83,-3.83,-4.08,-3.01,-2.10,-2.09,-2.09
160.03,1.73,3.83,1.73,3.83,-3.83,-4.08,-2.98,-2.10,-2.10,-2.10
161.63,1.72,3.83,1.72,3.83,-3.83,-4.08,-2.95,-2.11,-2.11,-2.11
163.24,1.71,3.83,1.71,3.83,-3.83,-4.07,-2.92,-2.12,-2.12,-2.12
164.88,1.70,3.83,1.70,3.83,-3.83,-4.06,-2.89,-2.13,-2.13,-2.13
166.53,1.68,3.82,1.68,3.82,-3.82,-4.05,-2.87,-2.14,-2.14,-2.14
168.19,1.66,3.81,1.66,3.81,-3.81,-4.03,-2.84,-2.14,-2.14,-2.15
169.87,1.63,3.79,1.63,3.79,-3.79,-4.01,-2.82,-2.15,-2.15,-2.16
171.57,1.60,3.78,1.60,3.77,-3.76,-3.98,-2.81,-2.16,-2.16,-2.17
173.29,1.55,3.73,1.56,3.74,-3.73,-3.95,-2.79,-2.18,-2.17,-2.18
175.02,1.51,3.70,1.51,3.70,-3.70,-3.92,-2.77,-2.18,-2.19,-2.19
176.77,1.46,3.67,1.46,3.66,-3.66,-3.89,-2.76,-2.20,-2.20,-2.20
178.54,1.41,3.62,1.41,3.62,-3.63,-3.85,-2.75,-2.22,-2.22,-2.21
180.32,1.36,3.59,1.36,3.59,-3.60,-3.81,-2.75,-2.23,-2.23,-2.22
182.13,1.32,3.56,1.32,3.56,-3.57,-3.77,-2.74,-2.24,-2.24,-2.24
183.95,1.28,3.54,1.28,3.54,-3.54,-3.73,-2.74,-2.26,-2.26,-2.25
185.79,1.25,3.52,1.25,3.52,-3.52,-3.68,-2.74,-2.27,-2.27,-2.27
187.65,1.22,3.50,1.22,3.50,-3.51,-3.63,-2.74,-2.28,-2.28,-2.28
189.52,1.19,3.49,1.20,3.49,-3.49,-3.58,-2.74,-2.30,-2.29,-2.29
191.42,1.18,3.49,1.18,3.48,-3.48,-3.53,-2.74,-2.30,-2.30,-2.30
193.33,1.16,3.48,1.16,3.48,-3.48,-3.48,-2.75,-2.31,-2.32,-2.32
195.27,1.14,3.47,1.14,3.47,-3.47,-3.43,-2.76,-2.33,-2.33,-2.33
197.22,1.11,3.46,1.12,3.46,-3.46,-3.37,-2.77,-2.35,-2.34,-2.35
199.19,1.09,3.45,1.09,3.45,-3.45,-3.32,-2.78,-2.36,-2.36,-2.36
201.18,1.06,3.44,1.06,3.44,-3.44,-3.26,-2.79,-2.38,-2.38,-2.38
203.19,1.02,3.41,1.03,3.42,-3.42,-3.21,-2.81,-2.40,-2.40,-2.39
205.23,0.99,3.40,0.99,3.40,-3.40,-3.15,-2.82,-2.41,-2.41,-2.41
207.28,0.96,3.38,0.96,3.38,-3.38,-3.09,-2.84,-2.42,-2.42,-2.42
209.35,0.91,3.35,0.92,3.36,-3.35,-3.03,-2.85,-2.44,-2.43,-2.44
211.44,0.87,3.33,0.87,3.33,-3.32,-2.98,-2.87,-2.45,-2.45,-2.46
213.56,0.81,3.28,0.81,3.28,-3.28,-2.92,-2.89,-2.47,-2.47,-2.47
215.69,0.75,3.24,0.75,3.24,-3.24,-2.86,-2.90,-2.48,-2.48,-2.49
217.85,0.68,3.18,0.69,3.19,-3.19,-2.81,-2.92,-2.51,-2.50,-2.49
220.03,0.63,3.14,0.63,3.14,-3.14,-2.75,-2.93,-2.51,-2.51,-2.51
222.23,0.56,3.08,0.57,3.08,-3.09,-2.69,-2.95,-2.52,-2.52,-2.52
224.45,0.50,3.03,0.50,3.03,-3.03,-2.64,-2.96,-2.53,-2.53,-2.53
226.70,0.43,2.97,0.43,2.97,-2.97,-2.58,-2.97,-2.54,-2.54,-2.53
228.96,0.36,2.90,0.36,2.90,-2.90,-2.53,-2.98,-2.54,-2.54,-2.54
231.25,0.29,2.84,0.29,2.84,-2.84,-2.48,-2.99,-2.54,-2.54,-2.55
233.57,0.22,2.77,0.22,2.77,-2.76,-2.42,-2.99,-2.54,-2.54,-2.54
235.90,0.14,2.69,0.14,2.69,-2.68,-2.37,-2.99,-2.54,-2.54,-2.55
238.26,0.06,2.61,0.06,2.61,-2.60,-2.32,-2.99,-2.54,-2.54,-2.54
240.64,-0.03,2.51,-0.03,2.52,-2.51,-2.27,-2.99,-2.54,-2.54,-2.54
243.05,-0.12,2.43,-0.12,2.42,-2.42,-2.22,-2.98,-2.54,-2.54,-2.54
245.48,-0.22,2.32,-0.21,2.32,-2.32,-2.17,-2.96,-2.54,-2.54,-2.54
247.93,-0.31,2.23,-0.30,2.23,-2.23,-2.12,-2.95,-2.54,-2.54,-2.53
250.41,-0.39,2.14,-0.39,2.14,-2.15,-2.07,-2.93,-2.53,-2.54,-2.53
252.92,-0.47,2.07,-0.47,2.06,-2.06,-2.02,-2.91,-2.53,-2.54,-2.53
255.45,-0.56,1.97,-0.55,1.98,-1.99,-1.98,-2.88,-2.55,-2.54,-2.53
258.00,-0.62,1.91,-0.61,1.92,-1.92,-1.93,-2.85,-2.54,-2.54,-2.52
260.58,-0.66,1.87,-0.67,1.86,-1.87,-1.89,-2.82,-2.53,-2.53,-2.53
263.19,-0.71,1.82,-0.71,1.82,-1.82,-1.84,-2.78,-2.53,-2.53,-2.53
265.82,-0.75,1.78,-0.74,1.78,-1.78,-1.80,-2.74,-2.53,-2.53,-2.52
268.48,-0.78,1.75,-0.78,1.75,-1.75,-1.76,-2.69,-2.53,-2.53,-2.53
271.16,-0.81,1.72,-0.81,1.72,-1.72,-1.71,-2.64,-2.53,-2.53,-2.53
273.87,-0.84,1.70,-0.83,1.70,-1.69,-1.67,-2.59,-2.53,-2.53,-2.54
276.61,-0.86,1.67,-0.86,1.68,-1.67,-1.63,-2.54,-2.53,-2.53,-2.53
279.38,-0.88,1.65,-0.88,1.65,-1.65,-1.60,-2.49,-2.53,-2.53,-2.53
282.17,-0.90,1.64,-0.90,1.63,-1.63,-1.56,-2.43,-2.52,-2.53,-2.53
284.99,-0.93,1.60,-0.92,1.61,-1.61,-1.52,-2.37,-2.53,-2.53,-2.53
287.84,-0.95,1.58,-0.94,1.59,-1.59,-1.48,-2.31,-2.54,-2.53,-2.53
290.72,-0.95,1.58,-0.96,1.57,-1.57,-1.45,-2.25,-2.52,-2.53,-2.52
293.63,-0.97,1.56,-0.97,1.56,-1.56,-1.41,-2.18,-2.53,-2.53,-2.53
296.57,-0.98,1.54,-0.97,1.55,-1.55,-1.38,-2.12,-2.53,-2.52,-2.52
299.53,-0.98,1.54,-0.98,1.54,-1.54,-1.34,-2.05,-2.52,-2.52,-2.52
302.53,-0.98,1.54,-0.98,1.53,-1.54,-1.31,-1.99,-2.51,-2.51,-2.51
305.55,-0.98,1.53,-0.97,1.53,-1.53,-1.28,-1.92,-2.51,-2.51,-2.51
308.61,-0.97,1.53,-0.97,1.53,-1.53,-1.25,-1.85,-2.50,-2.50,-2.50
311.69,-0.97,1.52,-0.96,1.53,-1.52,-1.21,-1.79,-2.49,-2.49,-2.49
314.81,-0.96,1.52,-0.96,1.52,-1.52,-1.18,-1.72,-2.48,-2.48,-2.48
317.96,-0.96,1.52,-0.96,1.52,-1.51,-1.15,-1.66,-2.47,-2.47,-2.47
321.14,-0.96,1.51,-0.96,1.51,-1.50,-1.13,-1.59,-2.46,-2.46,-2.46
324.35,-0.97,1.49,-0.97,1.49,-1.49,-1.10,-1.52,-2.46,-2.46,-2.46
327.59,-0.98,1.47,-0.98,1.47,-1.48,-1.07,-1.46,-2.45,-2.45,-2.45
330.87,-0.99,1.46,-0.99,1.46,-1.46,-1.04,-1.40,-2.45,-2.45,-2.45
334.18,-1.01,1.43,-1.00,1.44,-1.44,-1.01,-1.33,-2.45,-2.44,-2.44
337.52,-1.02,1.43,-1.02,1.42,-1.42,-0.99,-1.27,-2.44,-2.44,-2.44
340.90,-1.04,1.40,-1.04,1.40,-1.40,-0.96,-1.21,-2.44,-2.44,-2.43
344.30,-1.06,1.38,-1.06,1.38,-1.38,-0.94,-1.14,-2.43,-2.44,-2.44
347.75,-1.09,1.35,-1.08,1.35,-1.35,-0.91,-1.08,-2.44,-2.44,-2.44
351.23,-1.11,1.33,-1.11,1.33,-1.33,-0.89,-1.02,-2.44,-2.44,-2.44
354.74,-1.14,1.30,-1.14,1.31,-1.31,-0.86,-0.96,-2.44,-2.44,-2.44
358.28,-1.17,1.28,-1.17,1.28,-1.28,-0.84,-0.90,-2.45,-2.45,-2.45
361.87,-1.20,1.25,-1.20,1.25,-1.25,-0.81,-0.85,-2.45,-2.45,-2.45
365.49,-1.23,1.23,-1.23,1.23,-1.22,-0.79,-0.79,-2.45,-2.45,-2.45
369.14,-1.26,1.20,-1.26,1.20,-1.20,-0.77,-0.73,-2.45,-2.45,-2.45
372.83,-1.29,1.17,-1.29,1.16,-1.16,-0.75,-0.68,-2.45,-2.45,-2.45
376.56,-1.32,1.13,-1.32,1.13,-1.13,-0.72,-0.62,-2.45,-2.45,-2.45
380.33,-1.36,1.09,-1.35,1.10,-1.10,-0.70,-0.57,-2.45,-2.45,-2.45
384.13,-1.38,1.07,-1.38,1.06,-1.06,-0.68,-0.51,-2.44,-2.44,-2.45
387.97,-1.42,1.02,-1.42,1.03,-1.03,-0.66,-0.46,-2.44,-2.44,-2.44
391.85,-1.45,0.99,-1.45,0.99,-0.99,-0.64,-0.41,-2.44,-2.44,-2.44
395.77,-1.48,0.95,-1.48,0.95,-0.96,-0.62,-0.36,-2.43,-2.43,-2.43
399.73,-1.50,0.92,-1.50,0.92,-0.92,-0.60,-0.31,-2.42,-2.43,-2.42
403.72,-1.53,0.89,-1.53,0.89,-0.89,-0.58,-0.26,-2.42,-2.42,-2.42
407.76,-1.55,0.87,-1.55,0.86,-0.87,-0.56,-0.21,-2.41,-2.41,-2.41
411.84,-1.57,0.84,-1.57,0.84,-0.84,-0.54,-0.16,-2.41,-2.41,-2.40
415.96,-1.58,0.82,-1.58,0.82,-0.82,-0.52,-0.12,-2.40,-2.40,-2.39
420.12,-1.59,0.81,-1.59,0.80,-0.80,-0.50,-0.07,-2.39,-2.39,-2.39
424.32,-1.60,0.79,-1.60,0.79,-0.79,-0.48,-0.03,-2.39,-2.39,-2.38
428.56,-1.61,0.77,-1.60,0.77,-0.77,-0.46,0.02,-2.38,-2.38,-2.38
432.85,-1.61,0.76,-1.61,0.76,-0.76,-0.44,0.06,-2.37,-2.37,-2.37
437.18,-1.61,0.75,-1.61,0.75,-0.75,-0.42,0.10,-2.35,-2.36,-2.36
441.55,-1.61,0.74,-1.61,0.74,-0.73,-0.40,0.13,-2.34,-2.34,-2.35
445.96,-1.62,0.72,-1.62,0.72,-0.71,-0.38,0.17,-2.33,-2.33,-2.34
450.42,-1.63,0.70,-1.63,0.70,-0.69,-0.37,0.21,-2.32,-2.32,-2.33
454.93,-1.65,0.67,-1.65,0.67,-0.67,-0.35,0.24,-2.32,-2.32,-2.32
459.48,-1.67,0.64,-1.67,0.64,-0.64,-0.33,0.27,-2.31,-2.31,-2.31
464.07,-1.69,0.61,-1.69,0.61,-0.62,-0.31,0.30,-2.30,-2.30,-2.30
468.71,-1.71,0.58,-1.71,0.58,-0.59,-0.29,0.32,-2.29,-2.29,-2.29
473.40,-1.73,0.55,-1.73,0.55,-0.56,-0.27,0.35,-2.28,-2.28,-2.28
478.13,-1.74,0.53,-1.74,0.52,-0.52,-0.25,0.37,-2.26,-2.27,-2.27
482.91,-1.77,0.48,-1.76,0.49,-0.49,-0.23,0.39,-2.26,-2.25,-2.25
