frequency,raw,error,smoothed,error_smoothed,equalization,parametric_eq,fixed_band_eq,equalized_raw,equalized_smoothed,target
20.00,-3.92,-3.94,-3.92,-3.94,3.94,3.93,1.80,0.02,0.02,0.02
20.20,-3.87,-3.98,-3.88,-3.98,3.98,3.95,1.86,0.11,0.11,0.11
20.40,-3.83,-4.03,-3.83,-4.02,4.02,3.96,1.91,0.19,0.19,0.20
20.61,-3.78,-4.05,-3.78,-4.06,4.06,3.98,1.97,0.27,0.27,0.26
20.81,-3.73,-4.09,-3.74,-4.09,4.09,4.00,2.02,0.36,0.35,0.36
21.02,-3.69,-4.13,-3.69,-4.12,4.11,4.01,2.08,0.42,0.42,0.44
21.23,-3.64,-4.14,-3.64,-4.14,4.14,4.03,2.14,0.49,0.49,0.50
21.44,-3.59,-4.15,-3.59,-4.15,4.15,4.04,2.21,0.56,0.56,0.56
21.66,-3.54,-4.17,-3.55,-4.16,4.17,4.05,2.27,0.62,0.62,0.62
21.87,-3.50,-4.18,-3.50,-4.17,4.17,4.07,2.34,0.67,0.68,0.68
22.09,-3.45,-4.18,-3.45,-4.18,4.18,4.08,2.41,0.73,0.73,0.72
22.31,-3.40,-4.18,-3.41,-4.18,4.18,4.09,2.48,0.78,0.77,0.77
22.54,-3.36,-4.19,-3.36,-4.18,4.18,4.10,2.55,0.81,0.82,0.82
22.76,-3.31,-4.18,-3.31,-4.17,4.17,4.11,2.62,0.86,0.86,0.86
22.99,-3.26,-4.17,-3.26,-4.17,4.17,4.11,2.70,0.91,0.91,0.90
23.22,-3.21,-4.15,-3.21,-4.16,4.16,4.12,2.78,0.95,0.95,0.94
23.45,-3.16,-4.15,-3.16,-4.15,4.16,4.13,2.86,1.00,0.99,0.99
23.69,-3.11,-4.14,-3.12,-4.15,4.15,4.13,2.94,1.04,1.03,1.03
23.92,-3.07,-4.14,-3.07,-4.14,4.14,4.13,3.02,1.07,1.08,1.07
24.16,-3.02,-4.14,-3.02,-4.14,4.14,4.14,3.10,1.11,1.11,1.12
24.40,-2.97,-4.13,-2.98,-4.13,4.13,4.14,3.19,1.16,1.15,1.16
24.65,-2.93,-4.12,-2.93,-4.12,4.12,4.14,3.27,1.19,1.19,1.19
24.89,-2.88,-4.11,-2.88,-4.11,4.11,4.14,3.36,1.23,1.23,1.23
25.14,-2.83,-4.10,-2.83,-4.10,4.10,4.14,3.45,1.27,1.27,1.27
25.39,-2.78,-4.09,-2.79,-4.09,4.09,4.14,3.54,1.31,1.31,1.31
25.65,-2.74,-4.09,-2.74,-4.08,4.08,4.14,3.63,1.34,1.34,1.35
25.91,-2.69,-4.07,-2.69,-4.07,4.07,4.13,3.71,1.38,1.38,1.38
26.16,-2.64,-4.06,-2.64,-4.06,4.06,4.13,3.80,1.42,1.42,1.42
26.43,-2.59,-4.04,-2.60,-4.05,4.05,4.12,3.89,1.45,1.45,1.45
26.69,-2.55,-4.04,-2.55,-4.03,4.03,4.11,3.97,1.48,1.49,1.49
26.96,-2.50,-4.03,-2.50,-4.02,4.02,4.11,4.06,1.52,1.52,1.52
27.23,-2.45,-4.01,-2.45,-4.01,4.01,4.10,4.14,1.55,1.55,1.55
27.50,-2.40,-4.00,-2.40,-3.99,3.99,4.09,4.22,1.59,1.59,1.59
27.77,-2.35,-3.98,-2.35,-3.98,3.98,4.08,4.29,1.63,1.63,1.62
28.05,-2.30,-3.96,-2.30,-3.96,3.96,4.07,4.36,1.66,1.66,1.66
28.33,-2.26,-3.94,-2.26,-3.95,3.95,4.05,4.43,1.69,1.69,1.68
28.62,-2.21,-3.93,-2.22,-3.94,3.94,4.04,4.50,1.72,1.72,1.72
28.90,-2.17,-3.93,-2.17,-3.93,3.92,4.03,4.55,1.75,1.75,1.76
29.19,-2.12,-3.91,-2.12,-3.92,3.91,4.01,4.61,1.79,1.79,1.79
29.48,-2.07,-3.91,-2.07,-3.90,3.90,4.00,4.65,1.83,1.83,1.84
29.78,-2.03,-3.89,-2.03,-3.89,3.90,3.98,4.69,1.86,1.87,1.86
30.08,-1.98,-3.88,-1.99,-3.88,3.89,3.96,4.72,1.90,1.90,1.90
30.38,-1.95,-3.88,-1.95,-3.88,3.88,3.94,4.75,1.93,1.93,1.92
30.68,-1.91,-3.88,-1.92,-3.87,3.87,3.92,4.77,1.96,1.96,1.96
30.99,-1.88,-3.86,-1.88,-3.87,3.86,3.90,4.78,1.98,1.98,1.98
31.30,-1.84,-3.86,-1.84,-3.86,3.85,3.88,4.78,2.01,2.01,2.02
31.61,-1.79,-3.84,-1.80,-3.84,3.84,3.86,4.77,2.05,2.05,2.05
31.93,-1.75,-3.83,-1.75,-3.83,3.83,3.84,4.76,2.08,2.08,2.08
32.24,-1.71,-3.81,-1.71,-3.81,3.82,3.81,4.74,2.10,2.11,2.10
32.57,-1.67,-3.80,-1.67,-3.80,3.80,3.79,4.71,2.13,2.13,2.13
32.89,-1.62,-3.79,-1.63,-3.78,3.78,3.76,4.68,2.16,2.16,2.16
33.22,-1.58,-3.77,-1.58,-3.76,3.76,3.74,4.64,2.18,2.18,2.18
33.55,-1.54,-3.74,-1.54,-3.74,3.74,3.71,4.59,2.20,2.21,2.20
33.89,-1.49,-3.71,-1.50,-3.72,3.72,3.68,4.54,2.23,2.23,2.22
34.23,-1.45,-3.70,-1.45,-3.70,3.70,3.65,4.48,2.25,2.25,2.25
34.57,-1.41,-3.68,-1.41,-3.68,3.67,3.62,4.41,2.26,2.26,2.27
34.92,-1.37,-3.65,-1.37,-3.66,3.65,3.60,4.35,2.27,2.27,2.27
35.27,-1.33,-3.63,-1.33,-3.62,3.62,3.56,4.28,2.29,2.29,2.30
35.62,-1.28,-3.59,-1.28,-3.59,3.59,3.53,4.20,2.31,2.31,2.31
35.97,-1.23,-3.55,-1.24,-3.56,3.56,3.50,4.13,2.33,2.33,2.32
36.33,-1.19,-3.53,-1.19,-3.52,3.53,3.47,4.05,2.34,2.34,2.34
36.70,-1.15,-3.50,-1.15,-3.50,3.50,3.44,3.97,2.35,2.35,2.34
37.06,-1.11,-3.46,-1.12,-3.47,3.47,3.40,3.89,2.36,2.36,2.35
37.43,-1.08,-3.45,-1.08,-3.45,3.44,3.37,3.81,2.36,2.36,2.37
37.81,-1.04,-3.42,-1.04,-3.42,3.41,3.34,3.73,2.37,2.37,2.38
38.19,-1.00,-3.39,-1.00,-3.39,3.38,3.30,3.64,2.37,2.38,2.38
38.57,-0.95,-3.34,-0.96,-3.34,3.34,3.27,3.56,2.39,2.38,2.39
38.95,-0.91,-3.30,-0.91,-3.30,3.30,3.23,3.48,2.39,2.39,2.39
39.34,-0.87,-3.26,-0.87,-3.26,3.26,3.19,3.40,2.39,2.39,2.39
39.74,-0.83,-3.22,-0.83,-3.22,3.23,3.16,3.32,2.39,2.39,2.39
40.14,-0.79,-3.18,-0.79,-3.18,3.19,3.12,3.25,2.39,2.39,2.39
40.54,-0.75,-3.14,-0.76,-3.14,3.15,3.08,3.17,2.39,2.39,2.39
40.94,-0.72,-3.11,-0.72,-3.11,3.11,3.04,3.10,2.39,2.39,2.39
41.35,-0.68,-3.07,-0.68,-3.07,3.07,3.01,3.02,2.39,2.39,2.39
41.76,-0.64,-3.04,-0.64,-3.04,3.03,2.97,2.95,2.39,2.39,2.39
42.18,-0.60,-3.00,-0.60,-3.00,3.00,2.93,2.89,2.39,2.40,2.40
42.60,-0.55,-2.95,-0.55,-2.96,2.95,2.89,2.82,2.40,2.40,2.40
43.03,-0.51,-2.91,-0.51,-2.91,2.91,2.85,2.75,2.40,2.40,2.40
43.46,-0.47,-2.87,-0.48,-2.87,2.87,2.81,2.69,2.40,2.39,2.40
43.90,-0.44,-2.83,-0.44,-2.83,2.82,2.77,2.63,2.38,2.38,2.38
44.33,-0.40,-2.78,-0.40,-2.78,2.78,2.73,2.57,2.38,2.38,2.38
44.78,-0.35,-2.73,-0.36,-2.73,2.73,2.69,2.52,2.38,2.37,2.37
45.23,-0.31,-2.68,-0.31,-2.68,2.69,2.65,2.46,2.37,2.37,2.37
45.68,-0.27,-2.64,-0.27,-2.64,2.64,2.60,2.41,2.37,2.37,2.36
46.13,-0.23,-2.59,-0.23,-2.59,2.60,2.56,2.36,2.36,2.36,2.36
46.60,-0.19,-2.56,-0.19,-2.55,2.55,2.52,2.31,2.36,2.36,2.36
47.06,-0.14,-2.51,-0.14,-2.51,2.51,2.48,2.27,2.37,2.36,2.37
47.53,-0.10,-2.46,-0.10,-2.47,2.46,2.43,2.22,2.36,2.36,2.36
48.01,-0.05,-2.43,-0.06,-2.42,2.42,2.39,2.18,2.37,2.36,2.37
48.49,-0.02,-2.38,-0.02,-2.38,2.38,2.35,2.14,2.35,2.36,2.36
48.97,0.02,-2.33,0.02,-2.33,2.33,2.31,2.10,2.35,2.35,2.35
49.46,0.06,-2.29,0.06,-2.29,2.29,2.26,2.07,2.35,2.34,2.34
49.96,0.10,-2.24,0.10,-2.25,2.25,2.22,2.03,2.34,2.35,2.34
50.46,0.15,-2.21,0.15,-2.20,2.20,2.18,2.00,2.35,2.35,2.36
50.96,0.20,-2.16,0.19,-2.16,2.17,2.13,1.96,2.36,2.36,2.36
51.47,0.24,-2.11,0.24,-2.12,2.13,2.09,1.93,2.37,2.37,2.35
51.99,0.28,-2.09,0.28,-2.09,2.09,2.04,1.90,2.37,2.37,2.36
52.51,0.32,-2.06,0.31,-2.06,2.06,2.00,1.87,2.37,2.37,2.38
53.03,0.35,-2.04,0.35,-2.03,2.02,1.96,1.84,2.37,2.38,2.39
53.56,0.40,-1.99,0.40,-1.99,1.99,1.91,1.81,2.38,2.38,2.39
54.10,0.44,-1.95,0.44,-1.95,1.95,1.87,1.78,2.39,2.39,2.39
54.64,0.49,-1.91,0.49,-1.91,1.91,1.82,1.76,2.40,2.40,2.40
55.18,0.53,-1.87,0.53,-1.86,1.87,1.78,1.73,2.40,2.40,2.40
55.74,0.58,-1.82,0.57,-1.82,1.83,1.73,1.70,2.40,2.40,2.40
56.29,0.62,-1.78,0.61,-1.78,1.78,1.69,1.67,2.40,2.39,2.39
56.86,0.65,-1.75,0.65,-1.73,1.73,1.64,1.64,2.38,2.39,2.39
57.42,0.70,-1.68,0.70,-1.69,1.68,1.60,1.62,2.38,2.38,2.38
58.00,0.75,-1.63,0.75,-1.63,1.63,1.55,1.59,2.38,2.38,2.38
58.58,0.80,-1.58,0.80,-1.58,1.58,1.51,1.56,2.38,2.38,2.38
59.16,0.85,-1.52,0.85,-1.53,1.52,1.46,1.53,2.37,2.37,2.37
59.76,0.90,-1.47,0.90,-1.47,1.46,1.41,1.49,2.36,2.36,2.37
60.35,0.95,-1.41,0.95,-1.41,1.40,1.37,1.46,2.35,2.35,2.35
60.96,1.00,-1.34,1.00,-1.34,1.33,1.32,1.43,2.33,2.33,2.34
61.57,1.05,-1.27,1.05,-1.27,1.27,1.28,1.39,2.32,2.32,2.32
62.18,1.10,-1.19,1.10,-1.20,1.20,1.23,1.35,2.30,2.30,2.29
62.80,1.15,-1.14,1.15,-1.13,1.14,1.18,1.31,2.28,2.28,2.28
63.43,1.20,-1.06,1.20,-1.06,1.07,1.14,1.27,2.27,2.27,2.26
64.07,1.25,-1.00,1.25,-1.00,1.01,1.09,1.23,2.25,2.25,2.25
64.71,1.30,-0.95,1.30,-0.94,0.94,1.04,1.19,2.24,2.24,2.24
65.35,1.35,-0.89,1.35,-0.89,0.89,1.00,1.14,2.23,2.23,2.24
66.01,1.40,-0.83,1.40,-0.83,0.83,0.95,1.10,2.23,2.23,2.23
66.67,1.45,-0.77,1.45,-0.77,0.77,0.90,1.05,2.22,2.22,2.22
67.33,1.50,-0.72,1.50,-0.72,0.72,0.86,1.00,2.22,2.22,2.22
68.01,1.55,-0.67,1.55,-0.67,0.67,0.81,0.95,2.21,2.21,2.22
68.69,1.60,-0.62,1.60,-0.62,0.62,0.76,0.90,2.21,2.21,2.22
69.37,1.65,-0.57,1.65,-0.56,0.57,0.72,0.85,2.22,2.22,2.22
70.07,1.71,-0.51,1.70,-0.51,0.52,0.67,0.79,2.23,2.22,2.21
70.77,1.76,-0.46,1.75,-0.46,0.47,0.62,0.74,2.23,2.22,2.22
71.48,1.80,-0.42,1.80,-0.42,0.42,0.57,0.68,2.22,2.22,2.22
72.19,1.84,-0.38,1.84,-0.38,0.37,0.53,0.62,2.21,2.21,2.21
72.91,1.88,-0.33,1.88,-0.32,0.32,0.48,0.56,2.20,2.20,2.21
73.64,1.94,-0.26,1.94,-0.27,0.27,0.43,0.50,2.20,2.20,2.20
74.38,1.99,-0.21,1.99,-0.21,0.21,0.38,0.44,2.20,2.20,2.20
75.12,2.04,-0.16,2.04,-0.16,0.16,0.33,0.38,2.20,2.20,2.19
75.87,2.08,-0.12,2.08,-0.11,0.11,0.28,0.32,2.19,2.19,2.20
76.63,2.13,-0.06,2.13,-0.06,0.06,0.24,0.26,2.19,2.19,2.19
77.40,2.18,-0.02,2.18,-0.01,0.01,0.19,0.20,2.19,2.19,2.19
78.17,2.23,0.04,2.23,0.04,-0.03,0.14,0.13,2.20,2.20,2.18
78.95,2.28,0.08,2.28,0.08,-0.07,0.09,0.07,2.20,2.20,2.20
79.74,2.32,0.11,2.32,0.11,-0.11,0.04,0.00,2.21,2.21,2.21
80.54,2.36,0.14,2.36,0.14,-0.14,-0.01,-0.06,2.21,2.21,2.22
81.35,2.40,0.17,2.40,0.17,-0.17,-0.06,-0.13,2.23,2.23,2.23
82.16,2.44,0.20,2.44,0.20,-0.19,-0.11,-0.19,2.24,2.24,2.23
82.98,2.48,0.22,2.48,0.22,-0.21,-0.16,-0.26,2.27,2.26,2.26
83.81,2.51,0.24,2.51,0.24,-0.23,-0.21,-0.33,2.28,2.28,2.27
84.65,2.54,0.26,2.53,0.25,-0.25,-0.26,-0.39,2.29,2.29,2.28
85.50,2.56,0.24,2.56,0.26,-0.27,-0.31,-0.46,2.29,2.30,2.31
86.35,2.60,0.27,2.60,0.27,-0.29,-0.36,-0.53,2.31,2.31,2.33
87.22,2.65,0.30,2.65,0.30,-0.31,-0.41,-0.60,2.34,2.33,2.35
88.09,2.70,0.35,2.70,0.34,-0.34,-0.47,-0.67,2.36,2.36,2.35
88.97,2.75,0.37,2.75,0.38,-0.37,-0.52,-0.74,2.38,2.38,2.38
89.86,2.80,0.42,2.79,0.42,-0.41,-0.57,-0.81,2.39,2.39,2.38
90.76,2.84,0.46,2.84,0.46,-0.45,-0.62,-0.88,2.39,2.38,2.37
91.66,2.88,0.49,2.88,0.50,-0.50,-0.67,-0.96,2.38,2.38,2.39
92.58,2.92,0.55,2.92,0.55,-0.55,-0.73,-1.03,2.36,2.37,2.37
93.51,2.98,0.61,2.97,0.60,-0.61,-0.78,-1.10,2.36,2.36,2.37
94.44,3.03,0.66,3.03,0.67,-0.68,-0.83,-1.18,2.35,2.35,2.36
95.39,3.09,0.74,3.09,0.74,-0.75,-0.89,-1.25,2.34,2.34,2.35
96.34,3.15,0.83,3.14,0.82,-0.82,-0.94,-1.33,2.33,2.32,2.32
97.30,3.20,0.91,3.20,0.90,-0.90,-0.99,-1.40,2.30,2.30,2.29
98.28,3.24,0.98,3.24,0.98,-0.97,-1.05,-1.48,2.26,2.27,2.26
99.26,3.29,1.05,3.28,1.06,-1.05,-1.10,-1.55,2.24,2.24,2.23
100.25,3.33,1.13,3.33,1.13,-1.12,-1.16,-1.63,2.20,2.20,2.19
101.25,3.36,1.20,3.36,1.21,-1.20,-1.21,-1.70,2.16,2.17,2.15
102.27,3.40,1.27,3.39,1.27,-1.27,-1.27,-1.78,2.13,2.12,2.13
103.29,3.42,1.34,3.42,1.33,-1.34,-1.32,-1.85,2.07,2.07,2.08
104.32,3.44,1.39,3.45,1.40,-1.42,-1.38,-1.93,2.02,2.03,2.05
105.37,3.49,1.48,3.49,1.48,-1.50,-1.43,-2.00,1.99,1.99,2.01
106.42,3.55,1.57,3.54,1.57,-1.58,-1.49,-2.07,1.97,1.97,1.98
107.48,3.60,1.66,3.60,1.66,-1.65,-1.55,-2.15,1.94,1.94,1.94
108.56,3.65,1.75,3.65,1.75,-1.73,-1.60,-2.22,1.92,1.91,1.90
109.64,3.69,1.83,3.69,1.82,-1.81,-1.66,-2.28,1.88,1.88,1.86
110.74,3.72,1.89,3.72,1.89,-1.89,-1.71,-2.35,1.83,1.84,1.83
111.85,3.76,1.95,3.75,1.95,-1.96,-1.77,-2.41,1.80,1.80,1.81
112.97,3.79,2.02,3.79,2.02,-2.02,-1.83,-2.48,1.76,1.77,1.76
114.10,3.83,2.08,3.83,2.09,-2.09,-1.88,-2.54,1.74,1.74,1.74
115.24,3.87,2.15,3.86,2.15,-2.15,-1.94,-2.59,1.72,1.71,1.72
116.39,3.90,2.20,3.90,2.20,-2.21,-2.00,-2.64,1.69,1.69,1.70
117.55,3.93,2.26,3.94,2.26,-2.26,-2.05,-2.69,1.67,1.68,1.67
118.73,3.98,2.32,3.98,2.32,-2.31,-2.11,-2.74,1.67,1.67,1.65
119.92,4.02,2.37,4.01,2.37,-2.36,-2.16,-2.78,1.66,1.65,1.65
121.12,4.04,2.41,4.04,2.41,-2.40,-2.22,-2.82,1.64,1.64,1.63
122.33,4.05,2.43,4.05,2.44,-2.44,-2.28,-2.85,1.61,1.61,1.61
123.55,4.07,2.46,4.07,2.47,-2.48,-2.33,-2.88,1.59,1.60,1.61
124.79,4.10,2.51,4.10,2.50,-2.51,-2.39,-2.91,1.58,1.58,1.59
126.03,4.13,2.55,4.12,2.54,-2.55,-2.44,-2.93,1.58,1.57,1.58
127.29,4.15,2.58,4.15,2.59,-2.59,-2.50,-2.94,1.56,1.56,1.57
128.57,4.18,2.63,4.18,2.63,-2.63,-2.55,-2.96,1.55,1.56,1.55
129.85,4.22,2.68,4.21,2.67,-2.67,-2.60,-2.96,1.55,1.54,1.53
131.15,4.24,2.72,4.24,2.71,-2.71,-2.66,-2.97,1.53,1.53,1.52
132.46,4.26,2.75,4.26,2.75,-2.75,-2.71,-2.97,1.51,1.51,1.51
133.79,4.29,2.78,4.29,2.79,-2.79,-2.76,-2.97,1.49,1.49,1.51
135.12,4.32,2.84,4.31,2.83,-2.84,-2.81,-2.96,1.48,1.48,1.48
136.48,4.34,2.86,4.34,2.87,-2.88,-2.86,-2.95,1.46,1.46,1.47
137.84,4.38,2.92,4.37,2.92,-2.93,-2.91,-2.94,1.45,1.44,1.45
139.22,4.40,2.97,4.40,2.97,-2.97,-2.96,-2.93,1.42,1.43,1.42
140.61,4.44,3.03,4.43,3.02,-3.02,-3.01,-2.91,1.42,1.41,1.41
142.02,4.47,3.07,4.46,3.07,-3.06,-3.06,-2.89,1.40,1.40,1.40
143.44,4.48,3.10,4.49,3.11,-3.10,-3.10,-2.87,1.37,1.38,1.38
144.87,4.51,3.16,4.50,3.15,-3.14,-3.15,-2.85,1.37,1.36,1.35
146.32,4.52,3.19,4.51,3.18,-3.17,-3.19,-2.83,1.34,1.34,1.33
147.78,4.52,3.20,4.52,3.20,-3.20,-3.23,-2.81,1.32,1.31,1.32
149.26,4.51,3.21,4.51,3.22,-3.23,-3.27,-2.79,1.28,1.28,1.29
150.75,4.50,3.25,4.50,3.24,-3.25,-3.31,-2.77,1.25,1.25,1.25
152.26,4.50,3.27,4.50,3.27,-3.28,-3.35,-2.74,1.22,1.22,1.22
153.78,4.50,3.30,4.50,3.30,-3.30,-3.38,-2.72,1.20,1.20,1.20
155.32,4.50,3.33,4.50,3.33,-3.33,-3.41,-2.70,1.17,1.17,1.17
156.88,4.50,3.35,4.50,3.36,-3.36,-3.45,-2.68,1.14,1.14,1.14
158.44,4.50,3.39,4.50,3.39,-3.39,-3.48,-2.67,1.10,1.10,1.11
160.03,4.50,3.43,4.50,3.42,-3.43,-3.50,-2.65,1.07,1.07,1.07
161.63,4.50,3.46,4.50,3.46,-3.46,-3.53,-2.63,1.03,1.04,1.04
163.24,4.51,3.50,4.51,3.50,-3.50,-3.55,-2.62,1.01,1.01,1.01
164.88,4.52,3.53,4.51,3.53,-3.53,-3.57,-2.61,0.99,0.99,0.99
166.53,4.52,3.56,4.52,3.56,-3.55,-3.59,-2.60,0.97,0.96,0.96
168.19,4.51,3.59,4.51,3.58,-3.57,-3.61,-2.59,0.93,0.94,0.92
169.87,4.50,3.59,4.50,3.60,-3.59,-3.62,-2.58,0.91,0.91,0.90
171.57,4.48,3.60,4.48,3.60,-3.60,-3.63,-2.58,0.88,0.88,0.88
173.29,4.46,3.61,4.45,3.60,-3.60,-3.64,-2.58,0.86,0.85,0.85
175.02,4.42,3.59,4.42,3.60,-3.60,-3.65,-2.58,0.82,0.82,0.83
176.77,4.39,3.59,4.39,3.59,-3.59,-3.65,-2.58,0.80,0.80,0.80
178.54,4.36,3.59,4.36,3.58,-3.58,-3.65,-2.58,0.78,0.78,0.77
180.32,4.33,3.57,4.33,3.57,-3.57,-3.65,-2.59,0.76,0.76,0.76
182.13,4.30,3.55,4.30,3.55,-3.56,-3.65,-2.60,0.74,0.74,0.75
183.95,4.27,3.54,4.27,3.54,-3.54,-3.64,-2.61,0.73,0.73,0.73
185.79,4.24,3.52,4.24,3.53,-3.53,-3.63,-2.62,0.71,0.72,0.71
187.65,4.22,3.52,4.22,3.52,-3.51,-3.62,-2.63,0.71,0.71,0.70
189.52,4.19,3.50,4.19,3.50,-3.50,-3.61,-2.65,0.69,0.69,0.69
191.42,4.16,3.48,4.15,3.48,-3.49,-3.59,-2.67,0.67,0.67,0.67
193.33,4.12,3.46,4.12,3.46,-3.47,-3.57,-2.69,0.64,0.65,0.66
195.27,4.10,3.45,4.10,3.45,-3.46,-3.55,-2.71,0.63,0.64,0.65
197.22,4.08,3.44,4.08,3.45,-3.45,-3.53,-2.73,0.63,0.63,0.64
199.19,4.07,3.46,4.06,3.44,-3.44,-3.50,-2.75,0.63,0.63,0.61
201.18,4.04,3.43,4.04,3.43,-3.42,-3.47,-2.78,0.62,0.62,0.61
203.19,4.01,3.41,4.00,3.41,-3.40,-3.44,-2.80,0.61,0.61,0.60
205.23,3.96,3.38,3.96,3.37,-3.37,-3.41,-2.83,0.59,0.59,0.58
207.28,3.91,3.33,3.91,3.34,-3.34,-3.38,-2.86,0.57,0.57,0.58
209.35,3.86,3.30,3.85,3.30,-3.30,-3.34,-2.88,0.56,0.55,0.56
211.44,3.80,3.26,3.81,3.26,-3.26,-3.30,-2.91,0.53,0.54,0.54
213.56,3.76,3.22,3.76,3.21,-3.22,-3.27,-2.94,0.54,0.53,0.54
215.69,3.72,3.17,3.71,3.17,-3.18,-3.23,-2.96,0.54,0.53,0.54
217.85,3.66,3.12,3.67,3.14,-3.14,-3.18,-2.99,0.52,0.53,0.54
220.03,3.63,3.11,3.63,3.10,-3.09,-3.14,-3.01,0.54,0.53,0.52
222.23,3.59,3.08,3.58,3.06,-3.05,-3.10,-3.04,0.54,0.53,0.51
224.45,3.53,3.00,3.53,3.02,-3.01,-3.05,-3.06,0.52,0.52,0.52
226.70,3.48,2.96,3.47,2.96,-2.97,-3.01,-3.07,0.51,0.51,0.52
228.96,3.42,2.91,3.43,2.91,-2.93,-2.96,-3.09,0.49,0.50,0.51
231.25,3.39,2.87,3.39,2.88,-2.89,-2.91,-3.10,0.49,0.49,0.51
233.57,3.36,2.85,3.35,2.85,-2.86,-2.87,-3.11,0.50,0.50,0.51
235.90,3.32,2.82,3.32,2.83,-2.82,-2.82,-3.12,0.49,0.50,0.50
238.26,3.30,2.81,3.29,2.80,-2.79,-2.77,-3.12,0.51,0.50,0.49
240.64,3.26,2.77,3.26,2.77,-2.76,-2.73,-3.11,0.50,0.50,0.49
243.05,3.22,2.73,3.22,2.73,-2.72,-2.68,-3.11,0.50,0.50,0.48
245.48,3.18,2.69,3.17,2.69,-2.69,-2.63,-3.10,0.49,0.49,0.49
247.93,3.12,2.63,3.13,2.64,-2.65,-2.59,-3.08,0.47,0.48,0.48
250.41,3.09,2.61,3.09,2.60,-2.60,-2.55,-3.06,0.48,0.48,0.48
252.92,3.05,2.55,3.05,2.56,-2.56,-2.50,-3.03,0.49,0.49,0.49
255.45,3.03,2.52,3.02,2.52,-2.52,-2.46,-3.00,0.51,0.51,0.51
258.00,3.00,2.48,3.00,2.48,-2.48,-2.42,-2.97,0.52,0.52,0.52
260.58,2.97,2.45,2.97,2.44,-2.44,-2.39,-2.92,0.53,0.53,0.52
263.19,2.95,2.40,2.94,2.40,-2.40,-2.35,-2.88,0.55,0.54,0.55
265.82,2.91,2.35,2.92,2.36,-2.36,-2.32,-2.83,0.54,0.55,0.55
268.48,2.90,2.33,2.90,2.33,-2.33,-2.29,-2.78,0.57,0.57,0.57
271.16,2.89,2.30,2.88,2.30,-2.30,-2.26,-2.72,0.58,0.58,0.59
273.87,2.88,2.27,2.87,2.27,-2.28,-2.23,-2.66,0.60,0.60,0.60
276.61,2.86,2.24,2.86,2.25,-2.25,-2.21,-2.60,0.61,0.61,0.62
279.38,2.85,2.22,2.85,2.22,-2.23,-2.18,-2.53,0.62,0.63,0.63
282.17,2.85,2.21,2.84,2.20,-2.20,-2.16,-2.46,0.65,0.64,0.63
284.99,2.84,2.18,2.84,2.18,-2.17,-2.13,-2.39,0.67,0.66,0.66
287.84,2.82,2.15,2.82,2.15,-2.14,-2.11,-2.31,0.68,0.68,0.67
290.72,2.79,2.10,2.79,2.10,-2.10,-2.08,-2.24,0.69,0.69,0.69
293.63,2.75,2.04,2.75,2.05,-2.05,-2.05,-2.16,0.70,0.71,0.70
296.57,2.72,1.99,2.71,1.99,-1.99,-2.01,-2.08,0.73,0.72,0.73
299.53,2.67,1.93,2.67,1.92,-1.92,-1.96,-2.00,0.74,0.74,0.74
302.53,2.62,1.86,2.62,1.85,-1.85,-1.90,-1.91,0.77,0.77,0.76
305.55,2.56,1.76,2.56,1.78,-1.77,-1.84,-1.83,0.78,0.79,0.79
308.61,2.51,1.70,2.50,1.69,-1.69,-1.76,-1.75,0.82,0.81,0.81
311.69,2.44,1.60,2.44,1.60,-1.61,-1.68,-1.67,0.83,0.84,0.84
314.81,2.39,1.51,2.38,1.51,-1.52,-1.58,-1.58,0.87,0.87,0.88
317.96,2.32,1.42,2.32,1.42,-1.43,-1.48,-1.50,0.89,0.89,0.90
321.14,2.25,1.32,2.25,1.33,-1.33,-1.36,-1.42,0.92,0.92,0.92
324.35,2.18,1.24,2.18,1.23,-1.23,-1.24,-1.33,0.95,0.95,0.94
327.59,2.10,1.13,2.10,1.13,-1.12,-1.12,-1.25,0.98,0.98,0.97
330.87,2.03,1.03,2.02,1.02,-1.01,-0.99,-1.17,1.01,1.01,1.00
334.18,1.93,0.91,1.93,0.90,-0.90,-0.86,-1.08,1.03,1.03,1.02
337.52,1.82,0.77,1.83,0.78,-0.78,-0.74,-1.00,1.04,1.04,1.05
340.90,1.73,0.65,1.73,0.65,-0.66,-0.61,-0.92,1.07,1.07,1.07
344.30,1.63,0.52,1.63,0.53,-0.54,-0.48,-0.84,1.09,1.10,1.10
347.75,1.55,0.43,1.54,0.41,-0.41,-0.36,-0.76,1.14,1.13,1.12
351.23,1.44,0.29,1.44,0.29,-0.29,-0.24,-0.68,1.15,1.15,1.15
354.74,1.34,0.16,1.34,0.17,-0.16,-0.12,-0.60,1.17,1.18,1.18
358.28,1.24,0.04,1.24,0.04,-0.04,-0.01,-0.52,1.20,1.20,1.20
361.87,1.16,-0.07,1.15,-0.08,0.08,0.10,-0.44,1.24,1.23,1.23
365.49,1.05,-0.20,1.05,-0.19,0.20,0.21,-0.36,1.25,1.25,1.25
369.14,0.95,-0.32,0.95,-0.31,0.31,0.31,-0.28,1.26,1.27,1.27
372.83,0.87,-0.42,0.86,-0.43,0.42,0.41,-0.20,1.29,1.28,1.28
376.56,0.77,-0.54,0.77,-0.54,0.52,0.51,-0.13,1.29,1.29,1.30
380.33,0.69,-0.64,0.70,-0.63,0.62,0.60,-0.05,1.31,1.31,1.33
384.13,0.63,-0.71,0.63,-0.71,0.71,0.68,0.03,1.34,1.34,1.34
387.97,0.57,-0.78,0.56,-0.79,0.80,0.77,0.10,1.37,1.36,1.35
391.85,0.50,-0.86,0.49,-0.87,0.88,0.84,0.18,1.38,1.38,1.36
395.77,0.42,-0.96,0.42,-0.95,0.96,0.92,0.25,1.38,1.39,1.38
399.73,0.36,-1.03,0.36,-1.03,1.03,0.99,0.32,1.39,1.39,1.39
403.72,0.30,-1.10,0.29,-1.11,1.10,1.05,0.40,1.40,1.40,1.40
407.76,0.24,-1.17,0.24,-1.17,1.17,1.12,0.47,1.41,1.41,1.41
411.84,0.18,-1.25,0.18,-1.24,1.23,1.17,0.54,1.41,1.41,1.43
415.96,0.14,-1.29,0.14,-1.29,1.28,1.23,0.61,1.42,1.42,1.43
420.12,0.10,-1.33,0.09,-1.33,1.33,1.27,0.68,1.42,1.42,1.42
424.32,0.06,-1.37,0.06,-1.36,1.37,1.32,0.75,1.42,1.43,1.42
428.56,0.03,-1.40,0.03,-1.39,1.40,1.36,0.81,1.42,1.43,1.42
432.85,0.01,-1.42,0.01,-1.42,1.42,1.39,0.88,1.43,1.43,1.42
437.18,-0.01,-1.43,-0.01,-1.44,1.44,1.42,0.94,1.43,1.43,1.42
441.55,-0.03,-1.45,-0.03,-1.45,1.46,1.45,1.00,1.42,1.42,1.42
445.96,-0.05,-1.47,-0.05,-1.47,1.47,1.47,1.06,1.41,1.41,1.42
450.42,-0.06,-1.47,-0.06,-1.48,1.47,1.49,1.12,1.41,1.41,1.41
454.93,-0.07,-1.48,-0.07,-1.48,1.47,1.51,1.17,1.40,1.41,1.41
459.48,-0.06,-1.47,-0.06,-1.47,1.47,1.52,1.22,1.41,1.41,1.41
464.07,-0.05,-1.46,-0.06,-1.47,1.47,1.53,1.27,1.42,1.41,1.41
468.71,-0.05,-1.47,-0.05,-1.46,1.47,1.54,1.32,1.41,1.42,1.42
473.40,-0.04,-1.45,-0.04,-1.46,1.46,1.54,1.36,1.42,1.42,1.41
478.13,-0.04,-1.46,-0.04,-1.46,1.46,1.54,1.40,1.42,1.42,1.42
482.91,-0.04,-1.45,-0.04,-1.45,1.46,1.54,1.44,1.42,1.42,1.41
487.74,-0.04,-1.46,-0.04,-1.46,1.47,1.53,1.47,1.43,1.43,1.42
492.62,-0.04,-1.47,-0.05,-1.47,1.48,1.53,1.50,1.43,1.43,1.43
497.55,-0.05,-1.48,-0.05,-1.48,1.48,1.52,1.53,1.43,1.43,1.43
502.52,-0.06,-1.50,-0.06,-1.50,1.49,1.51,1.56,1.43,1.43,1.44
507.55,-0.07,-1.51,-0.07,-1.51,1.50,1.49,1.58,1.43,1.43,1.44
512.62,-0.06,-1.51,-0.06,-1.51,1.50,1.48,1.59,1.44,1.44,1.45
517.75,-0.05,-1.51,-0.05,-1.51,1.51,1.47,1.61,1.46,1.45,1.46
522.93,-0.04,-1.51,-0.04,-1.50,1.51,1.45,1.62,1.47,1.47,1.47
528.16,-0.02,-1.49,-0.03,-1.50,1.51,1.43,1.63,1.48,1.48,1.47
533.44,-0.01,-1.50,-0.01,-1.49,1.50,1.41,1.63,1.49,1.49,1.49
538.77,0.02,-1.48,0.01,-1.48,1.48,1.39,1.64,1.50,1.50,1.50
544.16,0.04,-1.48,0.04,-1.48,1.46,1.37,1.64,1.50,1.50,1.52
