frequency,raw,error,smoothed,error_smoothed,equalization,parametric_eq,fixed_band_eq,equalized_raw,equalized_smoothed,target
20.00,11.73,4.31,11.73,4.31,-4.32,-4.33,-2.06,7.41,7.41,7.42
20.20,11.76,4.35,11.76,4.35,-4.35,-4.33,-2.12,7.41,7.41,7.41
20.40,11.79,4.38,11.79,4.39,-4.39,-4.33,-2.18,7.40,7.41,7.41
20.61,11.82,4.42,11.82,4.42,-4.41,-4.33,-2.24,7.41,7.41,7.40
20.81,11.84,4.45,11.85,4.46,-4.44,-4.34,-2.31,7.40,7.41,7.39
21.02,11.87,4.49,11.86,4.48,-4.46,-4.34,-2.37,7.41,7.40,7.38
21.23,11.87,4.49,11.87,4.49,-4.48,-4.34,-2.44,7.39,7.39,7.38
21.44,11.87,4.48,11.87,4.49,-4.49,-4.34,-2.51,7.38,7.38,7.39
21.66,11.87,4.49,11.87,4.49,-4.50,-4.34,-2.59,7.37,7.37,7.38
21.87,11.87,4.49,11.87,4.49,-4.50,-4.34,-2.66,7.37,7.37,7.38
22.09,11.87,4.50,11.87,4.50,-4.50,-4.34,-2.74,7.37,7.37,7.37
22.31,11.87,4.50,11.87,4.51,-4.51,-4.34,-2.82,7.36,7.36,7.37
22.54,11.87,4.52,11.87,4.51,-4.51,-4.34,-2.90,7.36,7.36,7.36
22.76,11.87,4.51,11.87,4.51,-4.51,-4.34,-2.98,7.36,7.36,7.36
22.99,11.87,4.51,11.87,4.51,-4.52,-4.34,-3.06,7.35,7.35,7.36
23.22,11.87,4.52,11.87,4.51,-4.52,-4.34,-3.15,7.35,7.35,7.35
23.45,11.87,4.52,11.87,4.52,-4.51,-4.35,-3.24,7.36,7.36,7.35
23.69,11.87,4.52,11.87,4.52,-4.50,-4.35,-3.33,7.37,7.37,7.35
23.92,11.87,4.52,11.87,4.51,-4.49,-4.35,-3.42,7.38,7.37,7.35
24.16,11.85,4.49,11.85,4.49,-4.48,-4.35,-3.52,7.37,7.37,7.36
24.40,11.83,4.46,11.83,4.46,-4.46,-4.35,-3.61,7.37,7.36,7.37
24.65,11.80,4.43,11.80,4.43,-4.45,-4.35,-3.71,7.35,7.35,7.37
24.89,11.78,4.41,11.78,4.42,-4.43,-4.35,-3.81,7.35,7.35,7.37
25.14,11.77,4.41,11.77,4.41,-4.42,-4.35,-3.91,7.35,7.35,7.36
25.39,11.77,4.42,11.77,4.41,-4.41,-4.35,-4.01,7.36,7.35,7.36
25.65,11.77,4.42,11.77,4.42,-4.41,-4.35,-4.11,7.36,7.36,7.35
25.91,11.77,4.42,11.77,4.42,-4.41,-4.36,-4.21,7.36,7.36,7.35
26.16,11.77,4.42,11.77,4.42,-4.42,-4.36,-4.31,7.35,7.35,7.35
26.43,11.77,4.43,11.77,4.43,-4.43,-4.36,-4.41,7.34,7.34,7.34
26.69,11.77,4.43,11.77,4.43,-4.43,-4.36,-4.51,7.34,7.34,7.34
26.96,11.77,4.44,11.77,4.44,-4.44,-4.36,-4.61,7.33,7.33,7.33
27.23,11.77,4.45,11.77,4.45,-4.45,-4.36,-4.70,7.32,7.32,7.32
27.50,11.77,4.45,11.77,4.46,-4.46,-4.36,-4.80,7.31,7.31,7.32
27.77,11.77,4.46,11.77,4.46,-4.46,-4.36,-4.89,7.31,7.31,7.31
28.05,11.77,4.46,11.77,4.46,-4.46,-4.36,-4.97,7.31,7.31,7.31
28.33,11.77,4.46,11.77,4.46,-4.46,-4.37,-5.06,7.31,7.31,7.31
28.62,11.77,4.47,11.77,4.47,-4.45,-4.37,-5.14,7.32,7.32,7.30
28.90,11.77,4.46,11.77,4.46,-4.44,-4.37,-5.21,7.33,7.33,7.31
29.19,11.75,4.44,11.75,4.44,-4.42,-4.37,-5.28,7.33,7.32,7.31
29.48,11.72,4.41,11.72,4.41,-4.41,-4.37,-5.34,7.31,7.31,7.32
29.78,11.69,4.38,11.69,4.38,-4.40,-4.37,-5.40,7.30,7.30,7.31
30.08,11.67,4.35,11.68,4.36,-4.39,-4.37,-5.44,7.29,7.29,7.32
30.38,11.67,4.36,11.67,4.36,-4.38,-4.37,-5.49,7.29,7.29,7.31
30.68,11.67,4.36,11.67,4.36,-4.38,-4.37,-5.52,7.30,7.29,7.31
30.99,11.67,4.38,11.67,4.37,-4.37,-4.38,-5.55,7.30,7.30,7.30
31.30,11.67,4.38,11.67,4.38,-4.37,-4.38,-5.57,7.30,7.31,7.29
31.61,11.67,4.38,11.67,4.39,-4.36,-4.38,-5.58,7.31,7.31,7.29
31.93,11.67,4.39,11.66,4.38,-4.35,-4.38,-5.58,7.32,7.31,7.28
32.24,11.63,4.35,11.62,4.35,-4.33,-4.38,-5.58,7.30,7.29,7.28
32.57,11.57,4.31,11.58,4.31,-4.31,-4.38,-5.57,7.26,7.26,7.26
32.89,11.52,4.27,11.53,4.27,-4.29,-4.38,-5.55,7.23,7.24,7.25
33.22,11.49,4.24,11.49,4.24,-4.27,-4.38,-5.53,7.22,7.22,7.25
33.55,11.48,4.23,11.48,4.23,-4.26,-4.38,-5.50,7.22,7.22,7.25
33.89,11.47,4.23,11.47,4.23,-4.24,-4.39,-5.46,7.23,7.23,7.24
34.23,11.47,4.24,11.47,4.24,-4.23,-4.39,-5.42,7.24,7.24,7.23
34.57,11.47,4.24,11.47,4.24,-4.23,-4.39,-5.38,7.25,7.25,7.23
34.92,11.47,4.26,11.46,4.24,-4.22,-4.39,-5.33,7.25,7.24,7.21
35.27,11.44,4.22,11.44,4.23,-4.22,-4.39,-5.27,7.22,7.22,7.22
35.62,11.41,4.21,11.41,4.21,-4.22,-4.39,-5.22,7.19,7.19,7.20
35.97,11.37,4.19,11.38,4.20,-4.22,-4.39,-5.16,7.15,7.17,7.18
36.33,11.37,4.20,11.37,4.20,-4.21,-4.39,-5.10,7.16,7.16,7.17
36.70,11.37,4.22,11.37,4.21,-4.20,-4.39,-5.04,7.17,7.16,7.16
37.06,11.36,4.22,11.35,4.21,-4.20,-4.40,-4.98,7.16,7.16,7.14
37.43,11.33,4.20,11.33,4.20,-4.19,-4.40,-4.92,7.14,7.14,7.13
37.81,11.29,4.19,11.30,4.19,-4.19,-4.40,-4.86,7.10,7.11,7.10
38.19,11.26,4.18,11.26,4.18,-4.19,-4.40,-4.80,7.07,7.07,7.08
38.57,11.23,4.18,11.23,4.18,-4.19,-4.40,-4.74,7.04,7.04,7.05
38.95,11.20,4.17,11.21,4.18,-4.20,-4.40,-4.68,7.00,7.01,7.03
39.34,11.19,4.19,11.19,4.19,-4.20,-4.40,-4.62,6.99,6.98,7.00
39.74,11.18,4.20,11.18,4.20,-4.21,-4.40,-4.57,6.97,6.97,6.98
40.14,11.17,4.22,11.18,4.23,-4.21,-4.40,-4.52,6.96,6.97,6.95
40.54,11.17,4.24,11.17,4.25,-4.21,-4.40,-4.47,6.96,6.96,6.93
40.94,11.17,4.27,11.15,4.25,-4.21,-4.40,-4.42,6.96,6.94,6.90
41.35,11.11,4.22,11.10,4.22,-4.21,-4.40,-4.37,6.91,6.90,6.89
41.76,11.03,4.17,11.05,4.19,-4.20,-4.40,-4.33,6.83,6.84,6.86
42.18,10.99,4.15,11.00,4.16,-4.20,-4.40,-4.29,6.79,6.80,6.84
42.60,10.98,4.16,10.97,4.16,-4.20,-4.41,-4.25,6.78,6.78,6.82
43.03,10.97,4.18,10.97,4.18,-4.19,-4.41,-4.22,6.78,6.78,6.79
43.46,10.97,4.20,10.97,4.20,-4.19,-4.41,-4.19,6.78,6.79,6.77
43.90,10.97,4.23,10.96,4.22,-4.19,-4.41,-4.16,6.78,6.77,6.74
44.33,10.94,4.22,10.94,4.22,-4.19,-4.41,-4.14,6.75,6.75,6.72
44.78,10.89,4.20,10.90,4.20,-4.20,-4.41,-4.12,6.69,6.70,6.69
45.23,10.85,4.18,10.85,4.18,-4.20,-4.41,-4.10,6.65,6.64,6.67
45.68,10.80,4.17,10.81,4.17,-4.20,-4.41,-4.08,6.60,6.60,6.63
46.13,10.77,4.18,10.78,4.19,-4.20,-4.41,-4.07,6.57,6.58,6.59
46.60,10.77,4.21,10.77,4.20,-4.20,-4.41,-4.06,6.57,6.57,6.56
47.06,10.76,4.23,10.75,4.22,-4.20,-4.40,-4.06,6.56,6.55,6.53
47.53,10.72,4.22,10.72,4.23,-4.21,-4.40,-4.06,6.51,6.51,6.50
48.01,10.67,4.23,10.67,4.22,-4.21,-4.40,-4.06,6.46,6.46,6.44
48.49,10.62,4.21,10.62,4.21,-4.22,-4.40,-4.06,6.40,6.40,6.41
48.97,10.57,4.20,10.58,4.21,-4.22,-4.40,-4.06,6.35,6.36,6.37
49.46,10.55,4.22,10.55,4.22,-4.22,-4.40,-4.07,6.33,6.32,6.33
49.96,10.52,4.24,10.52,4.23,-4.23,-4.40,-4.08,6.29,6.29,6.28
50.46,10.49,4.23,10.49,4.24,-4.23,-4.40,-4.09,6.26,6.26,6.26
50.96,10.46,4.24,10.46,4.24,-4.24,-4.40,-4.11,6.22,6.22,6.22
51.47,10.43,4.24,10.43,4.24,-4.24,-4.40,-4.12,6.19,6.18,6.19
51.99,10.39,4.24,10.40,4.25,-4.25,-4.39,-4.14,6.14,6.15,6.15
52.51,10.37,4.26,10.37,4.26,-4.26,-4.39,-4.16,6.11,6.11,6.11
53.03,10.36,4.28,10.34,4.27,-4.27,-4.39,-4.18,6.09,6.07,6.08
53.56,10.30,4.27,10.31,4.27,-4.28,-4.39,-4.20,6.02,6.03,6.03
54.10,10.26,4.27,10.28,4.29,-4.29,-4.39,-4.22,5.98,5.99,5.99
54.64,10.25,4.30,10.25,4.30,-4.29,-4.38,-4.24,5.96,5.96,5.95
55.18,10.23,4.32,10.21,4.30,-4.29,-4.38,-4.26,5.94,5.92,5.91
55.74,10.16,4.29,10.17,4.30,-4.28,-4.38,-4.28,5.88,5.89,5.87
56.29,10.11,4.27,10.12,4.28,-4.27,-4.37,-4.30,5.84,5.85,5.84
56.86,10.07,4.26,10.06,4.26,-4.26,-4.37,-4.32,5.81,5.80,5.81
57.42,10.02,4.27,10.02,4.25,-4.25,-4.37,-4.34,5.77,5.76,5.75
58.00,9.96,4.23,9.98,4.24,-4.25,-4.36,-4.35,5.72,5.73,5.74
58.58,9.94,4.23,9.94,4.23,-4.24,-4.36,-4.37,5.70,5.70,5.72
59.16,9.92,4.24,9.91,4.22,-4.24,-4.36,-4.38,5.68,5.67,5.68
59.76,9.88,4.23,9.89,4.24,-4.25,-4.35,-4.39,5.63,5.64,5.65
60.35,9.86,4.26,9.87,4.26,-4.26,-4.35,-4.39,5.61,5.61,5.60
60.96,9.86,4.29,9.84,4.27,-4.26,-4.34,-4.40,5.60,5.58,5.57
61.57,9.80,4.28,9.81,4.29,-4.27,-4.34,-4.40,5.53,5.53,5.52
62.18,9.75,4.29,9.76,4.30,-4.28,-4.33,-4.39,5.47,5.48,5.46
62.80,9.71,4.30,9.70,4.29,-4.29,-4.33,-4.39,5.42,5.41,5.41
63.43,9.66,4.30,9.65,4.29,-4.31,-4.32,-4.38,5.36,5.35,5.36
64.07,9.60,4.28,9.61,4.29,-4.31,-4.31,-4.36,5.29,5.29,5.32
64.71,9.57,4.29,9.58,4.31,-4.32,-4.31,-4.35,5.25,5.26,5.28
65.35,9.56,4.33,9.56,4.32,-4.32,-4.30,-4.33,5.24,5.24,5.23
66.01,9.56,4.37,9.54,4.34,-4.32,-4.29,-4.31,5.24,5.22,5.20
66.67,9.49,4.33,9.50,4.35,-4.32,-4.29,-4.28,5.17,5.18,5.16
67.33,9.43,4.33,9.43,4.33,-4.31,-4.28,-4.26,5.12,5.12,5.10
68.01,9.36,4.30,9.36,4.31,-4.31,-4.27,-4.23,5.05,5.06,5.06
68.69,9.30,4.29,9.29,4.28,-4.30,-4.26,-4.20,5.00,4.99,5.01
69.37,9.23,4.26,9.23,4.26,-4.29,-4.25,-4.17,4.94,4.94,4.97
70.07,9.16,4.24,9.19,4.26,-4.28,-4.25,-4.14,4.88,4.90,4.92
70.77,9.16,4.28,9.16,4.28,-4.28,-4.24,-4.10,4.88,4.88,4.88
71.48,9.14,4.31,9.12,4.29,-4.28,-4.23,-4.07,4.86,4.84,4.83
72.19,9.09,4.30,9.07,4.29,-4.28,-4.22,-4.03,4.81,4.79,4.79
72.91,8.97,4.24,9.01,4.28,-4.28,-4.21,-4.00,4.69,4.73,4.73
73.64,8.96,4.28,8.98,4.29,-4.29,-4.20,-3.96,4.68,4.69,4.68
74.38,8.96,4.31,8.94,4.30,-4.29,-4.19,-3.93,4.67,4.65,4.65
75.12,8.94,4.33,8.90,4.30,-4.29,-4.18,-3.89,4.65,4.62,4.61
75.87,8.82,4.24,8.85,4.27,-4.28,-4.17,-3.86,4.54,4.56,4.58
76.63,8.77,4.24,8.79,4.26,-4.28,-4.15,-3.83,4.49,4.51,4.53
77.40,8.76,4.26,8.76,4.27,-4.27,-4.14,-3.80,4.49,4.49,4.50
78.17,8.75,4.30,8.74,4.28,-4.26,-4.13,-3.77,4.49,4.48,4.46
78.95,8.73,4.30,8.69,4.26,-4.25,-4.12,-3.75,4.48,4.45,4.43
79.74,8.60,4.20,8.63,4.23,-4.23,-4.11,-3.72,4.37,4.40,4.40
80.54,8.55,4.19,8.57,4.20,-4.22,-4.10,-3.70,4.33,4.35,4.37
81.35,8.54,4.21,8.53,4.20,-4.21,-4.08,-3.68,4.33,4.32,4.33
82.16,8.51,4.21,8.49,4.20,-4.20,-4.07,-3.66,4.31,4.30,4.30
82.98,8.45,4.19,8.45,4.19,-4.19,-4.06,-3.65,4.26,4.26,4.26
83.81,8.37,4.15,8.39,4.17,-4.17,-4.05,-3.63,4.20,4.22,4.22
84.65,8.35,4.17,8.34,4.16,-4.16,-4.03,-3.62,4.19,4.18,4.18
85.50,8.31,4.17,8.30,4.15,-4.15,-4.02,-3.62,4.16,4.15,4.14
86.35,8.25,4.14,8.26,4.15,-4.13,-4.01,-3.61,4.12,4.12,4.11
87.22,8.19,4.13,8.19,4.13,-4.12,-3.99,-3.61,4.07,4.08,4.07
88.09,8.14,4.12,8.12,4.10,-4.11,-3.98,-3.61,4.04,4.02,4.03
88.97,8.05,4.07,8.06,4.07,-4.09,-3.97,-3.61,3.96,3.96,3.98
89.86,7.99,4.05,8.00,4.06,-4.08,-3.95,-3.62,3.91,3.92,3.94
90.76,7.96,4.06,7.96,4.06,-4.07,-3.94,-3.63,3.89,3.89,3.90
91.66,7.93,4.08,7.92,4.07,-4.06,-3.93,-3.64,3.87,3.87,3.85
92.58,7.89,4.09,7.88,4.07,-4.05,-3.92,-3.65,3.84,3.83,3.80
93.51,7.81,4.05,7.82,4.06,-4.04,-3.90,-3.67,3.77,3.78,3.76
94.44,7.75,4.03,7.75,4.04,-4.04,-3.89,-3.69,3.71,3.71,3.72
95.39,7.69,4.03,7.68,4.02,-4.04,-3.88,-3.71,3.65,3.64,3.66
96.34,7.62,4.01,7.62,4.01,-4.03,-3.86,-3.74,3.59,3.59,3.61
97.30,7.55,4.00,7.57,4.02,-4.03,-3.85,-3.76,3.52,3.54,3.55
98.28,7.53,4.03,7.52,4.03,-4.02,-3.84,-3.79,3.51,3.50,3.50
99.26,7.47,4.04,7.46,4.02,-4.00,-3.83,-3.82,3.47,3.46,3.43
100.25,7.39,4.01,7.39,4.01,-3.99,-3.82,-3.85,3.40,3.40,3.38
101.25,7.30,3.97,7.31,3.98,-3.97,-3.80,-3.89,3.33,3.34,3.33
102.27,7.23,3.96,7.23,3.95,-3.95,-3.79,-3.92,3.28,3.27,3.27
103.29,7.15,3.93,7.15,3.93,-3.94,-3.78,-3.96,3.21,3.21,3.22
104.32,7.07,3.90,7.07,3.90,-3.92,-3.77,-3.99,3.15,3.15,3.17
105.37,6.99,3.89,6.99,3.88,-3.90,-3.76,-4.03,3.09,3.08,3.11
106.42,6.90,3.84,6.92,3.87,-3.89,-3.75,-4.07,3.02,3.04,3.06
107.48,6.87,3.88,6.87,3.87,-3.87,-3.74,-4.10,3.00,3.00,2.99
108.56,6.84,3.89,6.82,3.88,-3.86,-3.73,-4.14,2.98,2.96,2.95
109.64,6.76,3.87,6.76,3.87,-3.85,-3.73,-4.18,2.91,2.91,2.89
110.74,6.68,3.85,6.68,3.84,-3.83,-3.72,-4.21,2.85,2.85,2.83
111.85,6.59,3.80,6.60,3.81,-3.81,-3.71,-4.24,2.78,2.79,2.79
112.97,6.52,3.78,6.52,3.78,-3.78,-3.70,-4.28,2.74,2.74,2.74
114.10,6.46,3.76,6.45,3.76,-3.76,-3.69,-4.30,2.70,2.69,2.70
115.24,6.38,3.75,6.38,3.74,-3.74,-3.69,-4.33,2.64,2.64,2.63
116.39,6.30,3.71,6.29,3.70,-3.72,-3.68,-4.35,2.58,2.57,2.59
117.55,6.21,3.67,6.22,3.68,-3.71,-3.68,-4.37,2.50,2.51,2.54
118.73,6.17,3.67,6.19,3.69,-3.71,-3.67,-4.39,2.46,2.48,2.50
119.92,6.18,3.72,6.17,3.71,-3.70,-3.66,-4.40,2.48,2.47,2.46
121.12,6.17,3.74,6.15,3.72,-3.70,-3.66,-4.41,2.47,2.45,2.43
122.33,6.11,3.72,6.11,3.72,-3.69,-3.66,-4.41,2.42,2.43,2.39
123.55,6.04,3.68,6.06,3.69,-3.68,-3.65,-4.41,2.36,2.38,2.36
124.79,6.00,3.67,5.99,3.66,-3.67,-3.65,-4.40,2.33,2.32,2.33
126.03,5.93,3.64,5.93,3.65,-3.65,-3.64,-4.39,2.28,2.28,2.29
127.29,5.87,3.62,5.87,3.62,-3.63,-3.64,-4.38,2.24,2.24,2.25
128.57,5.82,3.61,5.81,3.60,-3.61,-3.64,-4.36,2.21,2.20,2.21
129.85,5.75,3.57,5.76,3.58,-3.60,-3.63,-4.33,2.15,2.16,2.18
131.15,5.72,3.58,5.71,3.57,-3.58,-3.63,-4.30,2.14,2.13,2.14
132.46,5.66,3.56,5.68,3.58,-3.57,-3.63,-4.27,2.09,2.11,2.11
133.79,5.65,3.59,5.63,3.57,-3.55,-3.62,-4.23,2.10,2.08,2.06
135.12,5.59,3.57,5.58,3.55,-3.54,-3.62,-4.19,2.05,2.03,2.02
136.48,5.49,3.50,5.52,3.53,-3.53,-3.62,-4.15,1.96,1.99,1.99
137.84,5.46,3.51,5.45,3.51,-3.52,-3.61,-4.10,1.94,1.94,1.95
139.22,5.40,3.50,5.40,3.49,-3.50,-3.61,-4.05,1.90,1.89,1.90
140.61,5.36,3.48,5.36,3.49,-3.49,-3.60,-4.00,1.87,1.87,1.88
142.02,5.29,3.46,5.31,3.48,-3.46,-3.60,-3.94,1.83,1.85,1.84
143.44,5.27,3.48,5.25,3.46,-3.44,-3.59,-3.89,1.83,1.81,1.79
144.87,5.20,3.44,5.19,3.43,-3.42,-3.59,-3.83,1.78,1.77,1.76
146.32,5.10,3.38,5.12,3.40,-3.39,-3.58,-3.77,1.71,1.73,1.72
147.78,5.04,3.36,5.04,3.36,-3.36,-3.57,-3.71,1.68,1.68,1.69
149.26,4.98,3.33,4.97,3.33,-3.33,-3.56,-3.66,1.65,1.64,1.65
150.75,4.90,3.30,4.91,3.30,-3.30,-3.55,-3.60,1.60,1.61,1.60
152.26,4.84,3.27,4.84,3.27,-3.27,-3.54,-3.54,1.57,1.57,1.57
153.78,4.77,3.24,4.77,3.24,-3.24,-3.53,-3.48,1.53,1.53,1.53
155.32,4.70,3.20,4.71,3.21,-3.22,-3.52,-3.43,1.48,1.49,1.50
156.88,4.66,3.20,4.65,3.19,-3.21,-3.51,-3.37,1.46,1.44,1.46
158.44,4.59,3.17,4.60,3.18,-3.19,-3.49,-3.32,1.40,1.41,1.42
160.03,4.56,3.19,4.56,3.19,-3.19,-3.48,-3.26,1.38,1.38,1.37
161.63,4.52,3.19,4.51,3.18,-3.18,-3.46,-3.21,1.34,1.33,1.33
163.24,4.47,3.19,4.46,3.18,-3.17,-3.45,-3.16,1.30,1.30,1.28
164.88,4.39,3.15,4.40,3.16,-3.16,-3.43,-3.12,1.23,1.25,1.24
166.53,4.35,3.16,4.35,3.15,-3.14,-3.41,-3.07,1.21,1.20,1.19
168.19,4.28,3.13,4.28,3.13,-3.12,-3.39,-3.03,1.16,1.16,1.15
169.87,4.23,3.12,4.22,3.11,-3.10,-3.36,-2.99,1.13,1.12,1.11
171.57,4.13,3.07,4.14,3.07,-3.07,-3.34,-2.95,1.06,1.06,1.06
173.29,4.05,3.03,4.05,3.03,-3.05,-3.32,-2.91,1.00,1.00,1.02
175.02,3.98,3.00,3.99,3.01,-3.02,-3.29,-2.88,0.96,0.97,0.98
176.77,3.92,2.99,3.93,3.00,-3.00,-3.26,-2.84,0.92,0.94,0.93
178.54,3.91,3.01,3.87,2.98,-2.98,-3.23,-2.81,0.94,0.90,0.90
180.32,3.80,2.94,3.81,2.96,-2.95,-3.20,-2.78,0.85,0.86,0.86
182.13,3.73,2.92,3.76,2.94,-2.94,-3.17,-2.76,0.79,0.82,0.81
183.95,3.72,2.94,3.69,2.91,-2.92,-3.14,-2.73,0.80,0.77,0.78
185.79,3.66,2.92,3.65,2.91,-2.90,-3.11,-2.71,0.76,0.75,0.74
187.65,3.57,2.86,3.61,2.90,-2.89,-3.07,-2.69,0.68,0.72,0.71
189.52,3.57,2.90,3.55,2.87,-2.87,-3.04,-2.67,0.70,0.67,0.67
191.42,3.51,2.86,3.50,2.85,-2.87,-3.00,-2.66,0.64,0.63,0.65
193.33,3.43,2.82,3.46,2.85,-2.86,-2.96,-2.64,0.57,0.60,0.61
195.27,3.41,2.84,3.41,2.84,-2.86,-2.92,-2.63,0.55,0.55,0.57
197.22,3.40,2.86,3.38,2.85,-2.85,-2.88,-2.62,0.55,0.53,0.54
199.19,3.35,2.84,3.36,2.86,-2.84,-2.84,-2.61,0.51,0.52,0.51
201.18,3.33,2.86,3.33,2.86,-2.82,-2.80,-2.60,0.51,0.51,0.47
203.19,3.28,2.83,3.27,2.83,-2.81,-2.76,-2.60,0.48,0.47,0.45
205.23,3.22,2.80,3.20,2.79,-2.78,-2.72,-2.59,0.44,0.42,0.42
207.28,3.11,2.72,3.14,2.75,-2.75,-2.68,-2.58,0.36,0.39,0.40
209.35,3.05,2.70,3.06,2.71,-2.72,-2.63,-2.58,0.34,0.35,0.35
211.44,3.03,2.70,2.99,2.66,-2.68,-2.59,-2.58,0.35,0.31,0.33
213.56,2.91,2.62,2.93,2.63,-2.65,-2.54,-2.57,0.26,0.28,0.29
215.69,2.84,2.57,2.87,2.60,-2.61,-2.50,-2.57,0.23,0.25,0.27
217.85,2.83,2.58,2.82,2.58,-2.59,-2.46,-2.57,0.25,0.23,0.25
220.03,2.78,2.58,2.78,2.57,-2.55,-2.41,-2.56,0.23,0.22,0.20
222.23,2.74,2.56,2.73,2.55,-2.52,-2.37,-2.56,0.22,0.21,0.18
224.45,2.65,2.49,2.66,2.50,-2.49,-2.32,-2.55,0.17,0.18,0.16
226.70,2.60,2.46,2.59,2.45,-2.44,-2.27,-2.55,0.16,0.15,0.14
228.96,2.52,2.39,2.53,2.41,-2.40,-2.23,-2.54,0.12,0.13,0.13
231.25,2.47,2.36,2.47,2.36,-2.36,-2.18,-2.53,0.11,0.11,0.11
233.57,2.43,2.33,2.40,2.31,-2.32,-2.14,-2.52,0.11,0.08,0.10
235.90,2.32,2.24,2.34,2.26,-2.28,-2.09,-2.51,0.04,0.06,0.08
238.26,2.28,2.21,2.30,2.23,-2.25,-2.05,-2.49,0.03,0.05,0.07
240.64,2.29,2.21,2.28,2.21,-2.22,-2.00,-2.48,0.07,0.06,0.08
243.05,2.29,2.22,2.28,2.21,-2.19,-1.96,-2.46,0.10,0.09,0.07
245.48,2.25,2.18,2.26,2.19,-2.16,-1.91,-2.43,0.09,0.10,0.07
247.93,2.23,2.17,2.22,2.15,-2.13,-1.87,-2.41,0.10,0.09,0.07
250.41,2.17,2.09,2.17,2.10,-2.10,-1.82,-2.38,0.07,0.08,0.08
252.92,2.12,2.04,2.12,2.05,-2.06,-1.78,-2.35,0.06,0.06,0.08
255.45,2.08,2.02,2.08,2.01,-2.02,-1.74,-2.32,0.06,0.05,0.06
258.00,2.02,1.97,2.04,1.98,-1.98,-1.69,-2.29,0.05,0.06,0.06
260.58,2.00,1.95,1.98,1.93,-1.92,-1.65,-2.25,0.08,0.06,0.05
263.19,1.94,1.90,1.92,1.88,-1.87,-1.61,-2.21,0.07,0.05,0.04
265.82,1.82,1.78,1.87,1.83,-1.82,-1.56,-2.16,-0.00,0.04,0.04
268.48,1.80,1.78,1.79,1.77,-1.78,-1.52,-2.12,0.03,0.02,0.02
271.16,1.76,1.76,1.72,1.71,-1.73,-1.48,-2.07,0.03,-0.01,0.00
273.87,1.63,1.63,1.67,1.67,-1.68,-1.44,-2.02,-0.05,-0.01,-0.00
276.61,1.59,1.61,1.61,1.63,-1.63,-1.40,-1.97,-0.04,-0.02,-0.02
279.38,1.59,1.62,1.56,1.59,-1.59,-1.36,-1.91,-0.00,-0.03,-0.03
282.17,1.53,1.56,1.53,1.56,-1.55,-1.32,-1.86,-0.02,-0.03,-0.03
284.99,1.48,1.51,1.48,1.51,-1.52,-1.28,-1.80,-0.04,-0.03,-0.03
287.84,1.41,1.44,1.43,1.47,-1.48,-1.24,-1.74,-0.07,-0.04,-0.03
290.72,1.42,1.46,1.41,1.45,-1.44,-1.20,-1.68,-0.02,-0.03,-0.04
293.63,1.38,1.43,1.38,1.42,-1.40,-1.16,-1.62,-0.02,-0.03,-0.05
296.57,1.35,1.39,1.34,1.38,-1.37,-1.12,-1.56,-0.02,-0.03,-0.04
299.53,1.27,1.31,1.28,1.32,-1.32,-1.08,-1.50,-0.05,-0.05,-0.03
302.53,1.23,1.27,1.23,1.27,-1.28,-1.04,-1.44,-0.05,-0.05,-0.04
305.55,1.18,1.22,1.20,1.24,-1.24,-1.00,-1.38,-0.06,-0.04,-0.04
308.61,1.18,1.22,1.16,1.20,-1.19,-0.96,-1.31,-0.01,-0.04,-0.04
311.69,1.12,1.16,1.10,1.14,-1.15,-0.93,-1.25,-0.03,-0.04,-0.04
314.81,1.03,1.07,1.06,1.10,-1.10,-0.89,-1.19,-0.07,-0.04,-0.04
317.96,0.99,1.04,1.00,1.05,-1.05,-0.85,-1.13,-0.06,-0.05,-0.05
321.14,0.98,1.03,0.96,1.01,-1.01,-0.82,-1.06,-0.03,-0.05,-0.05
324.35,0.91,0.96,0.92,0.97,-0.95,-0.78,-1.00,-0.04,-0.03,-0.05
327.59,0.86,0.91,0.86,0.91,-0.90,-0.74,-0.94,-0.04,-0.04,-0.05
330.87,0.80,0.85,0.79,0.84,-0.84,-0.70,-0.88,-0.04,-0.05,-0.05
334.18,0.71,0.77,0.74,0.79,-0.78,-0.67,-0.81,-0.07,-0.05,-0.06
337.52,0.69,0.74,0.67,0.73,-0.73,-0.63,-0.75,-0.04,-0.05,-0.05
340.90,0.62,0.67,0.61,0.65,-0.67,-0.59,-0.69,-0.05,-0.06,-0.05
344.30,0.54,0.58,0.55,0.60,-0.61,-0.56,-0.63,-0.07,-0.06,-0.04
347.75,0.49,0.53,0.51,0.55,-0.55,-0.52,-0.57,-0.06,-0.04,-0.04
351.23,0.49,0.53,0.48,0.52,-0.50,-0.48,-0.51,-0.01,-0.02,-0.04
354.74,0.47,0.50,0.43,0.47,-0.45,-0.45,-0.45,0.02,-0.02,-0.03
358.28,0.36,0.39,0.38,0.41,-0.41,-0.41,-0.39,-0.04,-0.02,-0.03
361.87,0.30,0.32,0.33,0.34,-0.36,-0.37,-0.33,-0.06,-0.03,-0.02
365.49,0.30,0.31,0.28,0.29,-0.31,-0.34,-0.27,-0.01,-0.04,-0.01
369.14,0.26,0.26,0.27,0.27,-0.27,-0.30,-0.21,-0.00,-0.00,-0.00
372.83,0.22,0.22,0.25,0.25,-0.22,-0.26,-0.15,0.00,0.03,0.00
376.56,0.24,0.25,0.20,0.20,-0.18,-0.22,-0.10,0.06,0.02,-0.01
380.33,0.14,0.14,0.13,0.13,-0.14,-0.18,-0.04,-0.00,-0.01,0.00
384.13,0.04,0.04,0.08,0.08,-0.10,-0.15,0.02,-0.06,-0.02,-0.00
387.97,0.03,0.02,0.04,0.04,-0.06,-0.11,0.08,-0.03,-0.02,0.01
391.85,0.04,0.03,0.03,0.03,-0.02,-0.07,0.13,0.02,0.01,0.01
395.77,0.04,0.05,-0.00,-0.00,0.02,-0.03,0.19,0.06,0.02,-0.00
399.73,-0.08,-0.06,-0.06,-0.05,0.07,0.01,0.25,-0.01,0.01,-0.02
403.72,-0.16,-0.15,-0.13,-0.11,0.11,0.05,0.30,-0.05,-0.02,-0.01
407.76,-0.16,-0.14,-0.20,-0.18,0.16,0.09,0.36,-0.00,-0.04,-0.02
411.84,-0.26,-0.23,-0.23,-0.20,0.21,0.13,0.41,-0.05,-0.02,-0.03
415.96,-0.28,-0.25,-0.27,-0.23,0.26,0.17,0.46,-0.02,-0.01,-0.03
420.12,-0.28,-0.24,-0.34,-0.30,0.31,0.21,0.52,0.03,-0.03,-0.04
424.32,-0.43,-0.40,-0.40,-0.37,0.36,0.26,0.57,-0.07,-0.04,-0.03
428.56,-0.47,-0.45,-0.43,-0.41,0.39,0.30,0.62,-0.07,-0.04,-0.01
432.85,-0.44,-0.44,-0.45,-0.45,0.43,0.34,0.67,-0.01,-0.02,0.00
437.18,-0.41,-0.43,-0.45,-0.48,0.46,0.38,0.72,0.05,0.01,0.02
441.55,-0.46,-0.51,-0.44,-0.50,0.50,0.42,0.77,0.04,0.06,0.05
445.96,-0.48,-0.57,-0.41,-0.51,0.54,0.46,0.82,0.06,0.13,0.09
450.42,-0.36,-0.50,-0.40,-0.54,0.57,0.50,0.86,0.21,0.16,0.14
454.93,-0.33,-0.52,-0.39,-0.58,0.60,0.54,0.91,0.27,0.20,0.19
459.48,-0.46,-0.70,-0.39,-0.64,0.62,0.58,0.95,0.16,0.23,0.24
464.07,-0.41,-0.72,-0.40,-0.70,0.65,0.62,0.99,0.24,0.26,0.31
468.71,-0.35,-0.72,-0.36,-0.72,0.69,0.65,1.03,0.34,0.33,0.37
473.40,-0.28,-0.70,-0.29,-0.71,0.73,0.69,1.07,0.45,0.44,0.42
478.13,-0.25,-0.73,-0.26,-0.74,0.77,0.72,1.11,0.52,0.51,0.48
482.91,-0.26,-0.78,-0.26,-0.79,0.82,0.76,1.14,0.56,0.56,0.53
487.74,-0.29,-0.86,-0.27,-0.84,0.86,0.79,1.17,0.58,0.60,0.57
492.62,-0.30,-0.91,-0.30,-0.91,0.91,0.83,1.20,0.61,0.61,0.61
497.55,-0.29,-0.93,-0.33,-0.98,0.96,0.86,1.23,0.67,0.62,0.64
502.52,-0.39,-1.06,-0.34,-1.02,1.00,0.89,1.26,0.61,0.66,0.67
507.55,-0.39,-1.09,-0.37,-1.07,1.04,0.92,1.29,0.65,0.67,0.70
512.62,-0.33,-1.04,-0.40,-1.11,1.07,0.95,1.31,0.74,0.67,0.71
