frequency,raw,error,smoothed,error_smoothed,equalization,parametric_eq,fixed_band_eq,equalized_raw,equalized_smoothed,target
20.00,7.95,1.58,7.95,1.57,-1.58,-1.63,-0.99,6.38,6.38,6.38
20.20,7.97,1.60,7.97,1.60,-1.60,-1.64,-1.02,6.38,6.37,6.38
20.40,7.98,1.62,7.99,1.62,-1.62,-1.65,-1.05,6.37,6.37,6.37
20.61,8.00,1.64,8.00,1.64,-1.64,-1.67,-1.07,6.37,6.37,6.37
20.81,8.01,1.66,8.02,1.66,-1.65,-1.68,-1.10,6.36,6.36,6.36
21.02,8.03,1.68,8.03,1.67,-1.67,-1.69,-1.13,6.36,6.36,6.36
21.23,8.03,1.69,8.04,1.69,-1.69,-1.71,-1.16,6.34,6.35,6.35
21.44,8.04,1.70,8.05,1.70,-1.71,-1.72,-1.19,6.34,6.34,6.35
21.66,8.06,1.73,8.06,1.72,-1.72,-1.73,-1.23,6.34,6.34,6.34
21.87,8.07,1.74,8.07,1.74,-1.74,-1.74,-1.26,6.33,6.33,6.33
22.09,8.08,1.76,8.08,1.76,-1.76,-1.76,-1.29,6.33,6.33,6.32
22.31,8.09,1.77,8.09,1.77,-1.77,-1.77,-1.33,6.32,6.32,6.32
22.54,8.10,1.78,8.11,1.79,-1.79,-1.78,-1.37,6.31,6.32,6.32
22.76,8.12,1.81,8.12,1.80,-1.81,-1.79,-1.40,6.32,6.31,6.31
22.99,8.13,1.82,8.13,1.82,-1.82,-1.81,-1.44,6.31,6.31,6.31
23.22,8.14,1.84,8.14,1.84,-1.84,-1.82,-1.48,6.31,6.31,6.30
23.45,8.15,1.85,8.15,1.85,-1.85,-1.83,-1.52,6.30,6.30,6.30
23.69,8.16,1.86,8.16,1.87,-1.87,-1.84,-1.56,6.30,6.30,6.30
23.92,8.17,1.88,8.17,1.88,-1.88,-1.86,-1.60,6.30,6.30,6.29
24.16,8.18,1.89,8.18,1.89,-1.89,-1.87,-1.64,6.29,6.29,6.29
24.40,8.18,1.90,8.19,1.90,-1.90,-1.88,-1.68,6.28,6.29,6.29
24.65,8.19,1.91,8.19,1.91,-1.91,-1.89,-1.72,6.28,6.28,6.29
24.89,8.20,1.93,8.20,1.92,-1.92,-1.91,-1.77,6.28,6.28,6.28
25.14,8.21,1.94,8.21,1.94,-1.94,-1.92,-1.81,6.28,6.28,6.28
25.39,8.22,1.95,8.22,1.95,-1.95,-1.93,-1.85,6.28,6.28,6.28
25.65,8.23,1.96,8.23,1.96,-1.96,-1.94,-1.90,6.27,6.27,6.27
25.91,8.24,1.97,8.24,1.97,-1.97,-1.95,-1.94,6.27,6.27,6.27
26.16,8.25,1.98,8.25,1.98,-1.98,-1.97,-1.98,6.27,6.27,6.27
26.43,8.26,1.99,8.26,2.00,-2.00,-1.98,-2.03,6.27,6.27,6.27
26.69,8.27,2.01,8.27,2.01,-2.01,-1.99,-2.07,6.27,6.27,6.26
26.96,8.28,2.02,8.28,2.02,-2.02,-2.00,-2.11,6.27,6.26,6.26
27.23,8.29,2.03,8.29,2.03,-2.03,-2.01,-2.15,6.26,6.26,6.26
27.50,8.29,2.04,8.30,2.04,-2.04,-2.03,-2.19,6.25,6.25,6.26
27.77,8.30,2.05,8.30,2.05,-2.05,-2.04,-2.23,6.25,6.25,6.26
28.05,8.31,2.07,8.31,2.06,-2.07,-2.05,-2.27,6.25,6.25,6.25
28.33,8.32,2.08,8.32,2.08,-2.08,-2.06,-2.31,6.24,6.24,6.24
28.62,8.33,2.09,8.33,2.09,-2.09,-2.07,-2.34,6.24,6.24,6.24
28.90,8.33,2.10,8.34,2.10,-2.10,-2.08,-2.37,6.23,6.24,6.23
29.19,8.35,2.12,8.35,2.12,-2.12,-2.10,-2.40,6.24,6.23,6.23
29.48,8.35,2.13,8.36,2.13,-2.13,-2.11,-2.43,6.22,6.23,6.23
29.78,8.36,2.15,8.36,2.14,-2.14,-2.12,-2.46,6.22,6.22,6.22
30.08,8.36,2.15,8.37,2.15,-2.15,-2.13,-2.48,6.21,6.22,6.22
30.38,8.37,2.16,8.37,2.16,-2.16,-2.14,-2.50,6.21,6.21,6.21
30.68,8.38,2.17,8.38,2.17,-2.17,-2.15,-2.52,6.22,6.21,6.21
30.99,8.38,2.17,8.39,2.18,-2.17,-2.16,-2.53,6.21,6.21,6.21
31.30,8.39,2.19,8.39,2.18,-2.18,-2.18,-2.54,6.21,6.21,6.21
31.61,8.39,2.18,8.40,2.18,-2.19,-2.19,-2.55,6.21,6.21,6.22
31.93,8.40,2.19,8.40,2.19,-2.19,-2.20,-2.56,6.21,6.21,6.21
32.24,8.41,2.20,8.41,2.20,-2.20,-2.21,-2.56,6.21,6.21,6.21
32.57,8.41,2.20,8.42,2.21,-2.21,-2.22,-2.57,6.21,6.21,6.21
32.89,8.42,2.22,8.42,2.22,-2.21,-2.23,-2.56,6.21,6.21,6.21
33.22,8.43,2.23,8.43,2.22,-2.22,-2.25,-2.56,6.21,6.21,6.21
33.55,8.43,2.23,8.44,2.23,-2.23,-2.26,-2.56,6.20,6.20,6.20
33.89,8.44,2.24,8.44,2.24,-2.25,-2.27,-2.55,6.20,6.20,6.20
34.23,8.44,2.26,8.45,2.25,-2.26,-2.28,-2.54,6.19,6.19,6.19
34.57,8.45,2.27,8.45,2.27,-2.27,-2.29,-2.53,6.18,6.18,6.18
34.92,8.45,2.28,8.46,2.29,-2.28,-2.30,-2.52,6.17,6.17,6.17
35.27,8.46,2.30,8.46,2.30,-2.30,-2.31,-2.51,6.17,6.16,6.16
35.62,8.46,2.32,8.46,2.31,-2.31,-2.33,-2.49,6.15,6.15,6.15
35.97,8.46,2.32,8.46,2.33,-2.33,-2.34,-2.48,6.13,6.13,6.14
36.33,8.46,2.34,8.47,2.34,-2.35,-2.35,-2.46,6.11,6.12,6.13
36.70,8.47,2.37,8.47,2.36,-2.37,-2.36,-2.45,6.11,6.11,6.11
37.06,8.48,2.39,8.48,2.39,-2.39,-2.37,-2.44,6.10,6.09,6.09
37.43,8.48,2.41,8.49,2.41,-2.40,-2.38,-2.42,6.08,6.08,6.08
37.81,8.49,2.43,8.49,2.43,-2.42,-2.40,-2.41,6.07,6.07,6.06
38.19,8.49,2.44,8.49,2.44,-2.44,-2.41,-2.39,6.05,6.05,6.05
38.57,8.49,2.45,8.50,2.46,-2.46,-2.42,-2.38,6.04,6.04,6.05
38.95,8.50,2.47,8.50,2.47,-2.47,-2.43,-2.37,6.03,6.03,6.03
39.34,8.50,2.49,8.50,2.48,-2.48,-2.44,-2.36,6.02,6.02,6.02
39.74,8.50,2.49,8.50,2.50,-2.49,-2.45,-2.35,6.01,6.01,6.01
40.14,8.50,2.51,8.50,2.51,-2.51,-2.47,-2.34,6.00,6.00,6.00
40.54,8.50,2.51,8.51,2.52,-2.52,-2.48,-2.34,5.99,5.99,5.99
40.94,8.51,2.53,8.51,2.52,-2.53,-2.49,-2.33,5.99,5.98,5.99
41.35,8.51,2.53,8.51,2.53,-2.53,-2.50,-2.33,5.98,5.98,5.98
41.76,8.51,2.54,8.52,2.54,-2.54,-2.52,-2.33,5.97,5.97,5.97
42.18,8.52,2.56,8.52,2.55,-2.55,-2.53,-2.33,5.97,5.97,5.97
42.60,8.51,2.55,8.52,2.56,-2.56,-2.54,-2.33,5.96,5.96,5.96
43.03,8.52,2.57,8.52,2.57,-2.57,-2.55,-2.33,5.96,5.96,5.96
43.46,8.52,2.58,8.52,2.57,-2.57,-2.57,-2.33,5.95,5.95,5.95
43.90,8.52,2.58,8.52,2.58,-2.58,-2.58,-2.34,5.95,5.95,5.94
44.33,8.52,2.58,8.52,2.58,-2.58,-2.59,-2.35,5.94,5.94,5.94
44.78,8.52,2.59,8.52,2.59,-2.59,-2.60,-2.36,5.94,5.93,5.94
45.23,8.52,2.60,8.53,2.59,-2.59,-2.62,-2.37,5.93,5.93,5.93
45.68,8.52,2.59,8.53,2.60,-2.60,-2.63,-2.38,5.92,5.93,5.93
46.13,8.53,2.61,8.53,2.61,-2.61,-2.64,-2.40,5.93,5.92,5.92
46.60,8.52,2.61,8.53,2.62,-2.61,-2.66,-2.42,5.91,5.92,5.91
47.06,8.53,2.63,8.53,2.62,-2.62,-2.67,-2.44,5.91,5.90,5.90
47.53,8.52,2.63,8.52,2.63,-2.63,-2.68,-2.46,5.89,5.89,5.89
48.01,8.52,2.64,8.53,2.64,-2.65,-2.70,-2.48,5.88,5.88,5.88
48.49,8.52,2.66,8.53,2.66,-2.66,-2.71,-2.50,5.86,5.87,5.86
48.97,8.53,2.68,8.53,2.68,-2.67,-2.73,-2.53,5.86,5.86,5.85
49.46,8.53,2.69,8.53,2.69,-2.69,-2.74,-2.55,5.85,5.84,5.84
49.96,8.53,2.71,8.53,2.71,-2.70,-2.75,-2.58,5.83,5.83,5.82
50.46,8.52,2.71,8.53,2.72,-2.72,-2.77,-2.61,5.80,5.81,5.81
50.96,8.52,2.74,8.52,2.73,-2.74,-2.78,-2.64,5.79,5.79,5.79
51.47,8.52,2.75,8.52,2.75,-2.75,-2.80,-2.67,5.77,5.77,5.77
51.99,8.52,2.77,8.53,2.77,-2.77,-2.81,-2.70,5.75,5.75,5.75
52.51,8.53,2.80,8.53,2.79,-2.79,-2.83,-2.74,5.75,5.74,5.74
53.03,8.52,2.80,8.53,2.81,-2.80,-2.84,-2.77,5.72,5.72,5.72
53.56,8.52,2.82,8.52,2.82,-2.82,-2.86,-2.80,5.70,5.70,5.70
54.10,8.52,2.84,8.52,2.84,-2.83,-2.88,-2.84,5.69,5.69,5.68
54.64,8.51,2.84,8.52,2.85,-2.85,-2.89,-2.87,5.67,5.67,5.67
55.18,8.52,2.87,8.52,2.86,-2.86,-2.91,-2.91,5.66,5.66,5.65
55.74,8.51,2.87,8.52,2.87,-2.87,-2.93,-2.94,5.64,5.64,5.65
56.29,8.51,2.88,8.51,2.88,-2.89,-2.94,-2.97,5.63,5.62,5.63
56.86,8.50,2.89,8.51,2.90,-2.90,-2.96,-3.01,5.60,5.61,5.61
57.42,8.50,2.91,8.51,2.92,-2.91,-2.98,-3.04,5.59,5.59,5.59
58.00,8.51,2.94,8.51,2.93,-2.93,-3.00,-3.07,5.58,5.58,5.57
58.58,8.50,2.95,8.50,2.95,-2.95,-3.01,-3.10,5.56,5.56,5.55
59.16,8.49,2.96,8.50,2.96,-2.96,-3.03,-3.13,5.53,5.53,5.53
59.76,8.49,2.98,8.49,2.98,-2.98,-3.05,-3.16,5.51,5.51,5.51
60.35,8.49,3.00,8.49,3.00,-3.01,-3.07,-3.18,5.49,5.49,5.49
60.96,8.49,3.03,8.49,3.03,-3.03,-3.09,-3.21,5.47,5.46,5.46
61.57,8.48,3.05,8.49,3.05,-3.05,-3.11,-3.23,5.43,5.44,5.44
62.18,8.48,3.07,8.48,3.07,-3.07,-3.13,-3.25,5.41,5.41,5.41
62.80,8.48,3.11,8.48,3.10,-3.10,-3.15,-3.27,5.38,5.38,5.38
63.43,8.47,3.12,8.48,3.13,-3.13,-3.17,-3.29,5.35,5.35,5.35
64.07,8.47,3.16,8.47,3.15,-3.15,-3.19,-3.30,5.32,5.32,5.32
64.71,8.47,3.18,8.47,3.18,-3.18,-3.21,-3.32,5.30,5.29,5.29
65.35,8.46,3.20,8.47,3.21,-3.20,-3.23,-3.33,5.26,5.27,5.26
66.01,8.46,3.23,8.46,3.23,-3.23,-3.26,-3.34,5.24,5.24,5.24
66.67,8.46,3.26,8.46,3.25,-3.25,-3.28,-3.35,5.21,5.21,5.21
67.33,8.45,3.28,8.45,3.28,-3.28,-3.30,-3.36,5.18,5.18,5.18
68.01,8.44,3.30,8.45,3.30,-3.30,-3.33,-3.37,5.14,5.14,5.15
68.69,8.44,3.33,8.44,3.32,-3.33,-3.35,-3.38,5.11,5.11,5.12
69.37,8.43,3.35,8.44,3.35,-3.36,-3.37,-3.38,5.08,5.08,5.08
70.07,8.43,3.38,8.43,3.39,-3.39,-3.40,-3.39,5.05,5.05,5.05
70.77,8.43,3.42,8.43,3.42,-3.42,-3.42,-3.40,5.02,5.01,5.02
71.48,8.42,3.45,8.42,3.45,-3.45,-3.45,-3.40,4.98,4.98,4.97
72.19,8.41,3.48,8.42,3.48,-3.48,-3.48,-3.41,4.94,4.94,4.94
72.91,8.41,3.51,8.41,3.51,-3.51,-3.50,-3.42,4.91,4.90,4.90
73.64,8.40,3.54,8.40,3.54,-3.54,-3.53,-3.43,4.87,4.87,4.86
74.38,8.39,3.56,8.40,3.57,-3.57,-3.56,-3.44,4.83,4.83,4.83
75.12,8.39,3.60,8.39,3.59,-3.60,-3.59,-3.45,4.79,4.79,4.80
75.87,8.38,3.63,8.38,3.63,-3.63,-3.62,-3.46,4.75,4.75,4.76
76.63,8.37,3.66,8.38,3.66,-3.66,-3.65,-3.48,4.71,4.71,4.71
77.40,8.37,3.70,8.37,3.70,-3.70,-3.68,-3.49,4.68,4.67,4.67
78.17,8.36,3.73,8.36,3.73,-3.73,-3.71,-3.51,4.63,4.63,4.63
78.95,8.35,3.77,8.36,3.77,-3.77,-3.74,-3.53,4.59,4.59,4.59
79.74,8.35,3.81,8.35,3.80,-3.80,-3.77,-3.55,4.55,4.55,4.54
80.54,8.33,3.84,8.34,3.84,-3.84,-3.80,-3.58,4.50,4.50,4.50
81.35,8.33,3.87,8.33,3.87,-3.87,-3.84,-3.60,4.46,4.46,4.46
82.16,8.32,3.91,8.32,3.91,-3.91,-3.87,-3.63,4.41,4.41,4.42
82.98,8.31,3.94,8.32,3.94,-3.95,-3.91,-3.66,4.37,4.37,4.37
83.81,8.31,3.98,8.31,3.98,-3.98,-3.94,-3.70,4.33,4.33,4.33
84.65,8.30,4.02,8.30,4.02,-4.02,-3.98,-3.74,4.28,4.28,4.28
85.50,8.29,4.06,8.30,4.06,-4.06,-4.01,-3.78,4.23,4.24,4.23
86.35,8.29,4.10,8.29,4.10,-4.10,-4.05,-3.82,4.20,4.19,4.19
87.22,8.27,4.13,8.28,4.14,-4.14,-4.09,-3.87,4.14,4.14,4.14
88.09,8.27,4.18,8.27,4.18,-4.18,-4.13,-3.91,4.10,4.09,4.09
88.97,8.25,4.21,8.26,4.22,-4.21,-4.17,-3.97,4.04,4.05,4.05
89.86,8.25,4.26,8.25,4.25,-4.25,-4.21,-4.02,4.00,4.00,4.00
90.76,8.24,4.29,8.24,4.29,-4.29,-4.25,-4.08,3.95,3.95,3.95
91.66,8.22,4.33,8.23,4.33,-4.33,-4.29,-4.14,3.89,3.90,3.90
92.58,8.21,4.37,8.21,4.37,-4.37,-4.33,-4.20,3.84,3.85,3.84
93.51,8.20,4.41,8.20,4.41,-4.41,-4.38,-4.27,3.79,3.79,3.80
94.44,8.19,4.45,8.19,4.45,-4.45,-4.42,-4.34,3.74,3.74,3.74
95.39,8.18,4.50,8.18,4.49,-4.50,-4.46,-4.41,3.69,3.69,3.69
96.34,8.17,4.54,8.17,4.54,-4.54,-4.51,-4.48,3.63,3.63,3.63
97.30,8.15,4.58,8.16,4.59,-4.59,-4.55,-4.56,3.57,3.57,3.57
98.28,8.15,4.64,8.15,4.63,-4.63,-4.60,-4.64,3.52,3.52,3.52
99.26,8.13,4.68,8.14,4.68,-4.68,-4.65,-4.72,3.45,3.45,3.45
100.25,8.12,4.73,8.12,4.73,-4.73,-4.69,-4.80,3.40,3.39,3.39
101.25,8.10,4.77,8.11,4.77,-4.78,-4.74,-4.89,3.33,3.33,3.34
102.27,8.09,4.83,8.09,4.82,-4.82,-4.79,-4.97,3.27,3.27,3.27
103.29,8.08,4.87,8.08,4.87,-4.87,-4.84,-5.06,3.21,3.21,3.21
104.32,8.06,4.92,8.07,4.92,-4.92,-4.89,-5.15,3.15,3.15,3.14
105.37,8.05,4.97,8.05,4.97,-4.96,-4.94,-5.24,3.09,3.09,3.08
106.42,8.03,5.01,8.04,5.01,-5.01,-4.99,-5.32,3.02,3.03,3.03
107.48,8.02,5.05,8.02,5.06,-5.05,-5.04,-5.41,2.97,2.97,2.97
108.56,8.00,5.10,8.00,5.10,-5.10,-5.09,-5.50,2.90,2.90,2.90
109.64,7.98,5.14,7.99,5.14,-5.14,-5.14,-5.58,2.84,2.84,2.84
110.74,7.96,5.18,7.97,5.19,-5.19,-5.19,-5.67,2.77,2.78,2.79
111.85,7.96,5.24,7.96,5.24,-5.23,-5.24,-5.75,2.73,2.72,2.72
112.97,7.94,5.28,7.94,5.28,-5.28,-5.29,-5.83,2.66,2.66,2.66
114.10,7.92,5.33,7.93,5.33,-5.33,-5.34,-5.90,2.60,2.60,2.60
115.24,7.90,5.36,7.91,5.37,-5.38,-5.39,-5.97,2.53,2.53,2.54
116.39,7.89,5.43,7.89,5.42,-5.42,-5.44,-6.04,2.47,2.47,2.46
117.55,7.87,5.48,7.87,5.47,-5.47,-5.49,-6.10,2.40,2.40,2.40
118.73,7.85,5.52,7.85,5.52,-5.52,-5.54,-6.16,2.33,2.33,2.33
119.92,7.82,5.57,7.83,5.57,-5.57,-5.58,-6.21,2.25,2.26,2.26
121.12,7.80,5.62,7.81,5.62,-5.62,-5.63,-6.25,2.18,2.18,2.18
122.33,7.78,5.67,7.78,5.67,-5.67,-5.68,-6.29,2.11,2.11,2.11
123.55,7.76,5.73,7.76,5.72,-5.72,-5.72,-6.32,2.04,2.04,2.04
124.79,7.73,5.77,7.73,5.77,-5.77,-5.77,-6.35,1.96,1.96,1.97
126.03,7.70,5.82,7.71,5.82,-5.82,-5.81,-6.36,1.88,1.89,1.88
127.29,7.67,5.86,7.68,5.87,-5.86,-5.86,-6.37,1.81,1.81,1.81
128.57,7.65,5.91,7.65,5.91,-5.91,-5.90,-6.38,1.75,1.74,1.74
129.85,7.62,5.95,7.62,5.95,-5.94,-5.94,-6.38,1.68,1.68,1.67
131.15,7.59,5.98,7.59,5.98,-5.98,-5.98,-6.37,1.62,1.62,1.61
132.46,7.56,6.01,7.56,6.01,-6.01,-6.01,-6.35,1.55,1.55,1.55
133.79,7.53,6.04,7.53,6.04,-6.04,-6.05,-6.34,1.50,1.49,1.50
135.12,7.50,6.06,7.50,6.06,-6.06,-6.08,-6.31,1.44,1.44,1.44
136.48,7.47,6.08,7.48,6.09,-6.09,-6.12,-6.28,1.39,1.39,1.39
137.84,7.45,6.11,7.45,6.11,-6.11,-6.15,-6.25,1.35,1.34,1.34
139.22,7.42,6.13,7.42,6.13,-6.13,-6.18,-6.22,1.30,1.30,1.30
140.61,7.39,6.14,7.40,6.15,-6.15,-6.21,-6.18,1.25,1.25,1.25
142.02,7.37,6.16,7.37,6.16,-6.16,-6.23,-6.14,1.21,1.21,1.21
143.44,7.34,6.18,7.35,6.18,-6.18,-6.26,-6.10,1.16,1.17,1.17
144.87,7.32,6.20,7.32,6.20,-6.20,-6.28,-6.05,1.13,1.13,1.13
146.32,7.30,6.22,7.30,6.21,-6.21,-6.30,-6.01,1.09,1.09,1.09
147.78,7.28,6.23,7.28,6.23,-6.23,-6.32,-5.97,1.06,1.05,1.06
149.26,7.26,6.25,7.26,6.24,-6.24,-6.34,-5.93,1.02,1.02,1.02
150.75,7.23,6.25,7.24,6.26,-6.26,-6.36,-5.89,0.97,0.98,0.98
152.26,7.22,6.28,7.22,6.28,-6.28,-6.38,-5.85,0.95,0.94,0.94
153.78,7.20,6.30,7.20,6.30,-6.30,-6.39,-5.81,0.91,0.91,0.91
155.32,7.19,6.32,7.19,6.32,-6.32,-6.40,-5.77,0.88,0.87,0.87
156.88,7.17,6.33,7.18,6.34,-6.34,-6.42,-5.74,0.84,0.84,0.84
158.44,7.16,6.36,7.16,6.36,-6.36,-6.43,-5.71,0.81,0.81,0.81
160.03,7.15,6.38,7.15,6.38,-6.38,-6.44,-5.68,0.77,0.77,0.77
161.63,7.14,6.40,7.14,6.40,-6.40,-6.45,-5.65,0.74,0.74,0.74
163.24,7.13,6.42,7.14,6.43,-6.42,-6.45,-5.63,0.71,0.71,0.71
164.88,7.13,6.45,7.13,6.44,-6.44,-6.46,-5.62,0.69,0.69,0.68
166.53,7.12,6.46,7.12,6.47,-6.46,-6.47,-5.60,0.66,0.66,0.66
168.19,7.11,6.48,7.12,6.48,-6.49,-6.47,-5.59,0.63,0.63,0.63
169.87,7.11,6.51,7.11,6.50,-6.51,-6.48,-5.59,0.61,0.61,0.61
171.57,7.10,6.51,7.11,6.52,-6.53,-6.48,-5.59,0.58,0.58,0.59
173.29,7.11,6.55,7.11,6.55,-6.54,-6.48,-5.59,0.57,0.57,0.56
175.02,7.10,6.57,7.11,6.56,-6.56,-6.49,-5.59,0.54,0.54,0.54
176.77,7.10,6.58,7.10,6.58,-6.58,-6.49,-5.61,0.53,0.53,0.52
178.54,7.09,6.59,7.10,6.59,-6.59,-6.49,-5.62,0.50,0.50,0.50
180.32,7.09,6.61,7.09,6.60,-6.61,-6.49,-5.64,0.49,0.48,0.49
182.13,7.07,6.61,7.08,6.62,-6.62,-6.49,-5.66,0.45,0.46,0.46
183.95,7.07,6.63,7.08,6.63,-6.63,-6.49,-5.69,0.44,0.45,0.44
185.79,7.07,6.64,7.07,6.64,-6.64,-6.49,-5.72,0.43,0.43,0.43
187.65,7.06,6.65,7.06,6.65,-6.65,-6.50,-5.76,0.42,0.41,0.41
189.52,7.04,6.65,7.05,6.65,-6.66,-6.50,-5.80,0.39,0.39,0.39
191.42,7.03,6.65,7.04,6.66,-6.66,-6.50,-5.84,0.37,0.38,0.38
193.33,7.03,6.67,7.03,6.67,-6.67,-6.50,-5.89,0.37,0.36,0.36
195.27,7.01,6.67,7.02,6.67,-6.67,-6.50,-5.94,0.35,0.35,0.35
197.22,7.00,6.68,7.00,6.67,-6.67,-6.50,-6.00,0.34,0.33,0.33
199.19,6.98,6.66,6.98,6.67,-6.67,-6.50,-6.05,0.32,0.32,0.32
201.18,6.96,6.66,6.97,6.66,-6.66,-6.50,-6.11,0.30,0.30,0.31
203.19,6.95,6.66,6.95,6.66,-6.66,-6.50,-6.18,0.30,0.29,0.29
205.23,6.92,6.65,6.93,6.65,-6.65,-6.49,-6.24,0.27,0.27,0.27
207.28,6.90,6.64,6.90,6.64,-6.64,-6.49,-6.31,0.26,0.26,0.26
209.35,6.87,6.63,6.88,6.63,-6.63,-6.49,-6.37,0.24,0.24,0.25
211.44,6.85,6.62,6.85,6.62,-6.62,-6.49,-6.44,0.23,0.23,0.23
213.56,6.83,6.62,6.83,6.61,-6.61,-6.49,-6.51,0.22,0.22,0.22
215.69,6.80,6.60,6.80,6.60,-6.60,-6.49,-6.58,0.21,0.21,0.21
217.85,6.77,6.58,6.78,6.59,-6.58,-6.49,-6.65,0.19,0.20,0.19
220.03,6.75,6.57,6.75,6.57,-6.57,-6.48,-6.71,0.19,0.18,0.18
222.23,6.72,6.55,6.72,6.55,-6.55,-6.48,-6.78,0.18,0.17,0.17
224.45,6.68,6.53,6.69,6.53,-6.53,-6.48,-6.84,0.15,0.16,0.16
226.70,6.65,6.51,6.66,6.51,-6.51,-6.47,-6.89,0.15,0.15,0.15
228.96,6.62,6.49,6.62,6.49,-6.49,-6.47,-6.95,0.14,0.13,0.14
231.25,6.59,6.47,6.59,6.47,-6.47,-6.47,-7.00,0.13,0.12,0.13
233.57,6.55,6.45,6.56,6.45,-6.45,-6.46,-7.04,0.11,0.11,0.11
235.90,6.52,6.42,6.52,6.42,-6.43,-6.46,-7.08,0.10,0.10,0.10
238.26,6.49,6.40,6.49,6.41,-6.41,-6.45,-7.11,0.09,0.09,0.09
240.64,6.45,6.38,6.46,6.39,-6.38,-6.44,-7.13,0.07,0.08,0.07
243.05,6.43,6.37,6.43,6.36,-6.36,-6.43,-7.14,0.07,0.07,0.06
245.48,6.39,6.34,6.39,6.34,-6.34,-6.42,-7.15,0.06,0.06,0.06
247.93,6.35,6.31,6.36,6.31,-6.31,-6.42,-7.15,0.04,0.05,0.05
250.41,6.32,6.28,6.32,6.28,-6.28,-6.40,-7.14,0.04,0.04,0.04
252.92,6.28,6.26,6.28,6.26,-6.26,-6.39,-7.12,0.03,0.02,0.02
255.45,6.24,6.23,6.24,6.23,-6.23,-6.38,-7.10,0.01,0.01,0.02
258.00,6.20,6.19,6.21,6.20,-6.21,-6.37,-7.06,-0.00,0.00,0.01
260.58,6.17,6.18,6.17,6.18,-6.18,-6.35,-7.02,-0.01,-0.01,-0.01
263.19,6.14,6.16,6.14,6.15,-6.15,-6.34,-6.97,-0.01,-0.01,-0.01
265.82,6.10,6.13,6.11,6.13,-6.13,-6.32,-6.91,-0.02,-0.02,-0.03
268.48,6.06,6.10,6.07,6.10,-6.10,-6.30,-6.85,-0.04,-0.03,-0.03
271.16,6.03,6.08,6.03,6.08,-6.07,-6.29,-6.78,-0.04,-0.04,-0.05
273.87,5.98,6.04,5.99,6.05,-6.05,-6.27,-6.70,-0.06,-0.06,-0.06
276.61,5.95,6.02,5.95,6.02,-6.02,-6.24,-6.62,-0.07,-0.07,-0.07
279.38,5.90,5.98,5.91,5.99,-5.99,-6.22,-6.54,-0.09,-0.08,-0.08
282.17,5.87,5.96,5.87,5.96,-5.97,-6.20,-6.45,-0.09,-0.10,-0.09
284.99,5.83,5.94,5.83,5.94,-5.94,-6.17,-6.36,-0.11,-0.11,-0.10
287.84,5.79,5.91,5.80,5.92,-5.91,-6.15,-6.26,-0.12,-0.11,-0.12
290.72,5.76,5.90,5.76,5.89,-5.89,-6.12,-6.17,-0.12,-0.13,-0.13
293.63,5.72,5.86,5.72,5.86,-5.86,-6.09,-6.07,-0.13,-0.14,-0.14
296.57,5.67,5.83,5.68,5.83,-5.83,-6.06,-5.98,-0.15,-0.15,-0.15
299.53,5.63,5.80,5.63,5.80,-5.80,-6.03,-5.88,-0.16,-0.16,-0.16
302.53,5.59,5.76,5.59,5.77,-5.77,-6.00,-5.78,-0.17,-0.17,-0.17
305.55,5.55,5.74,5.55,5.73,-5.73,-5.96,-5.69,-0.18,-0.18,-0.18
308.61,5.51,5.70,5.51,5.70,-5.70,-5.93,-5.60,-0.19,-0.18,-0.19
311.69,5.47,5.66,5.47,5.67,-5.66,-5.89,-5.50,-0.19,-0.19,-0.19
314.81,5.43,5.64,5.43,5.63,-5.63,-5.85,-5.41,-0.20,-0.20,-0.20
317.96,5.38,5.59,5.39,5.59,-5.59,-5.82,-5.33,-0.21,-0.20,-0.20
321.14,5.35,5.56,5.35,5.56,-5.56,-5.78,-5.24,-0.21,-0.21,-0.21
324.35,5.30,5.52,5.31,5.52,-5.52,-5.73,-5.16,-0.22,-0.22,-0.22
327.59,5.26,5.49,5.26,5.49,-5.49,-5.69,-5.08,-0.22,-0.22,-0.22
330.87,5.21,5.45,5.22,5.45,-5.45,-5.65,-5.00,-0.23,-0.23,-0.24
334.18,5.17,5.41,5.18,5.41,-5.41,-5.60,-4.93,-0.24,-0.24,-0.24
337.52,5.13,5.37,5.13,5.38,-5.37,-5.56,-4.86,-0.24,-0.24,-0.24
340.90,5.09,5.35,5.09,5.34,-5.34,-5.51,-4.80,-0.24,-0.25,-0.25
344.30,5.03,5.29,5.04,5.30,-5.30,-5.46,-4.73,-0.27,-0.26,-0.25
347.75,4.99,5.26,5.00,5.26,-5.26,-5.41,-4.68,-0.27,-0.27,-0.27
351.23,4.95,5.23,4.95,5.22,-5.23,-5.36,-4.62,-0.27,-0.28,-0.28
354.74,4.90,5.19,4.90,5.19,-5.19,-5.31,-4.57,-0.29,-0.28,-0.29
358.28,4.85,5.15,4.86,5.15,-5.15,-5.26,-4.52,-0.30,-0.29,-0.29
361.87,4.81,5.12,4.81,5.11,-5.12,-5.21,-4.47,-0.30,-0.31,-0.30
365.49,4.76,5.08,4.76,5.08,-5.08,-5.15,-4.43,-0.32,-0.32,-0.32
369.14,4.71,5.04,4.72,5.04,-5.04,-5.10,-4.39,-0.33,-0.33,-0.33
372.83,4.67,5.01,4.67,5.01,-5.01,-5.04,-4.36,-0.33,-0.34,-0.34
376.56,4.61,4.96,4.62,4.97,-4.97,-4.99,-4.33,-0.36,-0.35,-0.35
380.33,4.57,4.94,4.57,4.93,-4.93,-4.93,-4.30,-0.36,-0.36,-0.36
384.13,4.52,4.90,4.52,4.89,-4.89,-4.87,-4.27,-0.37,-0.37,-0.37
387.97,4.46,4.85,4.47,4.85,-4.85,-4.82,-4.25,-0.39,-0.38,-0.38
391.85,4.41,4.81,4.42,4.81,-4.81,-4.76,-4.23,-0.40,-0.40,-0.40
395.77,4.36,4.77,4.36,4.77,-4.77,-4.70,-4.21,-0.40,-0.41,-0.41
399.73,4.31,4.73,4.31,4.73,-4.73,-4.64,-4.20,-0.41,-0.42,-0.42
403.72,4.25,4.67,4.26,4.68,-4.68,-4.58,-4.19,-0.43,-0.42,-0.42
407.76,4.20,4.63,4.21,4.64,-4.64,-4.52,-4.18,-0.43,-0.43,-0.43
411.84,4.15,4.60,4.15,4.59,-4.59,-4.45,-4.17,-0.44,-0.44,-0.44
415.96,4.10,4.56,4.10,4.55,-4.55,-4.39,-4.16,-0.44,-0.45,-0.45
420.12,4.03,4.50,4.04,4.50,-4.50,-4.33,-4.15,-0.47,-0.46,-0.46
424.32,3.98,4.46,3.98,4.46,-4.46,-4.27,-4.15,-0.47,-0.47,-0.47
428.56,3.92,4.41,3.93,4.41,-4.41,-4.21,-4.14,-0.49,-0.49,-0.48
432.85,3.87,4.37,3.87,4.36,-4.36,-4.14,-4.13,-0.49,-0.50,-0.50
437.18,3.80,4.31,3.81,4.31,-4.31,-4.08,-4.13,-0.51,-0.51,-0.51
441.55,3.74,4.26,3.74,4.27,-4.27,-4.02,-4.12,-0.52,-0.52,-0.52
445.96,3.68,4.22,3.68,4.21,-4.22,-3.95,-4.12,-0.53,-0.54,-0.54
450.42,3.61,4.16,3.62,4.17,-4.16,-3.89,-4.11,-0.55,-0.55,-0.55
454.93,3.55,4.11,3.55,4.11,-4.11,-3.82,-4.10,-0.56,-0.56,-0.56
459.48,3.48,4.06,3.48,4.06,-4.06,-3.76,-4.09,-0.58,-0.58,-0.58
464.07,3.41,4.00,3.42,4.01,-4.01,-3.70,-4.07,-0.59,-0.59,-0.59
468.71,3.35,3.96,3.35,3.95,-3.95,-3.63,-4.05,-0.60,-0.60,-0.60
473.40,3.28,3.90,3.28,3.90,-3.90,-3.57,-4.03,-0.61,-0.62,-0.61
478.13,3.21,3.85,3.21,3.84,-3.84,-3.50,-4.01,-0.63,-0.63,-0.63
482.91,3.14,3.79,3.14,3.79,-3.78,-3.44,-3.98,-0.64,-0.64,-0.64
487.74,3.07,3.73,3.07,3.73,-3.73,-3.37,-3.95,-0.65,-0.65,-0.65
492.62,3.00,3.67,3.00,3.67,-3.67,-3.31,-3.92,-0.67,-0.67,-0.66
497.55,2.93,3.61,2.93,3.61,-3.61,-3.24,-3.88,-0.68,-0.68,-0.67
502.52,2.85,3.54,2.86,3.55,-3.55,-3.18,-3.84,-0.69,-0.69,-0.69
507.55,2.78,3.49,2.79,3.49,-3.49,-3.12,-3.79,-0.70,-0.70,-0.71
512.62,2.71,3.43,2.71,3.43,-3.43,-3.05,-3.74,-0.71,-0.71,-0.72
517.75,2.64,3.37,2.64,3.37,-3.36,-2.99,-3.68,-0.72,-0.72,-0.73
522.93,2.55,3.29,2.56,3.30,-3.30,-2.92,-3.62,-0.74,-0.74,-0.74
528.16,2.48,3.23,2.48,3.23,-3.23,-2.86,-3.56,-0.75,-0.75,-0.75
