frequency,raw,error,smoothed,error_smoothed,equalization,parametric_eq,fixed_band_eq,equalized_raw,equalized_smoothed,target
20.00,-1.06,-1.93,-1.06,-1.93,1.93,0.18,-0.63,0.87,0.87,0.87
20.20,-0.99,-1.85,-1.00,-1.86,1.87,0.15,-0.65,0.87,0.87,0.86
20.40,-0.94,-1.80,-0.94,-1.80,1.80,0.12,-0.66,0.86,0.86,0.86
20.61,-0.87,-1.72,-0.87,-1.73,1.73,0.09,-0.68,0.85,0.85,0.85
20.81,-0.80,-1.65,-0.81,-1.66,1.65,0.06,-0.69,0.85,0.84,0.85
21.02,-0.74,-1.59,-0.74,-1.58,1.57,0.03,-0.71,0.83,0.84,0.85
21.23,-0.66,-1.49,-0.67,-1.50,1.49,0.00,-0.73,0.83,0.82,0.83
21.44,-0.59,-1.40,-0.60,-1.41,1.41,-0.03,-0.75,0.81,0.81,0.81
21.66,-0.53,-1.32,-0.53,-1.31,1.31,-0.06,-0.77,0.78,0.79,0.79
21.87,-0.46,-1.22,-0.46,-1.22,1.22,-0.09,-0.78,0.76,0.76,0.76
22.09,-0.38,-1.12,-0.39,-1.13,1.12,-0.12,-0.80,0.74,0.74,0.74
22.31,-0.31,-1.03,-0.31,-1.02,1.02,-0.15,-0.82,0.71,0.71,0.72
22.54,-0.24,-0.93,-0.24,-0.92,0.92,-0.19,-0.84,0.68,0.69,0.69
22.76,-0.16,-0.82,-0.17,-0.82,0.83,-0.22,-0.87,0.66,0.66,0.66
22.99,-0.09,-0.72,-0.10,-0.72,0.73,-0.26,-0.89,0.63,0.63,0.63
23.22,-0.03,-0.63,-0.03,-0.62,0.63,-0.29,-0.91,0.60,0.60,0.59
23.45,0.05,-0.53,0.04,-0.53,0.53,-0.33,-0.93,0.58,0.58,0.57
23.69,0.12,-0.44,0.12,-0.43,0.43,-0.36,-0.96,0.55,0.55,0.55
23.92,0.20,-0.34,0.20,-0.34,0.34,-0.40,-0.98,0.54,0.54,0.53
24.16,0.28,-0.24,0.28,-0.24,0.24,-0.44,-1.00,0.52,0.52,0.52
24.40,0.36,-0.14,0.36,-0.14,0.14,-0.47,-1.03,0.50,0.50,0.50
24.65,0.44,-0.05,0.44,-0.04,0.04,-0.51,-1.05,0.48,0.48,0.48
24.89,0.52,0.06,0.52,0.06,-0.06,-0.55,-1.08,0.46,0.46,0.46
25.14,0.61,0.17,0.61,0.16,-0.16,-0.59,-1.11,0.44,0.44,0.44
25.39,0.69,0.27,0.69,0.27,-0.27,-0.63,-1.13,0.42,0.42,0.42
25.65,0.78,0.37,0.78,0.37,-0.37,-0.67,-1.16,0.41,0.40,0.41
25.91,0.86,0.48,0.86,0.47,-0.47,-0.71,-1.19,0.38,0.38,0.38
26.16,0.95,0.58,0.94,0.58,-0.58,-0.76,-1.22,0.37,0.37,0.37
26.43,1.03,0.68,1.03,0.68,-0.68,-0.80,-1.25,0.35,0.35,0.35
26.69,1.12,0.78,1.12,0.78,-0.78,-0.84,-1.28,0.34,0.34,0.34
26.96,1.20,0.88,1.19,0.88,-0.88,-0.89,-1.31,0.32,0.32,0.32
27.23,1.28,0.97,1.27,0.97,-0.98,-0.93,-1.34,0.30,0.30,0.30
27.50,1.35,1.06,1.35,1.07,-1.07,-0.98,-1.37,0.27,0.28,0.28
27.77,1.44,1.18,1.43,1.17,-1.17,-1.03,-1.40,0.27,0.26,0.26
28.05,1.52,1.27,1.51,1.27,-1.27,-1.07,-1.43,0.25,0.25,0.25
28.33,1.59,1.37,1.60,1.37,-1.36,-1.12,-1.46,0.23,0.24,0.22
28.62,1.68,1.47,1.67,1.46,-1.45,-1.17,-1.50,0.22,0.22,0.21
28.90,1.75,1.54,1.75,1.55,-1.54,-1.22,-1.53,0.20,0.20,0.21
29.19,1.82,1.63,1.82,1.63,-1.64,-1.27,-1.56,0.18,0.19,0.19
29.48,1.91,1.72,1.90,1.72,-1.73,-1.32,-1.60,0.18,0.18,0.19
29.78,1.98,1.81,1.98,1.81,-1.81,-1.37,-1.63,0.16,0.16,0.17
30.08,2.06,1.90,2.05,1.90,-1.90,-1.43,-1.66,0.16,0.15,0.15
30.38,2.12,1.98,2.12,1.99,-1.98,-1.48,-1.70,0.13,0.14,0.13
30.68,2.19,2.08,2.19,2.08,-2.07,-1.54,-1.73,0.12,0.12,0.11
30.99,2.26,2.17,2.25,2.16,-2.15,-1.59,-1.77,0.11,0.10,0.09
31.30,2.31,2.23,2.31,2.23,-2.23,-1.65,-1.81,0.08,0.08,0.08
31.61,2.37,2.30,2.36,2.30,-2.31,-1.70,-1.84,0.06,0.06,0.07
31.93,2.42,2.38,2.42,2.38,-2.38,-1.76,-1.88,0.03,0.03,0.04
32.24,2.47,2.45,2.47,2.45,-2.46,-1.82,-1.92,0.01,0.01,0.01
32.57,2.53,2.53,2.53,2.53,-2.53,-1.88,-1.95,-0.01,-0.01,-0.01
32.89,2.58,2.60,2.58,2.60,-2.60,-1.94,-1.99,-0.03,-0.03,-0.02
33.22,2.64,2.69,2.63,2.68,-2.68,-2.00,-2.03,-0.04,-0.05,-0.05
33.55,2.68,2.74,2.68,2.75,-2.75,-2.06,-2.07,-0.07,-0.07,-0.06
33.89,2.73,2.82,2.73,2.82,-2.82,-2.12,-2.11,-0.09,-0.09,-0.09
34.23,2.78,2.88,2.77,2.88,-2.88,-2.19,-2.16,-0.10,-0.11,-0.11
34.57,2.82,2.96,2.81,2.95,-2.94,-2.25,-2.20,-0.13,-0.13,-0.14
34.92,2.85,3.01,2.85,3.01,-3.00,-2.32,-2.24,-0.15,-0.15,-0.16
35.27,2.89,3.06,2.88,3.06,-3.06,-2.38,-2.29,-0.17,-0.18,-0.17
35.62,2.92,3.11,2.92,3.11,-3.12,-2.45,-2.33,-0.20,-0.20,-0.19
35.97,2.95,3.17,2.95,3.17,-3.17,-2.52,-2.38,-0.23,-0.22,-0.23
36.33,2.99,3.23,2.98,3.23,-3.23,-2.59,-2.43,-0.25,-0.25,-0.24
36.70,3.02,3.28,3.02,3.29,-3.29,-2.66,-2.48,-0.28,-0.27,-0.26
37.06,3.07,3.36,3.07,3.35,-3.36,-2.73,-2.53,-0.29,-0.29,-0.29
37.43,3.12,3.42,3.12,3.43,-3.43,-2.80,-2.59,-0.31,-0.31,-0.31
37.81,3.17,3.50,3.17,3.50,-3.50,-2.87,-2.64,-0.33,-0.33,-0.33
38.19,3.23,3.58,3.22,3.57,-3.57,-2.94,-2.70,-0.34,-0.35,-0.35
38.57,3.28,3.64,3.28,3.64,-3.65,-3.02,-2.76,-0.37,-0.37,-0.37
38.95,3.33,3.72,3.33,3.72,-3.72,-3.09,-2.83,-0.40,-0.39,-0.39
39.34,3.39,3.80,3.39,3.80,-3.80,-3.17,-2.89,-0.41,-0.41,-0.41
39.74,3.45,3.89,3.44,3.88,-3.88,-3.25,-2.96,-0.43,-0.44,-0.45
40.14,3.50,3.96,3.50,3.96,-3.96,-3.32,-3.02,-0.46,-0.46,-0.46
40.54,3.55,4.03,3.55,4.03,-4.03,-3.40,-3.10,-0.49,-0.48,-0.48
40.94,3.62,4.11,3.61,4.11,-4.11,-3.48,-3.17,-0.49,-0.50,-0.50
41.35,3.67,4.19,3.67,4.19,-4.18,-3.56,-3.25,-0.52,-0.52,-0.52
41.76,3.73,4.26,3.73,4.26,-4.26,-3.64,-3.32,-0.53,-0.53,-0.53
42.18,3.78,4.33,3.78,4.33,-4.33,-3.72,-3.41,-0.56,-0.55,-0.55
42.60,3.84,4.41,3.83,4.40,-4.41,-3.80,-3.49,-0.57,-0.57,-0.57
43.03,3.89,4.46,3.89,4.47,-4.48,-3.89,-3.58,-0.59,-0.59,-0.58
43.46,3.94,4.54,3.94,4.55,-4.55,-3.97,-3.67,-0.61,-0.61,-0.60
43.90,4.00,4.63,3.99,4.62,-4.62,-4.05,-3.76,-0.62,-0.63,-0.64
44.33,4.04,4.70,4.03,4.69,-4.69,-4.14,-3.85,-0.65,-0.65,-0.66
44.78,4.07,4.74,4.07,4.75,-4.75,-4.23,-3.95,-0.68,-0.68,-0.68
45.23,4.12,4.82,4.11,4.81,-4.81,-4.31,-4.05,-0.70,-0.70,-0.70
45.68,4.15,4.86,4.15,4.87,-4.87,-4.40,-4.16,-0.72,-0.72,-0.72
46.13,4.20,4.94,4.19,4.93,-4.93,-4.49,-4.26,-0.73,-0.73,-0.74
46.60,4.23,4.98,4.23,4.98,-4.98,-4.57,-4.37,-0.75,-0.75,-0.75
47.06,4.27,5.03,4.27,5.03,-5.03,-4.66,-4.48,-0.77,-0.77,-0.77
47.53,4.30,5.08,4.30,5.08,-5.09,-4.75,-4.60,-0.79,-0.79,-0.78
48.01,4.34,5.14,4.33,5.14,-5.14,-4.84,-4.71,-0.81,-0.81,-0.80
48.49,4.37,5.19,4.37,5.19,-5.20,-4.93,-4.83,-0.84,-0.83,-0.83
48.97,4.41,5.26,4.41,5.26,-5.26,-5.02,-4.96,-0.86,-0.86,-0.85
49.46,4.45,5.33,4.45,5.33,-5.33,-5.11,-5.08,-0.88,-0.88,-0.88
49.96,4.49,5.39,4.49,5.39,-5.39,-5.20,-5.20,-0.90,-0.90,-0.91
50.46,4.54,5.46,4.53,5.46,-5.46,-5.28,-5.33,-0.92,-0.92,-0.93
50.96,4.58,5.52,4.58,5.53,-5.52,-5.37,-5.46,-0.94,-0.94,-0.94
51.47,4.62,5.59,4.62,5.59,-5.58,-5.46,-5.59,-0.97,-0.97,-0.97
51.99,4.66,5.65,4.65,5.64,-5.64,-5.55,-5.72,-0.99,-0.99,-0.99
52.51,4.69,5.69,4.69,5.70,-5.70,-5.64,-5.85,-1.01,-1.01,-1.00
53.03,4.73,5.75,4.73,5.75,-5.76,-5.73,-5.98,-1.03,-1.03,-1.02
53.56,4.77,5.82,4.77,5.81,-5.81,-5.82,-6.11,-1.04,-1.04,-1.05
54.10,4.81,5.88,4.80,5.87,-5.86,-5.90,-6.23,-1.05,-1.06,-1.07
54.64,4.82,5.91,4.82,5.92,-5.91,-5.99,-6.36,-1.09,-1.09,-1.09
55.18,4.85,5.96,4.85,5.96,-5.96,-6.08,-6.48,-1.11,-1.11,-1.11
55.74,4.87,6.00,4.87,6.00,-6.00,-6.16,-6.60,-1.13,-1.14,-1.13
56.29,4.89,6.04,4.89,6.04,-6.04,-6.24,-6.71,-1.16,-1.15,-1.15
56.86,4.91,6.08,4.91,6.08,-6.08,-6.33,-6.82,-1.17,-1.17,-1.17
57.42,4.93,6.12,4.93,6.12,-6.12,-6.41,-6.92,-1.19,-1.19,-1.20
58.00,4.95,6.16,4.95,6.16,-6.16,-6.49,-7.02,-1.21,-1.21,-1.21
58.58,4.97,6.19,4.97,6.19,-6.19,-6.56,-7.11,-1.23,-1.22,-1.22
59.16,5.00,6.23,4.99,6.23,-6.23,-6.64,-7.19,-1.24,-1.24,-1.24
59.76,5.01,6.27,5.01,6.27,-6.27,-6.71,-7.27,-1.26,-1.26,-1.26
60.35,5.03,6.31,5.02,6.31,-6.31,-6.79,-7.33,-1.28,-1.29,-1.28
60.96,5.04,6.34,5.04,6.35,-6.35,-6.85,-7.38,-1.31,-1.31,-1.30
61.57,5.06,6.39,5.06,6.39,-6.39,-6.92,-7.43,-1.33,-1.33,-1.33
62.18,5.08,6.44,5.07,6.43,-6.43,-6.99,-7.46,-1.35,-1.35,-1.36
62.80,5.09,6.46,5.09,6.47,-6.46,-7.05,-7.49,-1.37,-1.38,-1.38
63.43,5.10,6.50,5.10,6.50,-6.50,-7.11,-7.50,-1.40,-1.40,-1.40
64.07,5.11,6.53,5.11,6.53,-6.53,-7.17,-7.51,-1.42,-1.42,-1.42
64.71,5.13,6.56,5.12,6.56,-6.56,-7.22,-7.50,-1.44,-1.44,-1.44
65.35,5.14,6.59,5.13,6.59,-6.59,-7.27,-7.49,-1.46,-1.46,-1.46
66.01,5.14,6.61,5.15,6.62,-6.62,-7.32,-7.46,-1.48,-1.47,-1.47
66.67,5.16,6.65,5.15,6.65,-6.65,-7.36,-7.43,-1.49,-1.49,-1.49
67.33,5.17,6.68,5.16,6.67,-6.67,-7.40,-7.39,-1.50,-1.51,-1.51
68.01,5.16,6.69,5.17,6.70,-6.69,-7.44,-7.35,-1.54,-1.53,-1.53
68.69,5.17,6.72,5.16,6.72,-6.71,-7.47,-7.29,-1.54,-1.55,-1.55
69.37,5.16,6.73,5.16,6.73,-6.73,-7.50,-7.24,-1.57,-1.57,-1.57
70.07,5.15,6.74,5.15,6.74,-6.74,-7.52,-7.17,-1.59,-1.59,-1.60
70.77,5.14,6.75,5.14,6.75,-6.75,-7.55,-7.11,-1.61,-1.61,-1.61
71.48,5.13,6.76,5.12,6.76,-6.76,-7.56,-7.04,-1.63,-1.63,-1.63
72.19,5.11,6.76,5.11,6.77,-6.76,-7.58,-6.97,-1.66,-1.65,-1.65
72.91,5.09,6.78,5.09,6.77,-6.77,-7.59,-6.90,-1.68,-1.68,-1.69
73.64,5.07,6.78,5.06,6.77,-6.77,-7.60,-6.82,-1.71,-1.71,-1.71
74.38,5.04,6.77,5.05,6.78,-6.78,-7.60,-6.75,-1.74,-1.73,-1.73
75.12,5.04,6.79,5.03,6.78,-6.79,-7.60,-6.68,-1.75,-1.76,-1.75
75.87,5.02,6.80,5.02,6.79,-6.80,-7.59,-6.61,-1.79,-1.79,-1.78
76.63,5.01,6.80,5.01,6.81,-6.82,-7.59,-6.54,-1.81,-1.81,-1.80
77.40,5.01,6.83,5.01,6.84,-6.84,-7.58,-6.47,-1.83,-1.83,-1.82
78.17,5.01,6.87,5.01,6.86,-6.86,-7.56,-6.40,-1.85,-1.85,-1.86
78.95,5.02,6.90,5.01,6.89,-6.89,-7.54,-6.34,-1.87,-1.88,-1.88
79.74,5.01,6.91,5.01,6.92,-6.91,-7.52,-6.28,-1.91,-1.90,-1.90
80.54,5.01,6.94,5.01,6.94,-6.94,-7.50,-6.22,-1.94,-1.93,-1.93
81.35,5.02,6.98,5.01,6.97,-6.97,-7.47,-6.17,-1.95,-1.96,-1.96
82.16,5.01,7.00,5.01,7.00,-7.00,-7.44,-6.12,-1.99,-1.99,-1.99
82.98,5.00,7.01,5.00,7.02,-7.02,-7.41,-6.08,-2.02,-2.02,-2.01
83.81,4.99,7.04,4.99,7.04,-7.04,-7.37,-6.04,-2.05,-2.05,-2.05
84.65,4.97,7.05,4.97,7.05,-7.05,-7.34,-6.00,-2.08,-2.08,-2.09
85.50,4.96,7.07,4.95,7.06,-7.06,-7.30,-5.97,-2.10,-2.11,-2.11
86.35,4.93,7.07,4.93,7.07,-7.06,-7.25,-5.94,-2.13,-2.14,-2.14
87.22,4.89,7.06,4.89,7.06,-7.06,-7.21,-5.91,-2.17,-2.17,-2.18
88.09,4.85,7.06,4.84,7.05,-7.04,-7.17,-5.89,-2.20,-2.20,-2.21
88.97,4.79,7.02,4.79,7.03,-7.03,-7.12,-5.88,-2.24,-2.23,-2.23
89.86,4.74,7.00,4.74,7.00,-7.00,-7.07,-5.87,-2.27,-2.27,-2.26
90.76,4.68,6.98,4.67,6.97,-6.98,-7.02,-5.86,-2.30,-2.30,-2.30
91.66,4.61,6.94,4.61,6.95,-6.94,-6.97,-5.86,-2.34,-2.33,-2.33
92.58,4.55,6.92,4.54,6.91,-6.91,-6.92,-5.86,-2.36,-2.37,-2.38
93.51,4.48,6.87,4.48,6.87,-6.88,-6.87,-5.87,-2.40,-2.40,-2.39
94.44,4.41,6.84,4.41,6.84,-6.84,-6.81,-5.88,-2.43,-2.43,-2.43
95.39,4.34,6.80,4.33,6.80,-6.80,-6.76,-5.90,-2.47,-2.47,-2.47
96.34,4.26,6.77,4.26,6.77,-6.77,-6.71,-5.92,-2.51,-2.51,-2.51
97.30,4.18,6.73,4.18,6.73,-6.73,-6.65,-5.94,-2.55,-2.55,-2.55
98.28,4.11,6.69,4.11,6.70,-6.70,-6.60,-5.97,-2.59,-2.59,-2.59
99.26,4.04,6.66,4.04,6.66,-6.67,-6.54,-5.99,-2.63,-2.63,-2.63
100.25,3.97,6.63,3.97,6.63,-6.63,-6.49,-6.03,-2.67,-2.67,-2.66
101.25,3.90,6.60,3.90,6.60,-6.60,-6.43,-6.06,-2.71,-2.71,-2.70
102.27,3.83,6.57,3.83,6.57,-6.57,-6.38,-6.10,-2.75,-2.74,-2.74
103.29,3.76,6.56,3.76,6.55,-6.54,-6.32,-6.14,-2.78,-2.78,-2.80
104.32,3.69,6.51,3.68,6.52,-6.51,-6.27,-6.18,-2.82,-2.82,-2.83
105.37,3.61,6.48,3.60,6.48,-6.47,-6.22,-6.22,-2.87,-2.87,-2.87
106.42,3.52,6.43,3.52,6.43,-6.44,-6.16,-6.26,-2.92,-2.91,-2.91
107.48,3.44,6.39,3.44,6.40,-6.40,-6.11,-6.30,-2.96,-2.96,-2.95
108.56,3.36,6.37,3.35,6.36,-6.36,-6.06,-6.34,-3.00,-3.01,-3.01
109.64,3.27,6.31,3.27,6.32,-6.32,-6.01,-6.38,-3.05,-3.05,-3.05
110.74,3.19,6.28,3.18,6.28,-6.28,-5.96,-6.42,-3.10,-3.10,-3.10
111.85,3.10,6.23,3.09,6.24,-6.24,-5.91,-6.45,-3.15,-3.15,-3.13
112.97,3.01,6.21,3.01,6.20,-6.21,-5.86,-6.48,-3.20,-3.20,-3.20
114.10,2.92,6.16,2.93,6.17,-6.17,-5.81,-6.51,-3.25,-3.24,-3.24
115.24,2.85,6.13,2.84,6.13,-6.12,-5.77,-6.53,-3.28,-3.28,-3.29
116.39,2.76,6.09,2.75,6.08,-6.08,-5.72,-6.55,-3.32,-3.33,-3.33
117.55,2.65,6.03,2.65,6.03,-6.03,-5.67,-6.56,-3.38,-3.37,-3.38
118.73,2.55,5.97,2.55,5.97,-5.97,-5.63,-6.57,-3.42,-3.42,-3.43
119.92,2.45,5.91,2.44,5.91,-5.91,-5.58,-6.57,-3.46,-3.46,-3.46
121.12,2.34,5.85,2.34,5.85,-5.84,-5.54,-6.56,-3.51,-3.51,-3.51
122.33,2.23,5.78,2.23,5.77,-5.77,-5.50,-6.54,-3.55,-3.55,-3.55
123.55,2.11,5.70,2.11,5.70,-5.70,-5.45,-6.52,-3.59,-3.59,-3.59
124.79,2.00,5.62,2.00,5.62,-5.63,-5.41,-6.48,-3.63,-3.63,-3.62
126.03,1.88,5.54,1.88,5.55,-5.55,-5.37,-6.44,-3.68,-3.67,-3.67
127.29,1.77,5.48,1.76,5.48,-5.48,-5.32,-6.39,-3.71,-3.72,-3.71
128.57,1.65,5.40,1.65,5.40,-5.40,-5.28,-6.33,-3.76,-3.75,-3.75
129.85,1.54,5.33,1.54,5.33,-5.33,-5.24,-6.26,-3.79,-3.79,-3.80
131.15,1.43,5.26,1.43,5.26,-5.25,-5.19,-6.19,-3.82,-3.83,-3.83
132.46,1.32,5.18,1.32,5.18,-5.18,-5.15,-6.10,-3.86,-3.86,-3.86
133.79,1.21,5.10,1.21,5.10,-5.10,-5.11,-6.02,-3.89,-3.90,-3.89
135.12,1.10,5.03,1.10,5.02,-5.03,-5.06,-5.92,-3.93,-3.93,-3.93
136.48,0.99,4.94,0.99,4.95,-4.95,-5.01,-5.82,-3.97,-3.97,-3.95
137.84,0.89,4.87,0.89,4.88,-4.88,-4.96,-5.70,-4.00,-4.00,-3.98
139.22,0.80,4.81,0.80,4.81,-4.81,-4.91,-5.59,-4.02,-4.02,-4.01
140.61,0.71,4.75,0.71,4.75,-4.74,-4.86,-5.47,-4.04,-4.04,-4.04
142.02,0.63,4.68,0.62,4.68,-4.68,-4.81,-5.35,-4.05,-4.05,-4.05
143.44,0.54,4.61,0.54,4.61,-4.61,-4.75,-5.23,-4.07,-4.07,-4.08
144.87,0.45,4.54,0.45,4.54,-4.53,-4.69,-5.10,-4.09,-4.09,-4.09
146.32,0.36,4.47,0.35,4.46,-4.46,-4.63,-4.97,-4.10,-4.11,-4.11
147.78,0.26,4.38,0.26,4.38,-4.39,-4.57,-4.84,-4.13,-4.13,-4.13
149.26,0.16,4.30,0.16,4.31,-4.31,-4.50,-4.71,-4.15,-4.15,-4.14
150.75,0.06,4.23,0.06,4.23,-4.23,-4.44,-4.57,-4.17,-4.17,-4.18
152.26,-0.03,4.16,-0.04,4.15,-4.15,-4.37,-4.44,-4.19,-4.19,-4.19
153.78,-0.13,4.07,-0.13,4.08,-4.08,-4.30,-4.31,-4.21,-4.21,-4.20
155.32,-0.22,4.00,-0.22,4.00,-4.00,-4.22,-4.17,-4.23,-4.23,-4.23
156.88,-0.31,3.93,-0.32,3.93,-3.93,-4.15,-4.04,-4.24,-4.25,-4.24
158.44,-0.41,3.85,-0.41,3.86,-3.86,-4.07,-3.91,-4.27,-4.26,-4.26
160.03,-0.49,3.79,-0.50,3.79,-3.79,-3.99,-3.78,-4.28,-4.29,-4.28
161.63,-0.59,3.72,-0.59,3.72,-3.72,-3.91,-3.65,-4.31,-4.31,-4.31
163.24,-0.68,3.65,-0.68,3.65,-3.65,-3.82,-3.52,-4.33,-4.33,-4.33
164.88,-0.76,3.58,-0.77,3.58,-3.58,-3.74,-3.39,-4.34,-4.35,-4.34
166.53,-0.85,3.51,-0.85,3.51,-3.51,-3.66,-3.27,-4.37,-4.37,-4.36
168.19,-0.94,3.45,-0.94,3.45,-3.45,-3.57,-3.14,-4.39,-4.39,-4.39
169.87,-1.03,3.38,-1.03,3.38,-3.38,-3.48,-3.02,-4.41,-4.41,-4.41
171.57,-1.12,3.32,-1.12,3.31,-3.31,-3.39,-2.90,-4.44,-4.43,-4.44
173.29,-1.21,3.24,-1.21,3.24,-3.25,-3.30,-2.78,-4.46,-4.46,-4.46
175.02,-1.30,3.18,-1.31,3.18,-3.18,-3.22,-2.67,-4.49,-4.49,-4.48
176.77,-1.40,3.12,-1.40,3.12,-3.12,-3.13,-2.55,-4.52,-4.52,-4.52
178.54,-1.49,3.06,-1.49,3.06,-3.06,-3.04,-2.44,-4.55,-4.55,-4.55
180.32,-1.58,3.00,-1.58,3.00,-3.00,-2.95,-2.33,-4.58,-4.58,-4.58
182.13,-1.67,2.93,-1.68,2.94,-2.93,-2.86,-2.22,-4.61,-4.61,-4.60
183.95,-1.77,2.88,-1.77,2.87,-2.87,-2.77,-2.11,-4.64,-4.64,-4.65
185.79,-1.86,2.81,-1.87,2.81,-2.80,-2.68,-2.00,-4.67,-4.67,-4.67
187.65,-1.96,2.74,-1.97,2.74,-2.73,-2.59,-1.90,-4.70,-4.70,-4.71
189.52,-2.07,2.66,-2.07,2.66,-2.66,-2.50,-1.80,-4.73,-4.73,-4.73
191.42,-2.17,2.59,-2.18,2.58,-2.59,-2.41,-1.70,-4.76,-4.76,-4.76
193.33,-2.28,2.50,-2.28,2.50,-2.51,-2.32,-1.60,-4.79,-4.79,-4.78
195.27,-2.39,2.42,-2.39,2.42,-2.42,-2.23,-1.50,-4.82,-4.82,-4.82
197.22,-2.50,2.33,-2.50,2.34,-2.34,-2.14,-1.41,-4.84,-4.84,-4.84
199.19,-2.61,2.27,-2.61,2.26,-2.25,-2.05,-1.31,-4.87,-4.87,-4.88
201.18,-2.72,2.17,-2.73,2.17,-2.16,-1.95,-1.22,-4.89,-4.89,-4.89
203.19,-2.84,2.07,-2.84,2.07,-2.08,-1.86,-1.13,-4.92,-4.92,-4.91
205.23,-2.95,1.99,-2.95,1.98,-1.98,-1.77,-1.05,-4.94,-4.94,-4.94
207.28,-3.06,1.88,-3.06,1.89,-1.89,-1.68,-0.96,-4.95,-4.95,-4.94
209.35,-3.17,1.80,-3.17,1.80,-1.80,-1.59,-0.88,-4.97,-4.97,-4.97
211.44,-3.28,1.72,-3.29,1.70,-1.70,-1.50,-0.79,-4.98,-4.99,-5.00
213.56,-3.40,1.60,-3.40,1.61,-1.60,-1.41,-0.72,-5.00,-5.00,-5.01
215.69,-3.51,1.49,-3.51,1.50,-1.50,-1.32,-0.64,-5.02,-5.02,-5.01
217.85,-3.62,1.40,-3.62,1.40,-1.40,-1.22,-0.56,-5.03,-5.03,-5.02
220.03,-3.73,1.30,-3.73,1.30,-1.30,-1.13,-0.49,-5.03,-5.03,-5.03
222.23,-3.83,1.21,-3.83,1.20,-1.20,-1.04,-0.42,-5.03,-5.03,-5.04
224.45,-3.93,1.09,-3.93,1.10,-1.10,-0.94,-0.36,-5.03,-5.03,-5.03
226.70,-4.03,0.99,-4.03,1.00,-1.00,-0.85,-0.29,-5.03,-5.03,-5.02
228.96,-4.12,0.90,-4.13,0.89,-0.90,-0.75,-0.23,-5.02,-5.02,-5.02
231.25,-4.22,0.79,-4.22,0.79,-0.80,-0.66,-0.17,-5.02,-5.02,-5.01
233.57,-4.31,0.69,-4.31,0.69,-0.70,-0.56,-0.12,-5.01,-5.01,-5.01
235.90,-4.40,0.59,-4.40,0.59,-0.60,-0.46,-0.07,-5.00,-5.00,-4.99
238.26,-4.48,0.50,-4.49,0.50,-0.49,-0.36,-0.02,-4.98,-4.98,-4.99
240.64,-4.57,0.39,-4.57,0.40,-0.39,-0.27,0.02,-4.96,-4.96,-4.96
243.05,-4.65,0.30,-4.66,0.29,-0.28,-0.17,0.06,-4.94,-4.94,-4.95
245.48,-4.75,0.17,-4.75,0.18,-0.17,-0.07,0.10,-4.93,-4.92,-4.92
247.93,-4.84,0.06,-4.84,0.07,-0.06,0.03,0.14,-4.90,-4.90,-4.90
250.41,-4.93,-0.04,-4.94,-0.05,0.06,0.13,0.16,-4.88,-4.88,-4.89
252.92,-5.03,-0.17,-5.04,-0.17,0.18,0.22,0.19,-4.86,-4.86,-4.86
255.45,-5.14,-0.31,-5.14,-0.30,0.30,0.32,0.21,-4.84,-4.84,-4.83
258.00,-5.24,-0.42,-5.24,-0.43,0.43,0.42,0.23,-4.82,-4.82,-4.82
260.58,-5.34,-0.55,-5.35,-0.55,0.55,0.51,0.25,-4.79,-4.80,-4.79
263.19,-5.44,-0.68,-5.44,-0.67,0.67,0.60,0.26,-4.77,-4.77,-4.77
265.82,-5.54,-0.79,-5.54,-0.80,0.79,0.69,0.27,-4.75,-4.75,-4.75
268.48,-5.63,-0.92,-5.63,-0.91,0.91,0.78,0.28,-4.72,-4.72,-4.72
271.16,-5.71,-1.02,-5.72,-1.03,1.02,0.86,0.28,-4.69,-4.69,-4.69
273.87,-5.80,-1.13,-5.80,-1.13,1.13,0.94,0.28,-4.67,-4.67,-4.67
276.61,-5.88,-1.24,-5.88,-1.23,1.24,1.01,0.28,-4.64,-4.64,-4.65
279.38,-5.95,-1.32,-5.96,-1.33,1.34,1.08,0.28,-4.61,-4.62,-4.63
282.17,-6.02,-1.42,-6.02,-1.42,1.43,1.15,0.27,-4.59,-4.59,-4.60
284.99,-6.08,-1.51,-6.08,-1.51,1.51,1.21,0.26,-4.57,-4.57,-4.58
287.84,-6.13,-1.58,-6.13,-1.58,1.58,1.26,0.25,-4.56,-4.55,-4.55
290.72,-6.15,-1.63,-6.16,-1.63,1.62,1.30,0.24,-4.53,-4.53,-4.52
293.63,-6.16,-1.67,-6.16,-1.66,1.65,1.34,0.23,-4.51,-4.51,-4.50
296.57,-6.13,-1.67,-6.14,-1.66,1.65,1.37,0.21,-4.48,-4.48,-4.47
299.53,-6.08,-1.64,-6.09,-1.65,1.62,1.39,0.20,-4.46,-4.46,-4.44
302.53,-6.01,-1.59,-6.01,-1.59,1.57,1.41,0.18,-4.44,-4.43,-4.42
305.55,-5.90,-1.53,-5.90,-1.51,1.50,1.42,0.16,-4.41,-4.40,-4.38
308.61,-5.75,-1.41,-5.76,-1.41,1.40,1.42,0.14,-4.35,-4.36,-4.35
311.69,-5.60,-1.29,-5.60,-1.30,1.29,1.41,0.13,-4.31,-4.31,-4.31
314.81,-5.44,-1.18,-5.44,-1.17,1.18,1.40,0.11,-4.26,-4.26,-4.26
317.96,-5.29,-1.05,-5.29,-1.05,1.07,1.38,0.09,-4.22,-4.22,-4.24
321.14,-5.15,-0.94,-5.16,-0.94,0.97,1.36,0.07,-4.19,-4.19,-4.22
324.35,-5.04,-0.85,-5.04,-0.85,0.87,1.33,0.05,-4.17,-4.17,-4.19
327.59,-4.94,-0.78,-4.94,-0.78,0.80,1.29,0.02,-4.15,-4.15,-4.16
330.87,-4.86,-0.73,-4.86,-0.73,0.74,1.25,0.00,-4.12,-4.13,-4.13
334.18,-4.80,-0.69,-4.80,-0.69,0.70,1.21,-0.02,-4.11,-4.11,-4.11
337.52,-4.75,-0.66,-4.76,-0.66,0.67,1.17,-0.04,-4.09,-4.09,-4.10
340.90,-4.72,-0.66,-4.72,-0.65,0.65,1.12,-0.06,-4.07,-4.07,-4.07
344.30,-4.70,-0.65,-4.70,-0.65,0.65,1.07,-0.08,-4.06,-4.05,-4.05
347.75,-4.68,-0.65,-4.68,-0.65,0.65,1.01,-0.10,-4.03,-4.03,-4.03
351.23,-4.66,-0.65,-4.66,-0.65,0.66,0.96,-0.12,-4.01,-4.01,-4.01
354.74,-4.64,-0.65,-4.65,-0.66,0.66,0.91,-0.14,-3.98,-3.99,-3.99
358.28,-4.65,-0.68,-4.65,-0.67,0.67,0.85,-0.17,-3.98,-3.98,-3.97
361.87,-4.64,-0.69,-4.64,-0.69,0.68,0.79,-0.19,-3.97,-3.97,-3.96
365.49,-4.63,-0.70,-4.63,-0.69,0.68,0.74,-0.21,-3.95,-3.95,-3.94
369.14,-4.61,-0.69,-4.61,-0.68,0.68,0.68,-0.23,-3.94,-3.93,-3.93
372.83,-4.58,-0.67,-4.59,-0.67,0.67,0.63,-0.25,-3.91,-3.91,-3.91
376.56,-4.55,-0.65,-4.55,-0.66,0.66,0.57,-0.27,-3.89,-3.89,-3.90
380.33,-4.52,-0.65,-4.52,-0.65,0.65,0.52,-0.29,-3.87,-3.87,-3.87
384.13,-4.48,-0.63,-4.49,-0.63,0.63,0.46,-0.31,-3.85,-3.85,-3.85
387.97,-4.45,-0.62,-4.45,-0.62,0.62,0.41,-0.33,-3.84,-3.83,-3.83
391.85,-4.41,-0.59,-4.41,-0.59,0.60,0.36,-0.35,-3.81,-3.81,-3.82
395.77,-4.37,-0.58,-4.38,-0.58,0.58,0.31,-0.37,-3.79,-3.79,-3.80
399.73,-4.33,-0.56,-4.33,-0.55,0.56,0.26,-0.39,-3.77,-3.77,-3.78
403.72,-4.29,-0.54,-4.29,-0.54,0.53,0.21,-0.41,-3.76,-3.76,-3.76
407.76,-4.24,-0.51,-4.24,-0.51,0.50,0.16,-0.43,-3.74,-3.74,-3.74
411.84,-4.19,-0.48,-4.19,-0.48,0.47,0.11,-0.45,-3.72,-3.72,-3.71
415.96,-4.12,-0.43,-4.13,-0.44,0.43,0.07,-0.47,-3.70,-3.70,-3.69
420.12,-4.05,-0.38,-4.06,-0.39,0.38,0.02,-0.49,-3.67,-3.67,-3.67
424.32,-3.98,-0.33,-3.98,-0.33,0.33,-0.03,-0.51,-3.66,-3.65,-3.65
428.56,-3.89,-0.26,-3.90,-0.27,0.27,-0.07,-0.53,-3.62,-3.63,-3.63
432.85,-3.81,-0.20,-3.81,-0.20,0.20,-0.12,-0.55,-3.61,-3.61,-3.61
437.18,-3.72,-0.14,-3.72,-0.14,0.14,-0.16,-0.57,-3.59,-3.58,-3.58
441.55,-3.62,-0.07,-3.63,-0.07,0.07,-0.21,-0.59,-3.56,-3.56,-3.55
445.96,-3.53,0.00,-3.53,0.00,-0.01,-0.25,-0.61,-3.54,-3.54,-3.53
450.42,-3.42,0.09,-3.43,0.08,-0.08,-0.29,-0.63,-3.50,-3.51,-3.51
454.93,-3.33,0.14,-3.33,0.15,-0.15,-0.34,-0.65,-3.49,-3.48,-3.48
459.48,-3.22,0.23,-3.23,0.23,-0.23,-0.38,-0.67,-3.45,-3.45,-3.46
