frequency,raw,error,smoothed,error_smoothed,equalization,parametric_eq,fixed_band_eq,equalized_raw,equalized_smoothed,target
20.00,-15.89,-16.89,-15.89,-16.89,6.00,4.84,2.85,-9.89,-9.89,1.00
20.20,-15.76,-16.80,-15.76,-16.80,6.00,4.92,2.93,-9.76,-9.76,1.04
20.40,-15.64,-16.72,-15.63,-16.71,6.00,5.01,3.01,-9.64,-9.63,1.08
20.61,-15.51,-16.61,-15.51,-16.61,6.00,5.09,3.10,-9.51,-9.51,1.10
20.81,-15.38,-16.52,-15.39,-16.52,6.00,5.17,3.18,-9.38,-9.39,1.14
21.02,-15.26,-16.44,-15.26,-16.43,6.00,5.25,3.27,-9.26,-9.26,1.18
21.23,-15.15,-16.34,-15.15,-16.34,6.00,5.33,3.37,-9.15,-9.15,1.19
21.44,-15.03,-16.23,-15.04,-16.24,6.00,5.41,3.46,-9.03,-9.04,1.21
21.66,-14.92,-16.14,-14.92,-16.14,6.00,5.49,3.56,-8.92,-8.92,1.22
21.87,-14.81,-16.02,-14.80,-16.02,6.00,5.57,3.66,-8.81,-8.80,1.22
22.09,-14.67,-15.89,-14.67,-15.89,6.00,5.65,3.77,-8.67,-8.67,1.22
22.31,-14.52,-15.74,-14.52,-15.75,6.00,5.73,3.87,-8.52,-8.52,1.22
22.54,-14.37,-15.60,-14.37,-15.59,6.00,5.81,3.98,-8.37,-8.37,1.22
22.76,-14.21,-15.42,-14.21,-15.43,6.00,5.88,4.09,-8.21,-8.21,1.21
22.99,-14.06,-15.26,-14.06,-15.27,6.00,5.96,4.21,-8.06,-8.06,1.20
23.22,-13.92,-15.12,-13.92,-15.12,6.00,6.03,4.33,-7.92,-7.92,1.20
23.45,-13.78,-14.97,-13.78,-14.97,6.00,6.10,4.45,-7.78,-7.78,1.19
23.69,-13.64,-14.84,-13.64,-14.83,6.00,6.17,4.57,-7.64,-7.64,1.19
23.92,-13.50,-14.69,-13.50,-14.69,6.00,6.23,4.69,-7.50,-7.50,1.19
24.16,-13.36,-14.56,-13.36,-14.56,6.00,6.29,4.82,-7.36,-7.36,1.20
24.40,-13.23,-14.43,-13.23,-14.43,6.00,6.35,4.95,-7.23,-7.23,1.20
24.65,-13.10,-14.29,-13.10,-14.30,6.00,6.41,5.08,-7.10,-7.10,1.19
24.89,-12.98,-14.17,-12.97,-14.16,6.00,6.46,5.21,-6.98,-6.97,1.19
25.14,-12.83,-14.02,-12.83,-14.02,6.00,6.51,5.34,-6.83,-6.83,1.19
25.39,-12.67,-13.86,-12.67,-13.86,6.00,6.55,5.48,-6.67,-6.67,1.19
25.65,-12.51,-13.69,-12.51,-13.69,6.00,6.59,5.61,-6.51,-6.51,1.18
25.91,-12.35,-13.52,-12.35,-13.53,6.00,6.63,5.74,-6.35,-6.35,1.17
26.16,-12.20,-13.37,-12.20,-13.37,6.00,6.66,5.88,-6.20,-6.20,1.17
26.43,-12.06,-13.23,-12.06,-13.23,6.00,6.68,6.01,-6.06,-6.06,1.17
26.69,-11.92,-13.09,-11.92,-13.08,6.00,6.70,6.14,-5.92,-5.92,1.17
26.96,-11.78,-12.94,-11.78,-12.94,6.00,6.71,6.27,-5.78,-5.78,1.16
27.23,-11.64,-12.80,-11.64,-12.79,6.00,6.72,6.40,-5.64,-5.64,1.16
27.50,-11.49,-12.65,-11.49,-12.65,6.00,6.72,6.52,-5.49,-5.49,1.15
27.77,-11.35,-12.49,-11.35,-12.49,6.00,6.71,6.64,-5.35,-5.35,1.14
28.05,-11.20,-12.34,-11.20,-12.34,6.00,6.69,6.76,-5.20,-5.20,1.14
28.33,-11.05,-12.18,-11.05,-12.18,6.00,6.67,6.86,-5.05,-5.05,1.13
28.62,-10.90,-12.03,-10.90,-12.03,6.00,6.64,6.96,-4.90,-4.90,1.13
28.90,-10.75,-11.88,-10.75,-11.88,6.00,6.61,7.06,-4.75,-4.75,1.13
29.19,-10.61,-11.74,-10.61,-11.75,6.00,6.57,7.14,-4.61,-4.61,1.13
29.48,-10.48,-11.62,-10.48,-11.62,6.00,6.53,7.22,-4.48,-4.48,1.14
29.78,-10.35,-11.48,-10.35,-11.48,6.00,6.48,7.28,-4.35,-4.35,1.13
30.08,-10.20,-11.34,-10.19,-11.32,6.00,6.43,7.33,-4.20,-4.19,1.14
30.38,-10.02,-11.14,-10.02,-11.14,6.00,6.38,7.37,-4.02,-4.02,1.12
30.68,-9.83,-10.95,-9.84,-10.95,6.00,6.33,7.40,-3.83,-3.84,1.11
30.99,-9.65,-10.76,-9.66,-10.77,6.00,6.28,7.42,-3.65,-3.66,1.10
31.30,-9.50,-10.60,-9.50,-10.60,6.00,6.24,7.42,-3.50,-3.50,1.10
31.61,-9.35,-10.45,-9.35,-10.44,6.00,6.20,7.42,-3.35,-3.35,1.10
31.93,-9.20,-10.28,-9.19,-10.28,6.00,6.18,7.40,-3.20,-3.19,1.08
32.24,-9.03,-10.10,-9.03,-10.10,6.00,6.16,7.36,-3.03,-3.03,1.07
32.57,-8.85,-9.92,-8.85,-9.91,6.00,6.15,7.32,-2.85,-2.85,1.07
32.89,-8.68,-9.73,-8.69,-9.74,6.00,6.15,7.26,-2.68,-2.69,1.05
33.22,-8.53,-9.56,-8.54,-9.58,6.00,6.15,7.20,-2.53,-2.54,1.03
33.55,-8.40,-9.43,-8.40,-9.42,6.00,6.16,7.12,-2.40,-2.40,1.03
33.89,-8.26,-9.27,-8.25,-9.27,6.00,6.17,7.03,-2.26,-2.25,1.01
34.23,-8.10,-9.11,-8.10,-9.10,6.00,6.19,6.94,-2.10,-2.10,1.01
34.57,-7.93,-8.92,-7.93,-8.92,6.00,6.21,6.84,-1.93,-1.93,0.99
34.92,-7.75,-8.73,-7.76,-8.74,6.00,6.22,6.73,-1.75,-1.76,0.98
35.27,-7.61,-8.59,-7.62,-8.58,6.00,6.24,6.62,-1.61,-1.62,0.97
35.62,-7.47,-8.42,-7.47,-8.43,6.00,6.25,6.50,-1.47,-1.47,0.95
35.97,-7.34,-8.28,-7.32,-8.27,6.00,6.25,6.38,-1.34,-1.32,0.94
36.33,-7.15,-8.09,-7.15,-8.08,6.00,6.25,6.26,-1.15,-1.15,0.94
36.70,-6.96,-7.89,-6.97,-7.89,6.00,6.24,6.13,-0.96,-0.97,0.92
37.06,-6.78,-7.69,-6.80,-7.72,6.00,6.23,6.00,-0.78,-0.80,0.91
37.43,-6.66,-7.58,-6.66,-7.57,6.00,6.21,5.88,-0.66,-0.66,0.92
37.81,-6.53,-7.44,-6.52,-7.43,6.00,6.19,5.75,-0.53,-0.52,0.91
38.19,-6.38,-7.28,-6.38,-7.28,6.00,6.15,5.62,-0.38,-0.38,0.89
38.57,-6.21,-7.11,-6.21,-7.11,6.01,6.11,5.49,-0.20,-0.21,0.90
38.95,-6.04,-6.93,-6.04,-6.93,6.02,6.07,5.36,-0.02,-0.02,0.89
39.34,-5.88,-6.76,-5.88,-6.77,6.03,6.01,5.23,0.15,0.15,0.89
39.74,-5.72,-6.59,-5.72,-6.60,6.02,5.95,5.11,0.30,0.30,0.87
40.14,-5.56,-6.43,-5.55,-6.43,6.01,5.89,4.98,0.45,0.45,0.87
40.54,-5.38,-6.25,-5.38,-6.25,5.97,5.82,4.86,0.59,0.59,0.87
40.94,-5.21,-6.07,-5.21,-6.07,5.92,5.74,4.74,0.71,0.71,0.86
41.35,-5.05,-5.90,-5.05,-5.90,5.85,5.66,4.63,0.80,0.80,0.85
41.76,-4.90,-5.73,-4.90,-5.74,5.75,5.58,4.51,0.85,0.84,0.84
42.18,-4.77,-5.60,-4.78,-5.60,5.62,5.49,4.40,0.85,0.85,0.83
42.60,-4.65,-5.47,-4.65,-5.47,5.48,5.40,4.29,0.83,0.83,0.82
43.03,-4.53,-5.34,-4.51,-5.32,5.32,5.30,4.19,0.79,0.81,0.81
43.46,-4.36,-5.15,-4.36,-5.15,5.15,5.21,4.08,0.79,0.79,0.79
43.90,-4.20,-4.97,-4.21,-4.98,4.99,5.11,3.98,0.79,0.78,0.76
44.33,-4.06,-4.81,-4.06,-4.81,4.83,5.01,3.88,0.77,0.77,0.75
44.78,-3.93,-4.66,-3.94,-4.66,4.68,4.90,3.79,0.75,0.74,0.72
45.23,-3.82,-4.53,-3.82,-4.53,4.53,4.80,3.70,0.71,0.71,0.71
45.68,-3.71,-4.41,-3.71,-4.40,4.39,4.70,3.61,0.68,0.68,0.69
46.13,-3.59,-4.27,-3.58,-4.26,4.25,4.59,3.52,0.66,0.67,0.68
46.60,-3.44,-4.12,-3.45,-4.12,4.12,4.49,3.44,0.68,0.67,0.67
47.06,-3.31,-3.98,-3.33,-4.00,3.99,4.38,3.36,0.68,0.66,0.67
47.53,-3.23,-3.89,-3.23,-3.89,3.88,4.28,3.28,0.65,0.65,0.66
48.01,-3.16,-3.82,-3.12,-3.77,3.78,4.17,3.20,0.62,0.66,0.65
48.49,-3.01,-3.65,-3.01,-3.64,3.68,4.07,3.13,0.66,0.67,0.64
48.97,-2.86,-3.48,-2.92,-3.54,3.57,3.97,3.05,0.71,0.65,0.62
49.46,-2.86,-3.47,-2.86,-3.47,3.47,3.86,2.99,0.61,0.61,0.61
49.96,-2.87,-3.47,-2.82,-3.43,3.38,3.76,2.92,0.51,0.56,0.60
50.46,-2.76,-3.37,-2.76,-3.37,3.30,3.67,2.85,0.54,0.54,0.61
50.96,-2.64,-3.24,-2.63,-3.22,3.23,3.57,2.79,0.59,0.61,0.60
51.47,-2.50,-3.09,-2.49,-3.09,3.16,3.47,2.73,0.66,0.67,0.59
51.99,-2.35,-2.94,-2.44,-3.03,3.08,3.38,2.67,0.73,0.64,0.58
52.51,-2.43,-3.02,-2.42,-3.01,3.01,3.28,2.61,0.58,0.58,0.59
53.03,-2.49,-3.08,-2.41,-2.99,2.93,3.19,2.56,0.44,0.53,0.59
53.56,-2.34,-2.92,-2.35,-2.93,2.86,3.10,2.51,0.52,0.51,0.58
54.10,-2.20,-2.77,-2.22,-2.79,2.79,3.01,2.45,0.59,0.57,0.57
54.64,-2.10,-2.67,-2.11,-2.68,2.73,2.92,2.40,0.63,0.61,0.57
55.18,-2.04,-2.60,-2.07,-2.63,2.66,2.84,2.35,0.61,0.59,0.56
55.74,-2.06,-2.61,-2.03,-2.58,2.57,2.75,2.31,0.51,0.54,0.55
56.29,-2.01,-2.55,-1.98,-2.52,2.49,2.67,2.26,0.48,0.51,0.55
56.86,-1.88,-2.41,-1.90,-2.43,2.41,2.58,2.21,0.53,0.51,0.52
57.42,-1.81,-2.32,-1.82,-2.33,2.34,2.50,2.17,0.53,0.52,0.51
58.00,-1.75,-2.25,-1.75,-2.25,2.28,2.42,2.12,0.53,0.52,0.50
58.58,-1.72,-2.21,-1.71,-2.20,2.21,2.34,2.08,0.49,0.50,0.49
59.16,-1.67,-2.14,-1.66,-2.13,2.14,2.27,2.04,0.47,0.48,0.47
59.76,-1.61,-2.06,-1.63,-2.08,2.07,2.19,1.99,0.46,0.44,0.45
60.35,-1.59,-2.02,-1.59,-2.02,2.00,2.12,1.95,0.41,0.41,0.43
60.96,-1.58,-1.98,-1.55,-1.95,1.94,2.04,1.91,0.36,0.38,0.40
61.57,-1.51,-1.87,-1.52,-1.88,1.87,1.97,1.87,0.36,0.35,0.36
62.18,-1.46,-1.78,-1.48,-1.80,1.81,1.90,1.83,0.35,0.33,0.32
62.80,-1.46,-1.74,-1.44,-1.72,1.74,1.83,1.79,0.28,0.30,0.28
63.43,-1.42,-1.67,-1.41,-1.66,1.67,1.76,1.75,0.25,0.26,0.25
64.07,-1.37,-1.58,-1.39,-1.60,1.60,1.69,1.71,0.23,0.21,0.21
64.71,-1.37,-1.54,-1.37,-1.55,1.53,1.62,1.67,0.16,0.16,0.17
65.35,-1.35,-1.50,-1.34,-1.48,1.46,1.55,1.63,0.11,0.12,0.15
66.01,-1.32,-1.43,-1.30,-1.41,1.39,1.49,1.59,0.07,0.10,0.11
66.67,-1.23,-1.30,-1.24,-1.32,1.32,1.42,1.55,0.09,0.08,0.07
67.33,-1.18,-1.22,-1.20,-1.24,1.25,1.36,1.51,0.07,0.05,0.04
68.01,-1.18,-1.18,-1.18,-1.18,1.18,1.30,1.47,0.00,0.01,-0.00
68.69,-1.18,-1.14,-1.16,-1.12,1.11,1.24,1.43,-0.07,-0.05,-0.04
69.37,-1.15,-1.07,-1.14,-1.06,1.05,1.18,1.39,-0.10,-0.09,-0.08
70.07,-1.09,-0.97,-1.11,-0.99,0.99,1.12,1.35,-0.10,-0.12,-0.13
70.77,-1.08,-0.92,-1.08,-0.92,0.93,1.06,1.31,-0.15,-0.15,-0.16
71.48,-1.08,-0.88,-1.08,-0.87,0.88,1.00,1.28,-0.20,-0.20,-0.20
72.19,-1.08,-0.84,-1.08,-0.83,0.83,0.95,1.24,-0.25,-0.25,-0.24
72.91,-1.08,-0.78,-1.08,-0.79,0.78,0.89,1.20,-0.30,-0.30,-0.30
73.64,-1.08,-0.74,-1.08,-0.74,0.73,0.84,1.16,-0.35,-0.35,-0.34
74.38,-1.08,-0.69,-1.08,-0.69,0.69,0.79,1.13,-0.39,-0.39,-0.39
75.12,-1.08,-0.65,-1.08,-0.65,0.65,0.73,1.09,-0.43,-0.43,-0.43
75.87,-1.08,-0.61,-1.08,-0.61,0.61,0.68,1.05,-0.47,-0.47,-0.47
76.63,-1.08,-0.57,-1.08,-0.57,0.57,0.64,1.01,-0.51,-0.51,-0.51
77.40,-1.08,-0.53,-1.08,-0.53,0.54,0.59,0.98,-0.54,-0.54,-0.55
78.17,-1.08,-0.50,-1.08,-0.50,0.50,0.54,0.94,-0.58,-0.58,-0.58
78.95,-1.08,-0.47,-1.08,-0.47,0.47,0.50,0.91,-0.61,-0.61,-0.61
79.74,-1.08,-0.44,-1.08,-0.44,0.44,0.46,0.87,-0.64,-0.64,-0.64
80.54,-1.08,-0.41,-1.08,-0.41,0.40,0.42,0.84,-0.68,-0.68,-0.67
81.35,-1.08,-0.38,-1.09,-0.38,0.36,0.38,0.80,-0.72,-0.72,-0.70
82.16,-1.08,-0.35,-1.08,-0.35,0.32,0.34,0.77,-0.76,-0.76,-0.74
82.98,-1.08,-0.32,-1.06,-0.29,0.27,0.31,0.74,-0.81,-0.78,-0.76
83.81,-1.01,-0.21,-1.03,-0.23,0.23,0.27,0.70,-0.78,-0.80,-0.80
84.65,-0.99,-0.16,-1.00,-0.17,0.19,0.24,0.67,-0.80,-0.81,-0.83
85.50,-0.99,-0.13,-0.98,-0.12,0.15,0.21,0.64,-0.84,-0.83,-0.86
86.35,-0.99,-0.10,-0.98,-0.09,0.12,0.18,0.60,-0.87,-0.86,-0.89
87.22,-0.99,-0.07,-0.99,-0.07,0.09,0.15,0.57,-0.90,-0.91,-0.92
88.09,-0.99,-0.03,-1.02,-0.06,0.06,0.13,0.54,-0.93,-0.96,-0.96
88.97,-1.08,-0.10,-1.05,-0.06,0.04,0.11,0.51,-1.04,-1.01,-0.98
89.86,-1.08,-0.06,-1.08,-0.06,0.03,0.09,0.48,-1.06,-1.05,-1.02
90.76,-1.08,-0.02,-1.08,-0.03,0.01,0.07,0.45,-1.07,-1.07,-1.06
91.66,-1.07,0.01,-1.07,0.02,0.00,0.05,0.42,-1.07,-1.07,-1.08
92.58,-1.07,0.05,-1.08,0.04,-0.01,0.03,0.39,-1.08,-1.09,-1.12
93.51,-1.09,0.06,-1.10,0.04,-0.03,0.02,0.36,-1.12,-1.13,-1.15
94.44,-1.14,0.03,-1.13,0.05,-0.04,0.01,0.33,-1.18,-1.17,-1.17
95.39,-1.17,0.03,-1.16,0.05,-0.07,-0.00,0.30,-1.24,-1.22,-1.20
96.34,-1.16,0.08,-1.18,0.06,-0.09,-0.01,0.27,-1.25,-1.27,-1.24
97.30,-1.18,0.09,-1.18,0.09,-0.11,-0.02,0.24,-1.29,-1.29,-1.27
98.28,-1.19,0.11,-1.16,0.13,-0.13,-0.03,0.21,-1.32,-1.30,-1.30
99.26,-1.13,0.19,-1.15,0.17,-0.16,-0.04,0.18,-1.29,-1.32,-1.32
100.25,-1.13,0.22,-1.14,0.20,-0.20,-0.04,0.15,-1.33,-1.34,-1.35
101.25,-1.15,0.22,-1.14,0.24,-0.23,-0.04,0.12,-1.38,-1.37,-1.37
102.27,-1.16,0.24,-1.16,0.25,-0.26,-0.05,0.10,-1.42,-1.42,-1.40
103.29,-1.17,0.28,-1.17,0.27,-0.27,-0.05,0.07,-1.44,-1.45,-1.45
104.32,-1.19,0.28,-1.18,0.29,-0.28,-0.05,0.04,-1.47,-1.46,-1.47
105.37,-1.21,0.30,-1.21,0.30,-0.27,-0.05,0.02,-1.48,-1.48,-1.51
106.42,-1.25,0.29,-1.27,0.27,-0.25,-0.05,-0.01,-1.50,-1.53,-1.54
107.48,-1.35,0.23,-1.35,0.23,-0.23,-0.05,-0.03,-1.58,-1.58,-1.58
108.56,-1.46,0.16,-1.43,0.19,-0.20,-0.05,-0.06,-1.66,-1.62,-1.62
109.64,-1.50,0.16,-1.50,0.15,-0.16,-0.04,-0.08,-1.67,-1.66,-1.66
110.74,-1.53,0.16,-1.58,0.11,-0.13,-0.04,-0.10,-1.66,-1.71,-1.69
111.85,-1.66,0.06,-1.64,0.08,-0.09,-0.04,-0.12,-1.75,-1.74,-1.72
112.97,-1.74,0.03,-1.70,0.05,-0.06,-0.03,-0.14,-1.80,-1.76,-1.77
114.10,-1.74,0.04,-1.75,0.04,-0.03,-0.03,-0.16,-1.77,-1.79,-1.78
115.24,-1.76,0.06,-1.79,0.03,-0.02,-0.03,-0.18,-1.78,-1.80,-1.82
116.39,-1.84,0.01,-1.84,0.01,-0.01,-0.02,-0.20,-1.85,-1.85,-1.85
117.55,-1.91,-0.03,-1.89,-0.01,-0.01,-0.02,-0.21,-1.92,-1.90,-1.88
118.73,-1.93,-0.02,-1.93,-0.02,-0.01,-0.02,-0.23,-1.94,-1.94,-1.91
119.92,-1.92,-0.01,-1.93,-0.01,-0.02,-0.01,-0.24,-1.94,-1.94,-1.91
121.12,-1.91,0.03,-1.91,0.03,-0.02,-0.01,-0.25,-1.93,-1.93,-1.94
122.33,-1.90,0.06,-1.89,0.07,-0.02,-0.00,-0.27,-1.92,-1.91,-1.96
123.55,-1.89,0.07,-1.90,0.07,-0.02,0.00,-0.27,-1.91,-1.92,-1.96
124.79,-1.90,0.09,-1.95,0.04,-0.02,0.01,-0.28,-1.92,-1.97,-1.99
126.03,-2.05,-0.05,-2.00,-0.00,-0.02,0.01,-0.29,-2.07,-2.02,-2.00
127.29,-2.06,-0.04,-2.05,-0.03,-0.01,0.01,-0.29,-2.07,-2.06,-2.02
128.57,-2.06,-0.02,-2.07,-0.03,0.00,0.02,-0.30,-2.06,-2.07,-2.04
129.85,-2.05,0.00,-2.06,-0.01,0.02,0.02,-0.30,-2.03,-2.05,-2.05
131.15,-2.08,-0.01,-2.09,-0.02,0.03,0.03,-0.30,-2.05,-2.05,-2.07
132.46,-2.12,-0.04,-2.11,-0.03,0.04,0.03,-0.30,-2.08,-2.06,-2.08
133.79,-2.14,-0.06,-2.13,-0.04,0.05,0.04,-0.30,-2.09,-2.08,-2.08
135.12,-2.14,-0.03,-2.16,-0.06,0.06,0.04,-0.30,-2.08,-2.10,-2.11
136.48,-2.20,-0.09,-2.20,-0.08,0.07,0.04,-0.29,-2.13,-2.12,-2.11
137.84,-2.24,-0.11,-2.24,-0.10,0.09,0.05,-0.29,-2.15,-2.15,-2.13
139.22,-2.29,-0.13,-2.28,-0.12,0.12,0.05,-0.28,-2.17,-2.16,-2.16
140.61,-2.31,-0.13,-2.31,-0.13,0.14,0.05,-0.27,-2.17,-2.16,-2.18
142.02,-2.31,-0.13,-2.33,-0.14,0.16,0.06,-0.27,-2.15,-2.17,-2.18
143.44,-2.38,-0.18,-2.37,-0.17,0.18,0.06,-0.26,-2.20,-2.19,-2.20
144.87,-2.41,-0.18,-2.42,-0.20,0.19,0.06,-0.25,-2.22,-2.23,-2.23
146.32,-2.48,-0.23,-2.47,-0.22,0.19,0.07,-0.24,-2.29,-2.28,-2.25
147.78,-2.51,-0.23,-2.50,-0.22,0.18,0.07,-0.23,-2.33,-2.32,-2.28
149.26,-2.51,-0.19,-2.51,-0.19,0.17,0.07,-0.22,-2.34,-2.35,-2.32
150.75,-2.51,-0.14,-2.51,-0.14,0.15,0.08,-0.21,-2.36,-2.36,-2.37
152.26,-2.51,-0.10,-2.51,-0.10,0.12,0.08,-0.20,-2.39,-2.39,-2.42
153.78,-2.52,-0.05,-2.53,-0.06,0.09,0.08,-0.19,-2.43,-2.44,-2.47
155.32,-2.57,-0.04,-2.56,-0.04,0.05,0.08,-0.18,-2.52,-2.51,-2.53
156.88,-2.60,-0.02,-2.61,-0.02,0.01,0.09,-0.16,-2.59,-2.60,-2.58
158.44,-2.67,-0.01,-2.66,-0.01,-0.02,0.09,-0.15,-2.69,-2.68,-2.66
160.03,-2.70,0.02,-2.69,0.03,-0.05,0.09,-0.14,-2.75,-2.74,-2.72
161.63,-2.70,0.07,-2.70,0.07,-0.08,0.09,-0.13,-2.78,-2.78,-2.77
163.24,-2.70,0.13,-2.70,0.12,-0.10,0.10,-0.12,-2.80,-2.80,-2.83
164.88,-2.70,0.16,-2.72,0.15,-0.12,0.10,-0.10,-2.82,-2.84,-2.86
166.53,-2.75,0.15,-2.75,0.15,-0.14,0.10,-0.09,-2.89,-2.89,-2.90
168.19,-2.79,0.14,-2.78,0.14,-0.15,0.10,-0.08,-2.94,-2.93,-2.93
169.87,-2.82,0.13,-2.81,0.14,-0.15,0.11,-0.07,-2.97,-2.96,-2.96
171.57,-2.82,0.15,-2.82,0.15,-0.14,0.11,-0.05,-2.96,-2.96,-2.97
173.29,-2.83,0.15,-2.84,0.14,-0.13,0.11,-0.04,-2.96,-2.97,-2.98
175.02,-2.87,0.12,-2.87,0.12,-0.11,0.11,-0.03,-2.98,-2.98,-2.99
176.77,-2.92,0.07,-2.91,0.09,-0.10,0.12,-0.02,-3.02,-3.00,-2.99
178.54,-2.93,0.07,-2.93,0.06,-0.08,0.12,-0.01,-3.01,-3.01,-3.00
180.32,-2.93,0.05,-2.93,0.05,-0.07,0.12,0.00,-3.00,-3.00,-2.98
182.13,-2.92,0.06,-2.91,0.07,-0.06,0.12,0.02,-2.98,-2.98,-2.98
183.95,-2.91,0.07,-2.91,0.07,-0.05,0.13,0.03,-2.97,-2.97,-2.98
185.79,-2.90,0.09,-2.93,0.06,-0.05,0.13,0.04,-2.95,-2.98,-2.99
187.65,-2.97,0.03,-2.95,0.05,-0.05,0.13,0.05,-3.02,-3.00,-3.00
189.52,-2.97,0.03,-2.96,0.05,-0.05,0.13,0.06,-3.02,-3.01,-3.00
191.42,-2.96,0.05,-2.96,0.05,-0.05,0.14,0.07,-3.02,-3.02,-3.01
193.33,-2.94,0.09,-2.96,0.06,-0.06,0.14,0.08,-3.00,-3.02,-3.03
195.27,-2.98,0.06,-2.98,0.06,-0.07,0.14,0.10,-3.05,-3.04,-3.04
197.22,-3.01,0.05,-2.99,0.07,-0.08,0.14,0.11,-3.09,-3.07,-3.06
199.19,-3.00,0.08,-3.00,0.07,-0.09,0.15,0.12,-3.09,-3.09,-3.08
201.18,-2.99,0.10,-2.99,0.10,-0.10,0.15,0.13,-3.09,-3.09,-3.09
203.19,-2.99,0.11,-2.98,0.12,-0.11,0.15,0.14,-3.10,-3.09,-3.10
205.23,-2.98,0.15,-3.00,0.12,-0.11,0.16,0.15,-3.09,-3.11,-3.13
207.28,-3.02,0.11,-3.02,0.12,-0.11,0.16,0.16,-3.13,-3.13,-3.13
209.35,-3.07,0.09,-3.05,0.11,-0.10,0.16,0.17,-3.17,-3.15,-3.16
211.44,-3.08,0.10,-3.08,0.09,-0.09,0.17,0.18,-3.17,-3.17,-3.18
213.56,-3.09,0.10,-3.11,0.07,-0.08,0.17,0.19,-3.17,-3.19,-3.19
215.69,-3.15,0.05,-3.14,0.05,-0.06,0.17,0.20,-3.22,-3.21,-3.20
217.85,-3.19,0.01,-3.18,0.03,-0.05,0.18,0.21,-3.24,-3.23,-3.20
220.03,-3.19,0.03,-3.20,0.02,-0.04,0.18,0.22,-3.23,-3.24,-3.22
222.23,-3.20,0.03,-3.20,0.02,-0.02,0.18,0.23,-3.23,-3.23,-3.23
224.45,-3.20,0.02,-3.19,0.03,-0.01,0.19,0.24,-3.21,-3.20,-3.22
226.70,-3.20,0.01,-3.20,0.02,0.01,0.19,0.25,-3.19,-3.19,-3.21
228.96,-3.19,0.02,-3.21,-0.01,0.02,0.20,0.26,-3.17,-3.19,-3.21
231.25,-3.24,-0.04,-3.24,-0.04,0.04,0.20,0.27,-3.20,-3.20,-3.20
233.57,-3.27,-0.09,-3.25,-0.07,0.05,0.21,0.28,-3.22,-3.20,-3.18
235.90,-3.26,-0.09,-3.26,-0.09,0.07,0.21,0.29,-3.19,-3.19,-3.17
238.26,-3.24,-0.10,-3.25,-0.10,0.09,0.22,0.30,-3.15,-3.16,-3.14
240.64,-3.22,-0.10,-3.23,-0.11,0.10,0.22,0.30,-3.12,-3.12,-3.12
243.05,-3.21,-0.13,-3.20,-0.12,0.12,0.23,0.31,-3.09,-3.08,-3.09
245.48,-3.19,-0.13,-3.18,-0.12,0.14,0.23,0.32,-3.05,-3.05,-3.06
247.93,-3.16,-0.13,-3.18,-0.14,0.16,0.24,0.33,-3.00,-3.02,-3.04
250.41,-3.18,-0.16,-3.19,-0.17,0.18,0.25,0.34,-3.00,-3.01,-3.02
252.92,-3.22,-0.24,-3.20,-0.21,0.21,0.25,0.34,-3.01,-2.99,-2.98
255.45,-3.21,-0.25,-3.21,-0.24,0.24,0.26,0.35,-2.97,-2.96,-2.96
258.00,-3.20,-0.26,-3.22,-0.28,0.28,0.27,0.36,-2.92,-2.94,-2.94
260.58,-3.24,-0.31,-3.24,-0.32,0.32,0.27,0.37,-2.92,-2.92,-2.93
263.19,-3.28,-0.38,-3.27,-0.36,0.36,0.28,0.37,-2.92,-2.91,-2.90
265.82,-3.29,-0.41,-3.29,-0.41,0.40,0.29,0.38,-2.89,-2.89,-2.89
268.48,-3.30,-0.44,-3.30,-0.44,0.43,0.30,0.39,-2.87,-2.87,-2.86
271.16,-3.30,-0.47,-3.30,-0.47,0.46,0.31,0.39,-2.84,-2.84,-2.83
273.87,-3.31,-0.49,-3.31,-0.50,0.49,0.32,0.40,-2.82,-2.81,-2.82
276.61,-3.31,-0.52,-3.31,-0.52,0.52,0.33,0.41,-2.79,-2.79,-2.79
279.38,-3.31,-0.55,-3.31,-0.54,0.55,0.34,0.42,-2.76,-2.76,-2.76
282.17,-3.30,-0.56,-3.30,-0.57,0.57,0.35,0.42,-2.73,-2.73,-2.75
284.99,-3.30,-0.59,-3.30,-0.59,0.59,0.36,0.43,-2.71,-2.71,-2.71
287.84,-3.29,-0.61,-3.29,-0.61,0.61,0.37,0.44,-2.68,-2.68,-2.68
290.72,-3.28,-0.64,-3.28,-0.64,0.63,0.38,0.45,-2.65,-2.65,-2.64
293.63,-3.27,-0.65,-3.27,-0.65,0.64,0.39,0.45,-2.63,-2.62,-2.62
296.57,-3.25,-0.67,-3.25,-0.67,0.66,0.41,0.46,-2.59,-2.59,-2.58
299.53,-3.24,-0.68,-3.24,-0.68,0.69,0.42,0.47,-2.55,-2.55,-2.56
302.53,-3.23,-0.70,-3.22,-0.69,0.72,0.44,0.48,-2.52,-2.51,-2.53
305.55,-3.22,-0.73,-3.22,-0.72,0.74,0.45,0.49,-2.48,-2.48,-2.50
308.61,-3.21,-0.73,-3.24,-0.76,0.77,0.47,0.50,-2.44,-2.46,-2.48
311.69,-3.28,-0.82,-3.26,-0.81,0.80,0.48,0.51,-2.48,-2.46,-2.46
314.81,-3.30,-0.88,-3.29,-0.86,0.84,0.50,0.52,-2.47,-2.45,-2.42
317.96,-3.29,-0.88,-3.30,-0.89,0.86,0.52,0.53,-2.43,-2.43,-2.41
321.14,-3.29,-0.90,-3.29,-0.90,0.89,0.53,0.54,-2.40,-2.40,-2.40
324.35,-3.29,-0.90,-3.29,-0.91,0.91,0.55,0.55,-2.38,-2.38,-2.39
327.59,-3.30,-0.93,-3.30,-0.93,0.93,0.57,0.56,-2.37,-2.37,-2.37
330.87,-3.30,-0.94,-3.30,-0.94,0.94,0.59,0.57,-2.36,-2.36,-2.36
334.18,-3.30,-0.95,-3.30,-0.95,0.95,0.61,0.59,-2.35,-2.35,-2.35
337.52,-3.30,-0.96,-3.30,-0.96,0.96,0.63,0.60,-2.34,-2.34,-2.34
340.90,-3.30,-0.98,-3.30,-0.97,0.97,0.66,0.62,-2.33,-2.33,-2.32
344.30,-3.30,-0.98,-3.30,-0.99,0.98,0.68,0.63,-2.32,-2.32,-2.32
347.75,-3.30,-0.99,-3.30,-0.99,0.99,0.70,0.65,-2.31,-2.31,-2.31
351.23,-3.30,-1.00,-3.30,-1.00,0.99,0.72,0.66,-2.31,-2.31,-2.30
354.74,-3.30,-1.00,-3.30,-1.00,0.99,0.75,0.68,-2.31,-2.30,-2.30
358.28,-3.29,-1.00,-3.29,-1.00,1.00,0.77,0.69,-2.30,-2.30,-2.29
361.87,-3.29,-1.00,-3.29,-1.00,1.00,0.79,0.71,-2.29,-2.29,-2.29
365.49,-3.28,-1.00,-3.28,-0.99,1.01,0.82,0.73,-2.27,-2.27,-2.28
369.14,-3.28,-1.00,-3.28,-0.99,1.01,0.84,0.75,-2.27,-2.26,-2.28
372.83,-3.27,-0.99,-3.29,-1.01,1.03,0.87,0.77,-2.25,-2.27,-2.29
376.56,-3.32,-1.03,-3.31,-1.03,1.04,0.89,0.79,-2.28,-2.28,-2.29
380.33,-3.35,-1.08,-3.33,-1.06,1.05,0.91,0.81,-2.30,-2.29,-2.27
384.13,-3.34,-1.06,-3.35,-1.07,1.05,0.93,0.83,-2.29,-2.30,-2.28
387.97,-3.34,-1.06,-3.34,-1.07,1.05,0.95,0.85,-2.29,-2.29,-2.28
391.85,-3.33,-1.05,-3.34,-1.06,1.05,0.98,0.87,-2.28,-2.29,-2.28
395.77,-3.33,-1.06,-3.32,-1.05,1.04,0.99,0.89,-2.29,-2.28,-2.27
399.73,-3.30,-1.03,-3.29,-1.02,1.02,1.01,0.91,-2.28,-2.27,-2.27
403.72,-3.26,-0.98,-3.27,-0.99,1.01,1.03,0.93,-2.25,-2.26,-2.28
407.76,-3.24,-0.96,-3.25,-0.97,0.99,1.04,0.95,-2.25,-2.26,-2.28
411.84,-3.25,-0.98,-3.25,-0.96,0.98,1.05,0.97,-2.27,-2.27,-2.27
415.96,-3.25,-0.97,-3.25,-0.97,0.97,1.06,0.99,-2.28,-2.28,-2.28
420.12,-3.25,-0.97,-3.25,-0.97,0.97,1.07,1.01,-2.28,-2.28,-2.28
424.32,-3.24,-0.97,-3.24,-0.96,0.97,1.07,1.03,-2.28,-2.28,-2.28
428.56,-3.23,-0.95,-3.23,-0.96,0.96,1.07,1.05,-2.27,-2.27,-2.28
432.85,-3.22,-0.96,-3.22,-0.96,0.96,1.07,1.07,-2.26,-2.26,-2.26
437.18,-3.19,-0.95,-3.19,-0.96,0.95,1.07,1.09,-2.24,-2.24,-2.24
441.55,-3.15,-0.95,-3.16,-0.96,0.93,1.06,1.10,-2.22,-2.23,-2.20
445.96,-3.11,-0.94,-3.10,-0.93,0.91,1.05,1.12,-2.20,-2.19,-2.17
