frequency,raw,error,smoothed,error_smoothed,equalization,parametric_eq,fixed_band_eq,equalized_raw,equalized_smoothed,target
20.00,-23.42,-21.62,-23.42,-21.62,6.00,5.62,3.25,-17.42,-17.42,-1.80
20.20,-23.20,-21.49,-23.20,-21.49,6.00,5.65,3.34,-17.20,-17.20,-1.71
20.40,-22.98,-21.36,-22.99,-21.36,6.00,5.67,3.44,-16.98,-16.99,-1.62
20.61,-22.77,-21.22,-22.77,-21.22,6.00,5.70,3.53,-16.77,-16.77,-1.55
20.81,-22.55,-21.09,-22.55,-21.09,6.00,5.72,3.63,-16.55,-16.55,-1.46
21.02,-22.33,-20.95,-22.33,-20.94,6.00,5.75,3.73,-16.33,-16.33,-1.38
21.23,-22.10,-20.78,-22.10,-20.78,6.00,5.77,3.84,-16.10,-16.10,-1.32
21.44,-21.87,-20.61,-21.87,-20.62,6.00,5.80,3.94,-15.87,-15.87,-1.26
21.66,-21.65,-20.46,-21.64,-20.45,6.00,5.82,4.05,-15.65,-15.64,-1.19
21.87,-21.42,-20.27,-21.42,-20.27,6.00,5.84,4.17,-15.42,-15.42,-1.14
22.09,-21.19,-20.09,-21.19,-20.10,6.00,5.86,4.28,-15.19,-15.19,-1.09
22.31,-20.96,-19.91,-20.96,-19.91,6.00,5.88,4.40,-14.96,-14.96,-1.04
22.54,-20.73,-19.74,-20.73,-19.73,6.00,5.90,4.52,-14.73,-14.73,-0.99
22.76,-20.50,-19.54,-20.50,-19.55,6.00,5.92,4.65,-14.50,-14.50,-0.95
22.99,-20.27,-19.36,-20.27,-19.35,6.00,5.94,4.78,-14.27,-14.27,-0.91
23.22,-20.03,-19.16,-20.03,-19.16,6.00,5.95,4.91,-14.03,-14.03,-0.87
23.45,-19.79,-18.96,-19.79,-18.97,6.00,5.97,5.04,-13.79,-13.79,-0.82
23.69,-19.56,-18.78,-19.56,-18.77,6.00,5.98,5.18,-13.56,-13.56,-0.79
23.92,-19.32,-18.57,-19.32,-18.58,6.00,6.00,5.32,-13.32,-13.32,-0.75
24.16,-19.08,-18.38,-19.08,-18.38,6.00,6.01,5.47,-13.08,-13.08,-0.70
24.40,-18.83,-18.17,-18.83,-18.17,6.00,6.02,5.61,-12.83,-12.83,-0.66
24.65,-18.59,-17.96,-18.59,-17.96,6.00,6.03,5.76,-12.59,-12.59,-0.63
24.89,-18.34,-17.75,-18.34,-17.75,6.00,6.04,5.91,-12.34,-12.34,-0.59
25.14,-18.10,-17.55,-18.09,-17.55,6.00,6.05,6.06,-12.10,-12.09,-0.55
25.39,-17.84,-17.34,-17.85,-17.34,6.00,6.06,6.21,-11.84,-11.85,-0.51
25.65,-17.61,-17.14,-17.61,-17.14,6.00,6.07,6.37,-11.61,-11.61,-0.47
25.91,-17.36,-16.92,-17.36,-16.92,6.00,6.07,6.52,-11.36,-11.36,-0.44
26.16,-17.11,-16.71,-17.11,-16.71,6.00,6.08,6.67,-11.11,-11.11,-0.40
26.43,-16.86,-16.49,-16.86,-16.49,6.00,6.08,6.83,-10.86,-10.86,-0.37
26.69,-16.60,-16.27,-16.60,-16.27,6.00,6.08,6.98,-10.60,-10.60,-0.33
26.96,-16.35,-16.06,-16.35,-16.05,6.00,6.08,7.13,-10.35,-10.35,-0.29
27.23,-16.09,-15.83,-16.09,-15.83,6.00,6.08,7.27,-10.09,-10.09,-0.26
27.50,-15.84,-15.62,-15.84,-15.61,6.00,6.08,7.41,-9.84,-9.84,-0.22
27.77,-15.58,-15.38,-15.58,-15.39,6.00,6.08,7.55,-9.58,-9.58,-0.19
28.05,-15.32,-15.16,-15.32,-15.16,6.00,6.08,7.68,-9.32,-9.32,-0.15
28.33,-15.06,-14.92,-15.06,-14.93,6.00,6.07,7.80,-9.06,-9.06,-0.14
28.62,-14.79,-14.70,-14.79,-14.70,6.00,6.07,7.91,-8.79,-8.79,-0.10
28.90,-14.53,-14.47,-14.53,-14.47,6.00,6.06,8.01,-8.53,-8.53,-0.06
29.19,-14.27,-14.24,-14.27,-14.24,6.00,6.06,8.10,-8.27,-8.27,-0.03
29.48,-14.00,-14.02,-14.00,-14.01,6.00,6.05,8.17,-8.00,-8.00,0.02
29.78,-13.74,-13.78,-13.74,-13.78,6.00,6.04,8.23,-7.74,-7.74,0.04
30.08,-13.47,-13.55,-13.47,-13.55,6.00,6.03,8.28,-7.47,-7.47,0.08
30.38,-13.21,-13.32,-13.21,-13.32,6.00,6.02,8.30,-7.21,-7.21,0.11
30.68,-12.95,-13.10,-12.95,-13.09,6.00,6.01,8.31,-6.95,-6.95,0.15
30.99,-12.69,-12.86,-12.69,-12.86,6.00,6.00,8.30,-6.69,-6.69,0.17
31.30,-12.43,-12.64,-12.43,-12.63,6.00,5.98,8.27,-6.43,-6.43,0.20
31.61,-12.16,-12.39,-12.16,-12.39,6.00,5.97,8.21,-6.16,-6.16,0.23
31.93,-11.89,-12.15,-11.89,-12.15,6.00,5.96,8.14,-5.89,-5.89,0.26
32.24,-11.62,-11.90,-11.62,-11.91,6.00,5.95,8.06,-5.62,-5.62,0.28
32.57,-11.35,-11.66,-11.35,-11.66,6.00,5.94,7.95,-5.35,-5.35,0.31
32.89,-11.08,-11.42,-11.07,-11.41,6.00,5.93,7.82,-5.08,-5.07,0.35
33.22,-10.80,-11.16,-10.80,-11.16,6.00,5.92,7.68,-4.80,-4.80,0.37
33.55,-10.52,-10.90,-10.52,-10.91,6.00,5.91,7.53,-4.52,-4.52,0.38
33.89,-10.24,-10.64,-10.24,-10.65,6.00,5.91,7.36,-4.24,-4.24,0.40
34.23,-9.96,-10.39,-9.96,-10.39,6.00,5.90,7.18,-3.96,-3.96,0.43
34.57,-9.68,-10.13,-9.68,-10.13,6.00,5.90,6.98,-3.68,-3.68,0.45
34.92,-9.40,-9.86,-9.40,-9.87,6.00,5.91,6.78,-3.40,-3.40,0.46
35.27,-9.12,-9.61,-9.12,-9.60,6.00,5.92,6.57,-3.12,-3.12,0.48
35.62,-8.84,-9.33,-8.84,-9.33,6.00,5.93,6.35,-2.84,-2.84,0.49
35.97,-8.56,-9.06,-8.56,-9.06,6.00,5.95,6.12,-2.56,-2.56,0.50
36.33,-8.27,-8.79,-8.27,-8.79,6.00,5.97,5.89,-2.27,-2.27,0.52
36.70,-7.99,-8.52,-7.98,-8.51,6.00,6.00,5.66,-1.99,-1.98,0.53
37.06,-7.70,-8.23,-7.70,-8.24,6.00,6.04,5.42,-1.70,-1.70,0.53
37.43,-7.41,-7.96,-7.41,-7.96,6.00,6.07,5.18,-1.40,-1.41,0.55
37.81,-7.12,-7.68,-7.12,-7.68,6.02,6.11,4.94,-1.10,-1.10,0.56
38.19,-6.83,-7.40,-6.83,-7.40,6.04,6.15,4.70,-0.79,-0.78,0.57
38.57,-6.54,-7.11,-6.54,-7.11,6.05,6.17,4.45,-0.49,-0.48,0.57
38.95,-6.25,-6.82,-6.25,-6.82,6.04,6.18,4.21,-0.20,-0.21,0.57
39.34,-5.97,-6.53,-5.97,-6.54,6.00,6.18,3.97,0.03,0.03,0.57
39.74,-5.69,-6.27,-5.69,-6.26,5.91,6.14,3.72,0.22,0.23,0.57
40.14,-5.40,-5.97,-5.40,-5.98,5.79,6.07,3.48,0.39,0.39,0.57
40.54,-5.12,-5.69,-5.12,-5.69,5.63,5.97,3.23,0.51,0.51,0.57
40.94,-4.84,-5.41,-4.84,-5.41,5.42,5.83,2.99,0.59,0.59,0.57
41.35,-4.56,-5.13,-4.56,-5.13,5.18,5.65,2.75,0.62,0.63,0.57
41.76,-4.28,-4.85,-4.28,-4.85,4.91,5.44,2.50,0.64,0.63,0.58
42.18,-4.00,-4.58,-4.00,-4.58,4.62,5.21,2.26,0.62,0.62,0.58
42.60,-3.73,-4.31,-3.72,-4.31,4.32,4.95,2.02,0.59,0.60,0.58
43.03,-3.45,-4.03,-3.45,-4.03,4.02,4.69,1.78,0.57,0.58,0.59
43.46,-3.17,-3.75,-3.17,-3.75,3.75,4.41,1.54,0.58,0.57,0.58
43.90,-2.90,-3.47,-2.90,-3.47,3.47,4.14,1.31,0.57,0.57,0.57
44.33,-2.63,-3.19,-2.63,-3.19,3.20,3.86,1.07,0.57,0.57,0.56
44.78,-2.36,-2.92,-2.36,-2.92,2.92,3.58,0.83,0.56,0.56,0.56
45.23,-2.10,-2.65,-2.10,-2.65,2.65,3.31,0.60,0.55,0.55,0.55
45.68,-1.84,-2.39,-1.84,-2.38,2.38,3.04,0.36,0.54,0.55,0.55
46.13,-1.57,-2.11,-1.57,-2.12,2.12,2.77,0.12,0.55,0.55,0.54
46.60,-1.31,-1.86,-1.31,-1.85,1.86,2.50,-0.11,0.54,0.55,0.55
47.06,-1.05,-1.60,-1.05,-1.60,1.59,2.24,-0.34,0.55,0.55,0.55
47.53,-0.79,-1.33,-0.79,-1.34,1.33,1.98,-0.58,0.54,0.54,0.54
48.01,-0.53,-1.09,-0.53,-1.08,1.07,1.71,-0.81,0.54,0.54,0.56
48.49,-0.27,-0.81,-0.27,-0.81,0.81,1.45,-1.04,0.54,0.54,0.54
48.97,-0.01,-0.54,-0.01,-0.55,0.55,1.19,-1.28,0.54,0.54,0.53
49.46,0.24,-0.28,0.24,-0.28,0.29,0.93,-1.51,0.53,0.54,0.53
49.96,0.50,-0.02,0.50,-0.03,0.03,0.66,-1.74,0.53,0.54,0.52
50.46,0.76,0.22,0.76,0.23,-0.22,0.40,-1.96,0.53,0.53,0.54
50.96,1.02,0.48,1.02,0.48,-0.48,0.13,-2.19,0.54,0.53,0.54
51.47,1.28,0.75,1.28,0.74,-0.74,-0.14,-2.42,0.54,0.53,0.54
51.99,1.54,0.99,1.55,1.00,-1.01,-0.41,-2.64,0.53,0.54,0.55
52.51,1.82,1.26,1.82,1.26,-1.27,-0.69,-2.86,0.55,0.55,0.56
53.03,2.10,1.53,2.10,1.53,-1.53,-0.97,-3.08,0.57,0.57,0.57
53.56,2.37,1.80,2.37,1.80,-1.79,-1.25,-3.29,0.58,0.58,0.57
54.10,2.64,2.07,2.64,2.06,-2.06,-1.53,-3.50,0.58,0.58,0.57
54.64,2.90,2.32,2.90,2.32,-2.32,-1.82,-3.70,0.58,0.58,0.58
55.18,3.16,2.58,3.17,2.59,-2.59,-2.11,-3.90,0.57,0.57,0.58
55.74,3.43,2.85,3.43,2.85,-2.86,-2.41,-4.09,0.57,0.57,0.58
56.29,3.70,3.12,3.70,3.12,-3.13,-2.70,-4.28,0.57,0.57,0.58
56.86,3.96,3.38,3.97,3.39,-3.39,-3.00,-4.45,0.56,0.57,0.58
57.42,4.23,3.67,4.23,3.66,-3.66,-3.30,-4.62,0.57,0.57,0.56
58.00,4.49,3.93,4.49,3.93,-3.92,-3.60,-4.77,0.57,0.57,0.56
58.58,4.74,4.18,4.74,4.18,-4.18,-3.90,-4.92,0.56,0.57,0.56
59.16,4.99,4.44,4.99,4.43,-4.43,-4.20,-5.05,0.56,0.56,0.56
59.76,5.22,4.67,5.22,4.67,-4.68,-4.50,-5.18,0.54,0.55,0.55
60.35,5.45,4.91,5.45,4.91,-4.92,-4.80,-5.28,0.53,0.53,0.54
60.96,5.66,5.14,5.66,5.14,-5.15,-5.09,-5.38,0.51,0.51,0.52
61.57,5.87,5.37,5.87,5.37,-5.38,-5.38,-5.46,0.49,0.49,0.50
62.18,6.07,5.60,6.07,5.59,-5.59,-5.66,-5.53,0.48,0.48,0.47
62.80,6.26,5.80,6.26,5.80,-5.80,-5.92,-5.58,0.46,0.47,0.47
63.43,6.44,6.00,6.44,6.00,-5.99,-6.18,-5.62,0.45,0.45,0.44
64.07,6.61,6.18,6.61,6.17,-6.17,-6.42,-5.64,0.44,0.44,0.43
64.71,6.76,6.33,6.76,6.33,-6.33,-6.65,-5.65,0.43,0.43,0.43
65.35,6.89,6.47,6.89,6.48,-6.48,-6.86,-5.65,0.42,0.42,0.42
66.01,7.01,6.60,7.01,6.60,-6.60,-7.04,-5.63,0.41,0.41,0.41
66.67,7.12,6.72,7.12,6.72,-6.71,-7.21,-5.60,0.41,0.41,0.40
67.33,7.21,6.81,7.21,6.81,-6.80,-7.34,-5.56,0.41,0.41,0.40
68.01,7.28,6.88,7.28,6.88,-6.88,-7.46,-5.51,0.40,0.40,0.40
68.69,7.34,6.94,7.34,6.94,-6.94,-7.54,-5.45,0.40,0.40,0.40
69.37,7.38,6.98,7.38,6.98,-6.98,-7.60,-5.39,0.40,0.40,0.40
70.07,7.41,7.01,7.41,7.01,-7.02,-7.63,-5.31,0.39,0.39,0.40
70.77,7.43,7.03,7.43,7.03,-7.03,-7.63,-5.23,0.40,0.39,0.40
71.48,7.43,7.03,7.44,7.03,-7.04,-7.61,-5.15,0.39,0.40,0.40
72.19,7.43,7.03,7.43,7.03,-7.03,-7.56,-5.06,0.40,0.40,0.40
72.91,7.41,7.02,7.40,7.01,-7.01,-7.49,-4.96,0.40,0.40,0.39
73.64,7.36,6.98,7.36,6.98,-6.98,-7.41,-4.87,0.39,0.39,0.38
74.38,7.31,6.93,7.31,6.93,-6.93,-7.30,-4.77,0.38,0.38,0.38
75.12,7.24,6.86,7.24,6.87,-6.87,-7.18,-4.67,0.37,0.38,0.38
75.87,7.17,6.79,7.17,6.79,-6.79,-7.04,-4.57,0.38,0.38,0.38
76.63,7.08,6.71,7.08,6.70,-6.70,-6.90,-4.46,0.38,0.38,0.37
77.40,6.97,6.60,6.98,6.60,-6.60,-6.75,-4.36,0.37,0.38,0.38
78.17,6.86,6.49,6.86,6.49,-6.48,-6.58,-4.26,0.38,0.38,0.37
78.95,6.74,6.36,6.73,6.36,-6.35,-6.42,-4.16,0.39,0.38,0.38
79.74,6.60,6.21,6.60,6.21,-6.22,-6.25,-4.06,0.38,0.39,0.39
80.54,6.46,6.06,6.46,6.07,-6.07,-6.08,-3.97,0.39,0.39,0.40
81.35,6.32,5.91,6.32,5.91,-5.92,-5.90,-3.87,0.40,0.40,0.41
82.16,6.18,5.76,6.17,5.75,-5.75,-5.73,-3.78,0.43,0.42,0.42
82.98,6.02,5.58,6.03,5.59,-5.59,-5.55,-3.68,0.43,0.44,0.45
83.81,5.87,5.42,5.87,5.42,-5.42,-5.38,-3.60,0.45,0.46,0.45
84.65,5.72,5.26,5.72,5.24,-5.24,-5.21,-3.51,0.48,0.47,0.46
85.50,5.56,5.07,5.56,5.07,-5.06,-5.04,-3.42,0.50,0.50,0.50
86.35,5.39,4.88,5.39,4.88,-4.88,-4.88,-3.34,0.51,0.51,0.51
87.22,5.23,4.70,5.23,4.70,-4.71,-4.71,-3.26,0.53,0.52,0.53
88.09,5.06,4.53,5.07,4.53,-4.53,-4.55,-3.18,0.53,0.54,0.53
88.97,4.91,4.35,4.90,4.35,-4.35,-4.40,-3.11,0.56,0.55,0.56
89.86,4.74,4.18,4.74,4.18,-4.18,-4.24,-3.04,0.56,0.56,0.56
90.76,4.57,4.02,4.58,4.02,-4.02,-4.09,-2.97,0.55,0.56,0.56
91.66,4.42,3.85,4.42,3.86,-3.86,-3.95,-2.90,0.56,0.56,0.57
92.58,4.28,3.73,4.27,3.71,-3.71,-3.80,-2.83,0.57,0.56,0.55
93.51,4.12,3.57,4.12,3.57,-3.57,-3.67,-2.77,0.55,0.55,0.56
94.44,3.97,3.42,3.98,3.43,-3.44,-3.53,-2.71,0.53,0.54,0.55
95.39,3.84,3.31,3.84,3.31,-3.31,-3.40,-2.65,0.53,0.53,0.53
96.34,3.70,3.20,3.70,3.19,-3.19,-3.27,-2.60,0.51,0.51,0.50
97.30,3.56,3.09,3.56,3.09,-3.08,-3.15,-2.54,0.48,0.48,0.47
98.28,3.42,2.98,3.43,2.98,-2.98,-3.03,-2.49,0.44,0.45,0.44
99.26,3.30,2.89,3.30,2.89,-2.89,-2.91,-2.44,0.41,0.41,0.42
100.25,3.18,2.80,3.17,2.79,-2.81,-2.79,-2.40,0.37,0.36,0.38
101.25,3.05,2.71,3.05,2.71,-2.73,-2.68,-2.35,0.32,0.32,0.34
102.27,2.93,2.62,2.95,2.65,-2.67,-2.58,-2.31,0.27,0.29,0.31
103.29,2.87,2.61,2.86,2.60,-2.60,-2.47,-2.27,0.27,0.26,0.26
104.32,2.79,2.56,2.78,2.55,-2.53,-2.37,-2.22,0.26,0.25,0.23
105.37,2.68,2.49,2.68,2.49,-2.46,-2.27,-2.19,0.22,0.22,0.19
106.42,2.57,2.41,2.57,2.41,-2.39,-2.18,-2.15,0.18,0.18,0.16
107.48,2.44,2.32,2.44,2.32,-2.32,-2.08,-2.11,0.12,0.13,0.12
108.56,2.32,2.24,2.32,2.24,-2.24,-1.99,-2.08,0.08,0.08,0.08
109.64,2.19,2.15,2.19,2.15,-2.15,-1.91,-2.04,0.04,0.04,0.04
110.74,2.07,2.06,2.07,2.06,-2.07,-1.82,-2.01,0.01,0.01,0.01
111.85,1.96,1.97,1.96,1.97,-1.98,-1.74,-1.97,-0.02,-0.03,-0.01
112.97,1.84,1.90,1.84,1.89,-1.90,-1.66,-1.94,-0.06,-0.06,-0.05
114.10,1.73,1.80,1.73,1.81,-1.82,-1.58,-1.91,-0.09,-0.08,-0.07
115.24,1.63,1.73,1.64,1.74,-1.74,-1.51,-1.88,-0.11,-0.10,-0.10
116.39,1.56,1.68,1.55,1.68,-1.66,-1.44,-1.85,-0.10,-0.11,-0.12
117.55,1.47,1.62,1.46,1.61,-1.59,-1.36,-1.81,-0.12,-0.12,-0.15
118.73,1.36,1.52,1.36,1.52,-1.51,-1.30,-1.78,-0.15,-0.15,-0.16
119.92,1.25,1.42,1.25,1.43,-1.44,-1.23,-1.75,-0.19,-0.19,-0.17
121.12,1.14,1.33,1.16,1.35,-1.36,-1.17,-1.72,-0.22,-0.20,-0.19
122.33,1.09,1.29,1.08,1.28,-1.29,-1.10,-1.69,-0.20,-0.21,-0.20
123.55,1.02,1.23,1.00,1.22,-1.22,-1.04,-1.65,-0.20,-0.21,-0.21
124.79,0.92,1.15,0.93,1.15,-1.15,-0.99,-1.62,-0.23,-0.22,-0.23
126.03,0.83,1.07,0.85,1.08,-1.08,-0.93,-1.59,-0.25,-0.23,-0.24
127.29,0.77,1.02,0.77,1.02,-1.01,-0.88,-1.55,-0.24,-0.25,-0.24
128.57,0.70,0.97,0.68,0.95,-0.94,-0.82,-1.52,-0.24,-0.26,-0.27
129.85,0.59,0.87,0.60,0.88,-0.88,-0.77,-1.48,-0.29,-0.28,-0.28
131.15,0.50,0.80,0.52,0.81,-0.81,-0.72,-1.45,-0.31,-0.29,-0.30
132.46,0.46,0.77,0.44,0.75,-0.75,-0.67,-1.41,-0.29,-0.31,-0.31
133.79,0.38,0.69,0.37,0.69,-0.70,-0.63,-1.38,-0.32,-0.32,-0.31
135.12,0.29,0.63,0.31,0.64,-0.64,-0.58,-1.34,-0.35,-0.34,-0.34
136.48,0.24,0.58,0.24,0.58,-0.59,-0.54,-1.30,-0.35,-0.36,-0.34
137.84,0.18,0.54,0.18,0.55,-0.55,-0.50,-1.26,-0.37,-0.36,-0.36
139.22,0.13,0.52,0.13,0.51,-0.50,-0.46,-1.23,-0.37,-0.38,-0.39
140.61,0.07,0.48,0.06,0.47,-0.46,-0.42,-1.19,-0.39,-0.39,-0.41
142.02,-0.02,0.40,-0.00,0.42,-0.42,-0.38,-1.15,-0.44,-0.42,-0.42
143.44,-0.06,0.38,-0.07,0.38,-0.38,-0.34,-1.11,-0.44,-0.45,-0.44
144.87,-0.13,0.34,-0.13,0.33,-0.35,-0.31,-1.07,-0.47,-0.47,-0.47
146.32,-0.18,0.31,-0.18,0.30,-0.31,-0.27,-1.03,-0.49,-0.49,-0.49
147.78,-0.24,0.26,-0.23,0.27,-0.28,-0.24,-0.99,-0.52,-0.51,-0.50
149.26,-0.28,0.24,-0.28,0.26,-0.25,-0.21,-0.96,-0.53,-0.53,-0.52
150.75,-0.32,0.25,-0.33,0.23,-0.22,-0.17,-0.92,-0.54,-0.55,-0.57
152.26,-0.37,0.22,-0.38,0.21,-0.20,-0.14,-0.88,-0.57,-0.58,-0.59
153.78,-0.45,0.17,-0.44,0.18,-0.18,-0.12,-0.84,-0.63,-0.62,-0.62
155.32,-0.50,0.15,-0.50,0.14,-0.16,-0.09,-0.80,-0.65,-0.66,-0.65
156.88,-0.56,0.11,-0.56,0.12,-0.14,-0.06,-0.76,-0.69,-0.69,-0.67
158.44,-0.60,0.11,-0.60,0.11,-0.12,-0.04,-0.72,-0.72,-0.72,-0.70
160.03,-0.65,0.10,-0.64,0.10,-0.10,-0.01,-0.69,-0.75,-0.74,-0.75
161.63,-0.68,0.10,-0.69,0.09,-0.08,0.01,-0.65,-0.76,-0.77,-0.78
163.24,-0.73,0.08,-0.74,0.07,-0.06,0.04,-0.61,-0.79,-0.80,-0.81
164.88,-0.79,0.04,-0.78,0.05,-0.05,0.06,-0.57,-0.84,-0.83,-0.83
166.53,-0.83,0.03,-0.83,0.03,-0.03,0.08,-0.54,-0.86,-0.85,-0.86
168.19,-0.86,0.04,-0.87,0.02,-0.01,0.10,-0.50,-0.87,-0.88,-0.90
169.87,-0.92,-0.01,-0.92,-0.00,0.01,0.12,-0.46,-0.91,-0.91,-0.91
171.57,-0.98,-0.04,-0.97,-0.03,0.02,0.14,-0.43,-0.96,-0.95,-0.94
173.29,-1.02,-0.05,-1.02,-0.06,0.04,0.16,-0.39,-0.98,-0.98,-0.97
175.02,-1.06,-0.07,-1.06,-0.07,0.05,0.18,-0.35,-1.01,-1.01,-0.98
176.77,-1.09,-0.07,-1.09,-0.07,0.07,0.19,-0.32,-1.02,-1.02,-1.02
178.54,-1.11,-0.06,-1.11,-0.07,0.08,0.21,-0.28,-1.03,-1.03,-1.05
180.32,-1.13,-0.07,-1.13,-0.07,0.09,0.22,-0.25,-1.04,-1.04,-1.06
182.13,-1.16,-0.09,-1.17,-0.10,0.11,0.24,-0.21,-1.05,-1.06,-1.07
183.95,-1.22,-0.13,-1.21,-0.12,0.13,0.25,-0.18,-1.09,-1.09,-1.09
185.79,-1.26,-0.16,-1.25,-0.15,0.14,0.27,-0.14,-1.11,-1.11,-1.10
187.65,-1.29,-0.17,-1.29,-0.17,0.17,0.28,-0.11,-1.12,-1.13,-1.12
189.52,-1.32,-0.19,-1.32,-0.19,0.19,0.29,-0.07,-1.13,-1.13,-1.13
191.42,-1.35,-0.21,-1.35,-0.21,0.21,0.30,-0.04,-1.14,-1.15,-1.14
193.33,-1.38,-0.22,-1.38,-0.23,0.22,0.32,-0.00,-1.16,-1.16,-1.15
195.27,-1.41,-0.24,-1.41,-0.24,0.23,0.33,0.03,-1.17,-1.17,-1.17
197.22,-1.43,-0.25,-1.43,-0.25,0.24,0.34,0.06,-1.18,-1.19,-1.18
199.19,-1.45,-0.24,-1.45,-0.25,0.25,0.35,0.10,-1.20,-1.20,-1.21
201.18,-1.47,-0.26,-1.47,-0.26,0.26,0.36,0.13,-1.21,-1.21,-1.21
203.19,-1.49,-0.27,-1.49,-0.27,0.27,0.36,0.16,-1.22,-1.22,-1.22
205.23,-1.52,-0.28,-1.52,-0.28,0.28,0.37,0.20,-1.24,-1.24,-1.24
207.28,-1.54,-0.30,-1.54,-0.29,0.29,0.38,0.23,-1.25,-1.25,-1.24
209.35,-1.56,-0.30,-1.56,-0.30,0.30,0.39,0.26,-1.25,-1.26,-1.26
211.44,-1.58,-0.30,-1.58,-0.31,0.32,0.39,0.29,-1.26,-1.26,-1.28
213.56,-1.61,-0.33,-1.61,-0.33,0.34,0.40,0.32,-1.27,-1.27,-1.28
215.69,-1.64,-0.37,-1.64,-0.36,0.36,0.41,0.35,-1.28,-1.28,-1.27
217.85,-1.67,-0.39,-1.67,-0.38,0.38,0.41,0.38,-1.29,-1.29,-1.28
220.03,-1.69,-0.39,-1.69,-0.40,0.40,0.42,0.41,-1.29,-1.29,-1.30
222.23,-1.72,-0.41,-1.72,-0.42,0.42,0.42,0.44,-1.29,-1.30,-1.31
224.45,-1.75,-0.46,-1.75,-0.45,0.45,0.43,0.47,-1.30,-1.30,-1.29
226.70,-1.78,-0.48,-1.78,-0.48,0.47,0.43,0.49,-1.30,-1.30,-1.30
228.96,-1.81,-0.50,-1.81,-0.50,0.50,0.44,0.52,-1.31,-1.31,-1.31
231.25,-1.83,-0.53,-1.83,-0.53,0.52,0.44,0.54,-1.31,-1.31,-1.30
233.57,-1.86,-0.55,-1.86,-0.55,0.55,0.45,0.56,-1.31,-1.32,-1.31
235.90,-1.90,-0.58,-1.89,-0.57,0.57,0.45,0.59,-1.33,-1.32,-1.32
238.26,-1.92,-0.59,-1.92,-0.60,0.59,0.45,0.61,-1.32,-1.33,-1.33
240.64,-1.95,-0.62,-1.95,-0.62,0.62,0.46,0.63,-1.33,-1.33,-1.33
243.05,-1.97,-0.64,-1.97,-0.64,0.65,0.46,0.64,-1.32,-1.33,-1.33
245.48,-2.00,-0.67,-2.00,-0.67,0.68,0.46,0.66,-1.32,-1.33,-1.33
247.93,-2.04,-0.71,-2.03,-0.70,0.71,0.46,0.68,-1.33,-1.33,-1.33
250.41,-2.06,-0.72,-2.07,-0.74,0.74,0.46,0.69,-1.32,-1.33,-1.34
252.92,-2.11,-0.79,-2.10,-0.78,0.78,0.47,0.70,-1.33,-1.32,-1.32
255.45,-2.13,-0.82,-2.13,-0.82,0.82,0.47,0.72,-1.31,-1.31,-1.31
258.00,-2.15,-0.85,-2.16,-0.86,0.85,0.47,0.73,-1.30,-1.30,-1.30
260.58,-2.18,-0.88,-2.17,-0.89,0.89,0.47,0.74,-1.29,-1.29,-1.30
263.19,-2.19,-0.92,-2.19,-0.92,0.92,0.47,0.74,-1.27,-1.28,-1.27
265.82,-2.21,-0.95,-2.21,-0.95,0.94,0.47,0.75,-1.27,-1.27,-1.26
268.48,-2.22,-0.97,-2.22,-0.97,0.96,0.47,0.76,-1.26,-1.25,-1.25
271.16,-2.22,-0.99,-2.21,-0.98,0.98,0.48,0.76,-1.24,-1.24,-1.23
273.87,-2.20,-0.99,-2.20,-0.99,0.99,0.48,0.77,-1.21,-1.21,-1.21
276.61,-2.18,-0.98,-2.18,-0.98,0.99,0.48,0.77,-1.19,-1.19,-1.20
279.38,-2.17,-0.98,-2.17,-0.98,0.99,0.48,0.77,-1.18,-1.18,-1.19
282.17,-2.16,-0.98,-2.16,-0.98,0.99,0.48,0.78,-1.17,-1.17,-1.18
284.99,-2.15,-0.99,-2.14,-0.98,0.98,0.48,0.78,-1.17,-1.16,-1.16
287.84,-2.11,-0.96,-2.11,-0.97,0.96,0.48,0.78,-1.15,-1.15,-1.15
290.72,-2.07,-0.94,-2.07,-0.95,0.93,0.48,0.78,-1.14,-1.14,-1.13
293.63,-2.03,-0.92,-2.02,-0.91,0.90,0.48,0.78,-1.13,-1.12,-1.11
296.57,-1.97,-0.88,-1.97,-0.87,0.87,0.48,0.78,-1.10,-1.10,-1.09
299.53,-1.90,-0.82,-1.90,-0.82,0.82,0.48,0.78,-1.08,-1.08,-1.08
302.53,-1.82,-0.76,-1.82,-0.77,0.78,0.48,0.79,-1.04,-1.05,-1.06
305.55,-1.75,-0.73,-1.75,-0.71,0.73,0.48,0.79,-1.02,-1.02,-1.02
308.61,-1.67,-0.66,-1.67,-0.67,0.67,0.48,0.79,-1.00,-1.00,-1.01
311.69,-1.59,-0.61,-1.59,-0.62,0.62,0.48,0.79,-0.97,-0.98,-0.98
314.81,-1.52,-0.58,-1.51,-0.57,0.56,0.48,0.79,-0.96,-0.95,-0.94
317.96,-1.44,-0.52,-1.44,-0.52,0.51,0.48,0.79,-0.93,-0.93,-0.92
321.14,-1.35,-0.46,-1.35,-0.46,0.45,0.48,0.80,-0.90,-0.90,-0.89
324.35,-1.28,-0.40,-1.27,-0.40,0.40,0.48,0.80,-0.88,-0.87,-0.87
327.59,-1.19,-0.34,-1.20,-0.35,0.36,0.48,0.81,-0.83,-0.84,-0.85
330.87,-1.13,-0.31,-1.13,-0.30,0.32,0.48,0.81,-0.81,-0.81,-0.82
334.18,-1.07,-0.27,-1.07,-0.27,0.28,0.48,0.82,-0.79,-0.79,-0.80
337.52,-1.01,-0.24,-1.02,-0.25,0.25,0.48,0.82,-0.76,-0.76,-0.77
340.90,-0.98,-0.24,-0.98,-0.23,0.23,0.48,0.83,-0.75,-0.74,-0.74
344.30,-0.94,-0.23,-0.94,-0.23,0.22,0.48,0.84,-0.72,-0.72,-0.71
347.75,-0.92,-0.22,-0.92,-0.22,0.21,0.49,0.84,-0.71,-0.70,-0.70
351.23,-0.89,-0.22,-0.89,-0.22,0.21,0.49,0.85,-0.68,-0.67,-0.67
354.74,-0.86,-0.22,-0.86,-0.22,0.22,0.49,0.86,-0.64,-0.64,-0.64
358.28,-0.84,-0.22,-0.84,-0.23,0.24,0.49,0.87,-0.60,-0.61,-0.62
361.87,-0.84,-0.25,-0.84,-0.25,0.26,0.49,0.88,-0.58,-0.58,-0.59
365.49,-0.85,-0.28,-0.85,-0.28,0.29,0.49,0.90,-0.56,-0.56,-0.57
369.14,-0.87,-0.32,-0.88,-0.32,0.33,0.50,0.91,-0.54,-0.55,-0.55
372.83,-0.91,-0.38,-0.91,-0.37,0.37,0.50,0.92,-0.54,-0.53,-0.53
376.56,-0.95,-0.44,-0.94,-0.43,0.42,0.50,0.94,-0.53,-0.52,-0.51
380.33,-0.97,-0.48,-0.98,-0.48,0.47,0.50,0.95,-0.50,-0.50,-0.48
384.13,-1.01,-0.53,-1.01,-0.53,0.53,0.51,0.97,-0.48,-0.48,-0.48
387.97,-1.04,-0.57,-1.04,-0.58,0.58,0.51,0.98,-0.46,-0.46,-0.47
391.85,-1.08,-0.62,-1.08,-0.62,0.63,0.52,1.00,-0.45,-0.45,-0.46
395.77,-1.11,-0.67,-1.11,-0.67,0.67,0.52,1.01,-0.44,-0.44,-0.44
399.73,-1.14,-0.71,-1.14,-0.71,0.71,0.53,1.03,-0.43,-0.43,-0.43
403.72,-1.17,-0.75,-1.17,-0.75,0.75,0.53,1.05,-0.42,-0.42,-0.42
407.76,-1.19,-0.78,-1.19,-0.79,0.78,0.54,1.07,-0.41,-0.41,-0.41
411.84,-1.21,-0.82,-1.21,-0.81,0.80,0.54,1.08,-0.41,-0.41,-0.39
415.96,-1.23,-0.84,-1.22,-0.83,0.82,0.55,1.10,-0.41,-0.40,-0.39
420.12,-1.23,-0.84,-1.23,-0.84,0.83,0.56,1.12,-0.40,-0.40,-0.39
424.32,-1.23,-0.84,-1.23,-0.83,0.83,0.56,1.14,-0.40,-0.39,-0.39
428.56,-1.22,-0.83,-1.22,-0.83,0.83,0.57,1.15,-0.39,-0.39,-0.39
432.85,-1.21,-0.82,-1.21,-0.82,0.83,0.58,1.17,-0.38,-0.39,-0.39
437.18,-1.21,-0.81,-1.21,-0.82,0.82,0.59,1.19,-0.39,-0.39,-0.39
441.55,-1.21,-0.81,-1.21,-0.81,0.82,0.60,1.20,-0.39,-0.39,-0.39
445.96,-1.21,-0.81,-1.21,-0.81,0.81,0.61,1.21,-0.40,-0.40,-0.40
450.42,-1.21,-0.80,-1.21,-0.81,0.81,0.63,1.23,-0.40,-0.40,-0.41
454.93,-1.21,-0.80,-1.21,-0.80,0.81,0.64,1.24,-0.40,-0.40,-0.41
