frequency,raw,error,smoothed,error_smoothed,equalization,parametric_eq,fixed_band_eq,equalized_raw,equalized_smoothed,target
20.00,-1.91,-4.73,-1.91,-4.72,4.73,4.43,1.80,2.81,2.81,2.81
20.20,-1.86,-4.66,-1.86,-4.66,4.66,4.43,1.85,2.80,2.80,2.79
20.40,-1.82,-4.61,-1.82,-4.61,4.60,4.42,1.91,2.78,2.78,2.78
20.61,-1.77,-4.56,-1.78,-4.55,4.55,4.42,1.96,2.77,2.77,2.78
20.81,-1.73,-4.50,-1.74,-4.50,4.50,4.41,2.02,2.77,2.76,2.76
21.02,-1.70,-4.46,-1.70,-4.45,4.45,4.40,2.08,2.75,2.76,2.75
21.23,-1.66,-4.40,-1.67,-4.41,4.41,4.39,2.14,2.75,2.75,2.74
21.44,-1.63,-4.38,-1.63,-4.38,4.38,4.38,2.20,2.74,2.74,2.75
21.66,-1.61,-4.35,-1.61,-4.35,4.34,4.37,2.27,2.73,2.73,2.74
21.87,-1.58,-4.31,-1.59,-4.32,4.32,4.36,2.34,2.73,2.73,2.73
22.09,-1.57,-4.29,-1.57,-4.29,4.29,4.35,2.40,2.72,2.73,2.72
22.31,-1.55,-4.27,-1.55,-4.27,4.28,4.34,2.47,2.73,2.73,2.72
22.54,-1.54,-4.25,-1.55,-4.26,4.27,4.33,2.55,2.73,2.73,2.71
22.76,-1.54,-4.26,-1.55,-4.26,4.27,4.32,2.62,2.72,2.72,2.72
22.99,-1.55,-4.26,-1.56,-4.26,4.27,4.31,2.69,2.71,2.71,2.71
23.22,-1.57,-4.27,-1.57,-4.27,4.27,4.30,2.77,2.69,2.70,2.70
23.45,-1.58,-4.28,-1.58,-4.28,4.27,4.29,2.85,2.68,2.69,2.70
23.69,-1.58,-4.28,-1.58,-4.27,4.27,4.28,2.93,2.68,2.69,2.70
23.92,-1.56,-4.26,-1.57,-4.27,4.26,4.26,3.01,2.70,2.69,2.70
24.16,-1.55,-4.25,-1.55,-4.25,4.24,4.25,3.10,2.69,2.69,2.69
24.40,-1.53,-4.24,-1.53,-4.23,4.22,4.24,3.18,2.69,2.69,2.70
24.65,-1.50,-4.21,-1.50,-4.20,4.20,4.23,3.27,2.69,2.69,2.70
24.89,-1.47,-4.17,-1.47,-4.17,4.17,4.21,3.35,2.69,2.69,2.69
25.14,-1.44,-4.12,-1.44,-4.13,4.13,4.20,3.44,2.69,2.69,2.68
25.39,-1.41,-4.09,-1.41,-4.09,4.10,4.19,3.53,2.68,2.68,2.68
25.65,-1.38,-4.05,-1.38,-4.06,4.06,4.17,3.62,2.68,2.68,2.67
25.91,-1.35,-4.02,-1.35,-4.03,4.03,4.16,3.70,2.67,2.67,2.67
26.16,-1.32,-4.00,-1.32,-3.99,3.99,4.15,3.79,2.67,2.67,2.68
26.43,-1.29,-3.96,-1.30,-3.97,3.96,4.14,3.88,2.67,2.67,2.67
26.69,-1.27,-3.94,-1.27,-3.94,3.94,4.12,3.96,2.66,2.66,2.67
26.96,-1.25,-3.92,-1.25,-3.91,3.92,4.11,4.05,2.66,2.66,2.67
27.23,-1.23,-3.89,-1.24,-3.89,3.90,4.10,4.13,2.67,2.66,2.65
27.50,-1.22,-3.88,-1.22,-3.88,3.89,4.08,4.21,2.67,2.67,2.65
27.77,-1.21,-3.88,-1.21,-3.87,3.88,4.07,4.29,2.67,2.67,2.66
28.05,-1.21,-3.87,-1.22,-3.88,3.88,4.06,4.36,2.67,2.66,2.66
28.33,-1.22,-3.88,-1.22,-3.88,3.88,4.04,4.43,2.66,2.66,2.66
28.62,-1.23,-3.89,-1.23,-3.89,3.88,4.03,4.50,2.65,2.66,2.66
28.90,-1.23,-3.90,-1.23,-3.90,3.89,4.02,4.56,2.66,2.66,2.67
29.19,-1.23,-3.90,-1.23,-3.90,3.90,4.00,4.62,2.66,2.66,2.67
29.48,-1.23,-3.90,-1.23,-3.90,3.90,3.99,4.67,2.67,2.67,2.66
29.78,-1.23,-3.90,-1.23,-3.90,3.90,3.98,4.71,2.67,2.67,2.66
30.08,-1.23,-3.91,-1.23,-3.90,3.90,3.96,4.75,2.67,2.67,2.68
30.38,-1.23,-3.90,-1.23,-3.90,3.90,3.95,4.78,2.67,2.67,2.67
30.68,-1.23,-3.90,-1.23,-3.90,3.90,3.94,4.80,2.67,2.67,2.67
30.99,-1.23,-3.90,-1.23,-3.90,3.90,3.92,4.82,2.67,2.67,2.67
31.30,-1.23,-3.90,-1.23,-3.90,3.90,3.91,4.83,2.66,2.66,2.66
31.61,-1.23,-3.90,-1.23,-3.89,3.89,3.90,4.83,2.66,2.66,2.66
31.93,-1.23,-3.88,-1.23,-3.89,3.89,3.88,4.83,2.65,2.65,2.65
32.24,-1.23,-3.88,-1.23,-3.88,3.88,3.87,4.82,2.65,2.65,2.65
32.57,-1.23,-3.87,-1.23,-3.87,3.87,3.86,4.80,2.64,2.64,2.64
32.89,-1.23,-3.87,-1.23,-3.87,3.87,3.84,4.77,2.64,2.64,2.63
33.22,-1.23,-3.86,-1.23,-3.86,3.86,3.83,4.74,2.63,2.63,2.63
33.55,-1.23,-3.86,-1.23,-3.86,3.86,3.82,4.71,2.62,2.62,2.63
33.89,-1.23,-3.85,-1.23,-3.85,3.85,3.80,4.66,2.62,2.62,2.62
34.23,-1.23,-3.84,-1.23,-3.84,3.84,3.79,4.62,2.61,2.61,2.60
34.57,-1.23,-3.83,-1.23,-3.83,3.83,3.77,4.56,2.60,2.60,2.60
34.92,-1.23,-3.82,-1.23,-3.82,3.82,3.76,4.51,2.59,2.59,2.59
35.27,-1.23,-3.83,-1.23,-3.82,3.81,3.74,4.45,2.58,2.58,2.59
35.62,-1.23,-3.79,-1.23,-3.80,3.80,3.73,4.39,2.57,2.57,2.56
35.97,-1.23,-3.79,-1.23,-3.79,3.79,3.71,4.32,2.56,2.56,2.56
36.33,-1.23,-3.78,-1.23,-3.78,3.78,3.70,4.26,2.55,2.55,2.54
36.70,-1.23,-3.76,-1.23,-3.77,3.77,3.68,4.19,2.53,2.53,2.53
37.06,-1.23,-3.75,-1.23,-3.75,3.75,3.66,4.12,2.52,2.52,2.52
37.43,-1.23,-3.74,-1.23,-3.74,3.73,3.65,4.05,2.50,2.50,2.50
37.81,-1.23,-3.72,-1.23,-3.72,3.72,3.63,3.98,2.48,2.48,2.49
38.19,-1.23,-3.70,-1.23,-3.70,3.70,3.61,3.91,2.47,2.47,2.47
38.57,-1.23,-3.68,-1.23,-3.68,3.68,3.60,3.84,2.45,2.45,2.45
38.95,-1.23,-3.66,-1.24,-3.66,3.67,3.58,3.77,2.43,2.43,2.43
39.34,-1.24,-3.65,-1.24,-3.65,3.65,3.56,3.71,2.41,2.41,2.40
39.74,-1.24,-3.63,-1.25,-3.63,3.63,3.54,3.64,2.39,2.39,2.39
40.14,-1.25,-3.62,-1.25,-3.61,3.62,3.52,3.58,2.36,2.37,2.36
40.54,-1.25,-3.60,-1.25,-3.60,3.60,3.50,3.51,2.34,2.34,2.35
40.94,-1.25,-3.57,-1.25,-3.58,3.57,3.48,3.45,2.32,2.32,2.32
41.35,-1.25,-3.56,-1.25,-3.55,3.55,3.46,3.39,2.29,2.30,2.31
41.76,-1.23,-3.52,-1.23,-3.52,3.52,3.44,3.34,2.28,2.28,2.29
42.18,-1.21,-3.49,-1.21,-3.48,3.48,3.42,3.28,2.27,2.27,2.27
42.60,-1.19,-3.44,-1.19,-3.44,3.44,3.40,3.23,2.25,2.25,2.25
43.03,-1.16,-3.38,-1.17,-3.39,3.40,3.37,3.18,2.23,2.23,2.22
43.46,-1.14,-3.35,-1.14,-3.34,3.35,3.35,3.13,2.20,2.20,2.20
43.90,-1.11,-3.29,-1.11,-3.29,3.29,3.33,3.08,2.18,2.18,2.18
44.33,-1.08,-3.24,-1.08,-3.24,3.24,3.30,3.04,2.15,2.15,2.16
44.78,-1.04,-3.18,-1.05,-3.18,3.18,3.28,3.00,2.13,2.13,2.13
45.23,-1.01,-3.13,-1.01,-3.12,3.11,3.25,2.96,2.10,2.10,2.11
45.68,-0.98,-3.06,-0.98,-3.06,3.05,3.23,2.92,2.07,2.07,2.08
46.13,-0.95,-2.99,-0.95,-2.99,2.99,3.20,2.89,2.04,2.04,2.04
46.60,-0.92,-2.93,-0.92,-2.93,2.94,3.17,2.85,2.01,2.01,2.01
47.06,-0.89,-2.87,-0.90,-2.88,2.88,3.15,2.82,1.99,1.99,1.98
47.53,-0.88,-2.83,-0.88,-2.83,2.84,3.12,2.80,1.95,1.95,1.95
48.01,-0.88,-2.78,-0.88,-2.79,2.80,3.09,2.77,1.92,1.92,1.90
48.49,-0.89,-2.76,-0.89,-2.76,2.77,3.06,2.75,1.88,1.88,1.87
48.97,-0.91,-2.74,-0.91,-2.74,2.75,3.03,2.72,1.84,1.84,1.83
49.46,-0.94,-2.74,-0.94,-2.73,2.74,3.00,2.70,1.79,1.79,1.80
49.96,-0.97,-2.72,-0.97,-2.73,2.73,2.97,2.69,1.75,1.75,1.75
50.46,-1.00,-2.73,-1.00,-2.73,2.72,2.94,2.67,1.72,1.72,1.73
50.96,-1.03,-2.73,-1.03,-2.72,2.72,2.91,2.65,1.68,1.69,1.69
51.47,-1.06,-2.72,-1.06,-2.72,2.71,2.88,2.64,1.65,1.65,1.66
51.99,-1.08,-2.71,-1.09,-2.71,2.71,2.85,2.63,1.63,1.62,1.63
52.51,-1.11,-2.71,-1.11,-2.71,2.71,2.82,2.62,1.59,1.60,1.59
53.03,-1.13,-2.70,-1.14,-2.70,2.70,2.79,2.61,1.57,1.56,1.57
53.56,-1.16,-2.69,-1.17,-2.70,2.69,2.75,2.59,1.53,1.53,1.53
54.10,-1.20,-2.69,-1.20,-2.69,2.69,2.72,2.59,1.49,1.49,1.49
54.64,-1.23,-2.69,-1.23,-2.68,2.69,2.69,2.58,1.46,1.45,1.45
55.18,-1.27,-2.68,-1.27,-2.68,2.69,2.65,2.57,1.42,1.42,1.41
55.74,-1.30,-2.68,-1.31,-2.69,2.69,2.62,2.56,1.39,1.39,1.37
56.29,-1.34,-2.70,-1.34,-2.69,2.70,2.59,2.55,1.35,1.35,1.35
56.86,-1.38,-2.71,-1.38,-2.70,2.70,2.55,2.54,1.32,1.32,1.33
57.42,-1.41,-2.70,-1.41,-2.70,2.70,2.52,2.53,1.29,1.29,1.29
58.00,-1.43,-2.69,-1.44,-2.70,2.70,2.48,2.51,1.27,1.27,1.26
58.58,-1.45,-2.70,-1.45,-2.70,2.70,2.45,2.50,1.25,1.24,1.25
59.16,-1.47,-2.69,-1.47,-2.69,2.68,2.41,2.49,1.21,1.21,1.22
59.76,-1.48,-2.67,-1.48,-2.67,2.66,2.38,2.47,1.18,1.17,1.19
60.35,-1.49,-2.64,-1.49,-2.64,2.63,2.34,2.45,1.13,1.14,1.15
60.96,-1.48,-2.59,-1.49,-2.59,2.58,2.31,2.43,1.10,1.10,1.11
61.57,-1.47,-2.53,-1.48,-2.53,2.53,2.27,2.41,1.06,1.05,1.05
62.18,-1.46,-2.47,-1.46,-2.47,2.47,2.23,2.39,1.00,1.01,1.01
62.80,-1.43,-2.40,-1.43,-2.40,2.40,2.20,2.37,0.97,0.96,0.96
63.43,-1.40,-2.32,-1.41,-2.33,2.33,2.16,2.34,0.92,0.92,0.92
64.07,-1.37,-2.26,-1.37,-2.25,2.25,2.13,2.31,0.88,0.89,0.88
64.71,-1.33,-2.18,-1.33,-2.18,2.18,2.09,2.28,0.85,0.85,0.85
65.35,-1.29,-2.10,-1.30,-2.11,2.11,2.06,2.25,0.82,0.81,0.81
66.01,-1.27,-2.04,-1.27,-2.04,2.05,2.02,2.22,0.77,0.78,0.77
66.67,-1.24,-1.99,-1.25,-1.98,1.99,1.98,2.18,0.74,0.74,0.74
67.33,-1.23,-1.93,-1.23,-1.93,1.93,1.95,2.15,0.70,0.70,0.69
68.01,-1.22,-1.88,-1.22,-1.87,1.88,1.91,2.11,0.66,0.66,0.65
68.69,-1.21,-1.82,-1.22,-1.83,1.84,1.88,2.07,0.63,0.62,0.61
69.37,-1.21,-1.79,-1.22,-1.80,1.80,1.84,2.03,0.58,0.58,0.58
70.07,-1.22,-1.77,-1.22,-1.76,1.76,1.81,1.99,0.53,0.54,0.55
70.77,-1.23,-1.74,-1.23,-1.73,1.72,1.77,1.94,0.49,0.49,0.50
71.48,-1.23,-1.69,-1.23,-1.69,1.68,1.74,1.90,0.45,0.45,0.46
72.19,-1.23,-1.64,-1.23,-1.65,1.64,1.70,1.85,0.41,0.41,0.41
72.91,-1.23,-1.61,-1.23,-1.60,1.61,1.67,1.81,0.37,0.37,0.38
73.64,-1.23,-1.56,-1.23,-1.56,1.57,1.63,1.77,0.34,0.34,0.33
74.38,-1.23,-1.52,-1.23,-1.53,1.53,1.60,1.72,0.30,0.30,0.29
75.12,-1.23,-1.49,-1.23,-1.49,1.50,1.56,1.68,0.26,0.26,0.26
75.87,-1.23,-1.46,-1.23,-1.46,1.46,1.53,1.63,0.23,0.23,0.23
76.63,-1.23,-1.43,-1.23,-1.43,1.43,1.49,1.59,0.20,0.20,0.20
77.40,-1.23,-1.40,-1.23,-1.40,1.40,1.46,1.54,0.17,0.17,0.17
78.17,-1.23,-1.37,-1.23,-1.37,1.37,1.42,1.50,0.14,0.14,0.14
78.95,-1.23,-1.35,-1.23,-1.35,1.35,1.39,1.45,0.11,0.11,0.11
79.74,-1.23,-1.32,-1.23,-1.32,1.32,1.36,1.41,0.09,0.09,0.09
80.54,-1.23,-1.29,-1.23,-1.29,1.29,1.32,1.37,0.06,0.06,0.05
81.35,-1.23,-1.26,-1.23,-1.26,1.26,1.29,1.32,0.03,0.03,0.03
82.16,-1.23,-1.24,-1.23,-1.23,1.23,1.26,1.28,-0.00,-0.00,0.00
82.98,-1.23,-1.20,-1.23,-1.20,1.20,1.23,1.24,-0.04,-0.04,-0.04
83.81,-1.23,-1.16,-1.23,-1.16,1.16,1.19,1.20,-0.07,-0.07,-0.07
84.65,-1.23,-1.13,-1.23,-1.13,1.13,1.16,1.16,-0.10,-0.10,-0.10
85.50,-1.23,-1.09,-1.23,-1.09,1.10,1.13,1.12,-0.14,-0.14,-0.14
86.35,-1.23,-1.06,-1.23,-1.06,1.06,1.10,1.09,-0.17,-0.17,-0.17
87.22,-1.23,-1.03,-1.23,-1.03,1.02,1.06,1.05,-0.21,-0.21,-0.20
88.09,-1.23,-0.99,-1.23,-0.99,0.99,1.03,1.01,-0.24,-0.24,-0.24
88.97,-1.23,-0.96,-1.23,-0.95,0.95,1.00,0.98,-0.28,-0.28,-0.28
89.86,-1.23,-0.91,-1.23,-0.92,0.92,0.97,0.94,-0.31,-0.31,-0.32
90.76,-1.23,-0.88,-1.23,-0.88,0.88,0.94,0.91,-0.35,-0.35,-0.35
91.66,-1.23,-0.85,-1.23,-0.85,0.85,0.91,0.87,-0.38,-0.38,-0.39
92.58,-1.23,-0.81,-1.23,-0.81,0.81,0.88,0.84,-0.42,-0.42,-0.42
93.51,-1.23,-0.78,-1.23,-0.78,0.77,0.85,0.81,-0.46,-0.46,-0.46
94.44,-1.23,-0.74,-1.23,-0.74,0.73,0.82,0.78,-0.50,-0.50,-0.49
95.39,-1.23,-0.70,-1.23,-0.70,0.69,0.79,0.75,-0.54,-0.54,-0.54
96.34,-1.23,-0.65,-1.23,-0.66,0.65,0.76,0.72,-0.59,-0.59,-0.58
97.30,-1.23,-0.61,-1.23,-0.61,0.60,0.73,0.69,-0.63,-0.63,-0.62
98.28,-1.22,-0.57,-1.22,-0.56,0.56,0.70,0.66,-0.66,-0.66,-0.66
99.26,-1.21,-0.51,-1.22,-0.52,0.52,0.67,0.63,-0.69,-0.69,-0.70
100.25,-1.21,-0.47,-1.21,-0.48,0.49,0.64,0.61,-0.72,-0.72,-0.74
101.25,-1.22,-0.46,-1.22,-0.45,0.46,0.61,0.58,-0.76,-0.76,-0.76
102.27,-1.23,-0.44,-1.23,-0.44,0.44,0.58,0.55,-0.79,-0.79,-0.80
103.29,-1.25,-0.42,-1.25,-0.43,0.42,0.55,0.53,-0.83,-0.83,-0.83
104.32,-1.27,-0.42,-1.27,-0.42,0.41,0.52,0.50,-0.86,-0.86,-0.85
105.37,-1.30,-0.41,-1.30,-0.41,0.41,0.49,0.47,-0.89,-0.89,-0.89
106.42,-1.32,-0.41,-1.33,-0.41,0.41,0.46,0.45,-0.92,-0.92,-0.92
107.48,-1.35,-0.40,-1.36,-0.40,0.41,0.43,0.43,-0.95,-0.95,-0.96
108.56,-1.39,-0.41,-1.39,-0.40,0.41,0.41,0.40,-0.99,-0.98,-0.98
109.64,-1.42,-0.40,-1.42,-0.40,0.40,0.38,0.38,-1.02,-1.02,-1.02
110.74,-1.45,-0.40,-1.45,-0.40,0.40,0.35,0.35,-1.05,-1.05,-1.05
111.85,-1.48,-0.40,-1.48,-0.40,0.40,0.32,0.33,-1.09,-1.09,-1.09
112.97,-1.51,-0.39,-1.51,-0.39,0.39,0.29,0.31,-1.13,-1.12,-1.12
114.10,-1.53,-0.38,-1.53,-0.38,0.37,0.27,0.28,-1.16,-1.16,-1.15
115.24,-1.55,-0.36,-1.56,-0.36,0.36,0.24,0.26,-1.20,-1.20,-1.20
116.39,-1.57,-0.33,-1.57,-0.34,0.33,0.21,0.24,-1.24,-1.24,-1.24
117.55,-1.58,-0.32,-1.58,-0.31,0.31,0.18,0.22,-1.28,-1.27,-1.27
118.73,-1.58,-0.27,-1.59,-0.28,0.28,0.16,0.19,-1.31,-1.31,-1.31
119.92,-1.58,-0.25,-1.58,-0.25,0.25,0.13,0.17,-1.34,-1.34,-1.34
121.12,-1.57,-0.21,-1.57,-0.21,0.21,0.10,0.15,-1.36,-1.36,-1.36
122.33,-1.56,-0.17,-1.57,-0.17,0.18,0.07,0.13,-1.39,-1.39,-1.39
123.55,-1.56,-0.14,-1.56,-0.14,0.14,0.05,0.10,-1.42,-1.42,-1.43
124.79,-1.56,-0.11,-1.56,-0.11,0.11,0.02,0.08,-1.45,-1.45,-1.45
126.03,-1.56,-0.07,-1.56,-0.08,0.07,-0.01,0.06,-1.49,-1.49,-1.49
127.29,-1.56,-0.04,-1.56,-0.04,0.04,-0.03,0.04,-1.52,-1.52,-1.52
128.57,-1.56,-0.01,-1.56,-0.01,0.00,-0.06,0.01,-1.56,-1.56,-1.55
129.85,-1.56,0.03,-1.56,0.03,-0.03,-0.09,-0.01,-1.60,-1.60,-1.59
131.15,-1.56,0.07,-1.56,0.07,-0.07,-0.11,-0.03,-1.63,-1.63,-1.63
132.46,-1.56,0.11,-1.56,0.11,-0.10,-0.14,-0.06,-1.67,-1.67,-1.67
133.79,-1.56,0.14,-1.56,0.14,-0.14,-0.17,-0.08,-1.70,-1.70,-1.71
135.12,-1.56,0.18,-1.56,0.17,-0.17,-0.20,-0.10,-1.74,-1.74,-1.74
136.48,-1.56,0.20,-1.56,0.20,-0.21,-0.22,-0.13,-1.77,-1.77,-1.76
137.84,-1.56,0.23,-1.56,0.24,-0.24,-0.25,-0.15,-1.80,-1.80,-1.79
139.22,-1.56,0.28,-1.56,0.27,-0.27,-0.28,-0.18,-1.83,-1.83,-1.84
140.61,-1.56,0.30,-1.56,0.30,-0.30,-0.30,-0.20,-1.86,-1.86,-1.86
142.02,-1.56,0.33,-1.56,0.33,-0.33,-0.33,-0.23,-1.89,-1.89,-1.90
143.44,-1.56,0.36,-1.56,0.36,-0.35,-0.36,-0.25,-1.92,-1.92,-1.93
144.87,-1.56,0.37,-1.56,0.38,-0.38,-0.38,-0.28,-1.94,-1.94,-1.94
146.32,-1.56,0.41,-1.56,0.40,-0.41,-0.41,-0.31,-1.97,-1.97,-1.97
147.78,-1.56,0.42,-1.56,0.43,-0.43,-0.44,-0.33,-1.99,-1.99,-1.99
149.26,-1.56,0.45,-1.56,0.45,-0.45,-0.46,-0.36,-2.02,-2.02,-2.02
150.75,-1.56,0.48,-1.56,0.48,-0.47,-0.49,-0.39,-2.04,-2.04,-2.04
152.26,-1.56,0.50,-1.56,0.50,-0.50,-0.52,-0.41,-2.06,-2.06,-2.06
153.78,-1.56,0.52,-1.56,0.52,-0.52,-0.54,-0.44,-2.09,-2.09,-2.09
155.32,-1.56,0.55,-1.56,0.55,-0.55,-0.57,-0.47,-2.11,-2.11,-2.11
156.88,-1.56,0.57,-1.56,0.57,-0.58,-0.60,-0.50,-2.14,-2.14,-2.13
158.44,-1.56,0.61,-1.56,0.60,-0.60,-0.63,-0.53,-2.17,-2.17,-2.17
160.03,-1.56,0.63,-1.56,0.63,-0.63,-0.65,-0.56,-2.20,-2.20,-2.19
161.63,-1.56,0.66,-1.56,0.66,-0.66,-0.68,-0.59,-2.22,-2.22,-2.22
163.24,-1.56,0.70,-1.56,0.70,-0.69,-0.71,-0.63,-2.26,-2.26,-2.26
164.88,-1.56,0.73,-1.56,0.73,-0.72,-0.73,-0.66,-2.29,-2.29,-2.29
166.53,-1.56,0.76,-1.56,0.76,-0.76,-0.76,-0.69,-2.32,-2.32,-2.32
168.19,-1.56,0.79,-1.56,0.79,-0.79,-0.79,-0.73,-2.36,-2.36,-2.35
169.87,-1.56,0.82,-1.56,0.82,-0.83,-0.82,-0.76,-2.39,-2.39,-2.39
171.57,-1.56,0.85,-1.56,0.86,-0.87,-0.84,-0.80,-2.43,-2.43,-2.41
173.29,-1.55,0.90,-1.55,0.90,-0.90,-0.87,-0.83,-2.46,-2.45,-2.45
175.02,-1.54,0.94,-1.54,0.94,-0.94,-0.90,-0.87,-2.48,-2.48,-2.49
176.77,-1.53,0.99,-1.54,0.98,-0.97,-0.93,-0.91,-2.50,-2.51,-2.52
178.54,-1.54,1.00,-1.54,1.01,-1.00,-0.95,-0.95,-2.55,-2.54,-2.54
180.32,-1.55,1.03,-1.55,1.03,-1.03,-0.98,-0.98,-2.58,-2.58,-2.59
182.13,-1.56,1.06,-1.57,1.05,-1.05,-1.01,-1.02,-2.62,-2.62,-2.62
183.95,-1.58,1.07,-1.58,1.07,-1.07,-1.04,-1.06,-2.65,-2.65,-2.65
185.79,-1.60,1.09,-1.60,1.09,-1.08,-1.06,-1.11,-2.69,-2.69,-2.69
187.65,-1.63,1.09,-1.63,1.09,-1.09,-1.09,-1.15,-2.73,-2.72,-2.72
189.52,-1.66,1.10,-1.66,1.10,-1.10,-1.12,-1.19,-2.76,-2.76,-2.76
191.42,-1.69,1.10,-1.69,1.10,-1.10,-1.15,-1.23,-2.80,-2.80,-2.79
193.33,-1.72,1.10,-1.72,1.10,-1.11,-1.17,-1.28,-2.83,-2.83,-2.82
195.27,-1.75,1.11,-1.75,1.10,-1.10,-1.20,-1.32,-2.86,-2.86,-2.86
197.22,-1.78,1.11,-1.78,1.11,-1.10,-1.23,-1.37,-2.89,-2.89,-2.90
199.19,-1.81,1.10,-1.81,1.11,-1.10,-1.25,-1.41,-2.91,-2.91,-2.91
201.18,-1.84,1.11,-1.84,1.10,-1.10,-1.28,-1.46,-2.94,-2.94,-2.95
203.19,-1.86,1.10,-1.87,1.10,-1.10,-1.31,-1.50,-2.96,-2.96,-2.96
205.23,-1.89,1.10,-1.89,1.10,-1.10,-1.34,-1.55,-2.99,-2.99,-2.99
207.28,-1.91,1.09,-1.91,1.10,-1.11,-1.36,-1.59,-3.02,-3.02,-3.00
209.35,-1.93,1.11,-1.93,1.11,-1.12,-1.39,-1.64,-3.05,-3.05,-3.04
211.44,-1.93,1.13,-1.93,1.13,-1.14,-1.42,-1.68,-3.07,-3.07,-3.06
213.56,-1.92,1.15,-1.92,1.16,-1.17,-1.44,-1.72,-3.09,-3.09,-3.08
215.69,-1.90,1.20,-1.90,1.20,-1.20,-1.47,-1.77,-3.10,-3.10,-3.10
217.85,-1.87,1.25,-1.88,1.24,-1.23,-1.50,-1.81,-3.11,-3.11,-3.12
220.03,-1.85,1.29,-1.86,1.29,-1.27,-1.52,-1.85,-3.13,-3.13,-3.14
222.23,-1.84,1.32,-1.84,1.32,-1.32,-1.55,-1.89,-3.16,-3.16,-3.16
224.45,-1.82,1.36,-1.82,1.36,-1.37,-1.58,-1.93,-3.19,-3.19,-3.19
226.70,-1.79,1.40,-1.79,1.40,-1.42,-1.60,-1.97,-3.21,-3.21,-3.20
228.96,-1.75,1.45,-1.75,1.45,-1.47,-1.63,-2.00,-3.22,-3.22,-3.21
231.25,-1.71,1.51,-1.71,1.51,-1.52,-1.65,-2.03,-3.23,-3.23,-3.23
233.57,-1.66,1.57,-1.66,1.58,-1.57,-1.68,-2.06,-3.23,-3.23,-3.24
235.90,-1.61,1.64,-1.62,1.64,-1.62,-1.70,-2.09,-3.24,-3.24,-3.26
238.26,-1.57,1.69,-1.57,1.69,-1.68,-1.73,-2.12,-3.26,-3.25,-3.26
240.64,-1.52,1.73,-1.53,1.73,-1.74,-1.75,-2.14,-3.26,-3.27,-3.25
243.05,-1.48,1.78,-1.48,1.79,-1.79,-1.77,-2.16,-3.28,-3.27,-3.26
245.48,-1.43,1.85,-1.43,1.84,-1.85,-1.80,-2.18,-3.28,-3.28,-3.28
247.93,-1.37,1.91,-1.38,1.90,-1.90,-1.82,-2.19,-3.27,-3.27,-3.29
250.41,-1.32,1.95,-1.32,1.96,-1.95,-1.84,-2.20,-3.27,-3.27,-3.27
252.92,-1.27,2.00,-1.28,2.00,-2.00,-1.87,-2.21,-3.27,-3.27,-3.27
255.45,-1.23,2.05,-1.23,2.04,-2.05,-1.89,-2.21,-3.28,-3.28,-3.28
258.00,-1.19,2.08,-1.19,2.09,-2.10,-1.91,-2.21,-3.29,-3.28,-3.28
260.58,-1.14,2.14,-1.14,2.14,-2.14,-1.93,-2.21,-3.28,-3.28,-3.28
263.19,-1.09,2.18,-1.10,2.18,-2.18,-1.95,-2.21,-3.28,-3.28,-3.28
265.82,-1.05,2.23,-1.05,2.23,-2.22,-1.97,-2.20,-3.28,-3.27,-3.28
268.48,-1.01,2.27,-1.01,2.27,-2.26,-1.99,-2.19,-3.27,-3.27,-3.28
271.16,-0.98,2.30,-0.98,2.30,-2.29,-2.01,-2.18,-3.28,-3.28,-3.28
273.87,-0.96,2.32,-0.96,2.32,-2.32,-2.03,-2.17,-3.29,-3.28,-3.28
276.61,-0.94,2.34,-0.95,2.34,-2.35,-2.05,-2.15,-3.29,-3.29,-3.29
279.38,-0.93,2.37,-0.93,2.36,-2.36,-2.07,-2.14,-3.30,-3.29,-3.30
282.17,-0.91,2.37,-0.91,2.37,-2.37,-2.08,-2.12,-3.29,-3.29,-3.28
284.99,-0.89,2.39,-0.90,2.38,-2.38,-2.10,-2.10,-3.27,-3.28,-3.28
287.84,-0.89,2.38,-0.89,2.39,-2.38,-2.12,-2.08,-3.28,-3.27,-3.27
290.72,-0.89,2.39,-0.89,2.39,-2.38,-2.13,-2.06,-3.28,-3.27,-3.29
293.63,-0.89,2.39,-0.90,2.38,-2.38,-2.15,-2.03,-3.27,-3.28,-3.28
296.57,-0.90,2.36,-0.90,2.37,-2.37,-2.16,-2.01,-3.27,-3.27,-3.27
299.53,-0.91,2.36,-0.91,2.36,-2.36,-2.17,-1.99,-3.28,-3.27,-3.27
302.53,-0.91,2.35,-0.91,2.35,-2.35,-2.19,-1.96,-3.27,-3.27,-3.26
305.55,-0.91,2.34,-0.91,2.34,-2.35,-2.20,-1.94,-3.26,-3.26,-3.26
308.61,-0.91,2.34,-0.91,2.34,-2.34,-2.21,-1.92,-3.25,-3.25,-3.25
311.69,-0.91,2.33,-0.91,2.33,-2.33,-2.22,-1.90,-3.24,-3.24,-3.24
314.81,-0.91,2.32,-0.91,2.32,-2.32,-2.23,-1.88,-3.23,-3.23,-3.24
317.96,-0.91,2.32,-0.91,2.32,-2.32,-2.24,-1.86,-3.23,-3.23,-3.23
321.14,-0.91,2.31,-0.91,2.31,-2.31,-2.25,-1.84,-3.22,-3.22,-3.22
324.35,-0.91,2.31,-0.91,2.30,-2.30,-2.26,-1.82,-3.22,-3.22,-3.22
327.59,-0.91,2.28,-0.91,2.29,-2.30,-2.26,-1.80,-3.21,-3.21,-3.20
330.87,-0.91,2.29,-0.91,2.29,-2.29,-2.27,-1.78,-3.20,-3.20,-3.20
334.18,-0.91,2.29,-0.91,2.28,-2.28,-2.27,-1.77,-3.19,-3.19,-3.20
337.52,-0.91,2.27,-0.91,2.27,-2.27,-2.28,-1.75,-3.18,-3.18,-3.18
340.90,-0.91,2.26,-0.91,2.26,-2.26,-2.28,-1.74,-3.18,-3.18,-3.18
344.30,-0.91,2.26,-0.91,2.26,-2.26,-2.29,-1.73,-3.17,-3.17,-3.17
347.75,-0.91,2.25,-0.91,2.25,-2.25,-2.29,-1.72,-3.16,-3.16,-3.16
351.23,-0.91,2.24,-0.91,2.24,-2.24,-2.29,-1.71,-3.15,-3.15,-3.15
354.74,-0.91,2.22,-0.91,2.23,-2.23,-2.29,-1.70,-3.14,-3.14,-3.13
358.28,-0.91,2.22,-0.91,2.22,-2.22,-2.29,-1.69,-3.14,-3.14,-3.14
361.87,-0.91,2.23,-0.91,2.22,-2.22,-2.29,-1.69,-3.13,-3.13,-3.14
365.49,-0.91,2.21,-0.91,2.21,-2.21,-2.29,-1.68,-3.12,-3.12,-3.12
369.14,-0.91,2.20,-0.91,2.20,-2.20,-2.29,-1.68,-3.11,-3.11,-3.11
372.83,-0.91,2.19,-0.91,2.19,-2.20,-2.28,-1.68,-3.11,-3.11,-3.10
376.56,-0.91,2.19,-0.91,2.19,-2.19,-2.28,-1.68,-3.10,-3.10,-3.10
380.33,-0.91,2.18,-0.91,2.18,-2.18,-2.27,-1.68,-3.09,-3.09,-3.10
384.13,-0.91,2.17,-0.91,2.17,-2.17,-2.27,-1.68,-3.09,-3.09,-3.09
387.97,-0.91,2.17,-0.91,2.16,-2.16,-2.26,-1.69,-3.08,-3.08,-3.08
391.85,-0.91,2.15,-0.91,2.15,-2.15,-2.26,-1.69,-3.07,-3.07,-3.06
395.77,-0.91,2.15,-0.91,2.14,-2.14,-2.25,-1.70,-3.06,-3.06,-3.06
399.73,-0.91,2.14,-0.91,2.13,-2.13,-2.24,-1.70,-3.05,-3.05,-3.05
403.72,-0.91,2.12,-0.91,2.12,-2.12,-2.24,-1.71,-3.04,-3.04,-3.03
407.76,-0.91,2.11,-0.91,2.11,-2.11,-2.23,-1.72,-3.03,-3.03,-3.02
411.84,-0.91,2.10,-0.91,2.10,-2.11,-2.22,-1.73,-3.02,-3.02,-3.02
415.96,-0.91,2.09,-0.91,2.10,-2.10,-2.21,-1.74,-3.01,-3.01,-3.01
420.12,-0.91,2.09,-0.91,2.09,-2.09,-2.20,-1.75,-3.00,-3.00,-3.01
424.32,-0.91,2.09,-0.91,2.08,-2.08,-2.19,-1.76,-2.99,-2.99,-3.00
428.56,-0.91,2.07,-0.91,2.07,-2.07,-2.18,-1.77,-2.98,-2.98,-2.98
432.85,-0.91,2.05,-0.91,2.06,-2.06,-2.16,-1.78,-2.98,-2.98,-2.96
437.18,-0.91,2.06,-0.91,2.05,-2.05,-2.15,-1.79,-2.97,-2.97,-2.97
441.55,-0.91,2.05,-0.91,2.05,-2.05,-2.14,-1.81,-2.96,-2.96,-2.96
445.96,-0.91,2.04,-0.91,2.04,-2.04,-2.13,-1.82,-2.95,-2.95,-2.95
450.42,-0.91,2.03,-0.91,2.03,-2.03,-2.11,-1.83,-2.94,-2.94,-2.94
454.93,-0.91,2.02,-0.91,2.02,-2.02,-2.10,-1.84,-2.93,-2.93,-2.93
459.48,-0.91,2.01,-0.91,2.01,-2.01,-2.09,-1.85,-2.92,-2.92,-2.92
464.07,-0.91,1.99,-0.91,2.00,-2.00,-2.07,-1.86,-2.91,-2.91,-2.91
