frequency,raw,error,smoothed,error_smoothed,equalization,parametric_eq,fixed_band_eq,equalized_raw,equalized_smoothed,target
20.00,-10.33,-12.67,-10.33,-12.67,6.00,5.83,3.01,-4.33,-4.33,2.34
20.20,-10.29,-12.67,-10.29,-12.67,6.00,5.88,3.10,-4.29,-4.29,2.38
20.40,-10.24,-12.66,-10.25,-12.66,6.00,5.93,3.19,-4.24,-4.25,2.42
20.61,-10.20,-12.64,-10.20,-12.65,6.00,5.97,3.28,-4.20,-4.20,2.44
20.81,-10.16,-12.64,-10.16,-12.64,6.00,6.01,3.37,-4.16,-4.16,2.48
21.02,-10.12,-12.64,-10.12,-12.63,6.00,6.06,3.47,-4.12,-4.12,2.52
21.23,-10.07,-12.61,-10.07,-12.61,6.00,6.10,3.57,-4.07,-4.07,2.54
21.44,-10.02,-12.58,-10.02,-12.58,6.00,6.13,3.67,-4.02,-4.02,2.56
21.66,-9.97,-12.55,-9.97,-12.55,6.00,6.17,3.77,-3.97,-3.97,2.58
21.87,-9.92,-12.51,-9.92,-12.51,6.00,6.20,3.88,-3.92,-3.92,2.59
22.09,-9.87,-12.48,-9.87,-12.47,6.00,6.24,3.99,-3.87,-3.87,2.61
22.31,-9.81,-12.43,-9.81,-12.43,6.00,6.27,4.10,-3.81,-3.81,2.62
22.54,-9.75,-12.37,-9.75,-12.37,6.00,6.30,4.21,-3.75,-3.75,2.62
22.76,-9.69,-12.32,-9.69,-12.32,6.00,6.32,4.33,-3.69,-3.69,2.63
22.99,-9.63,-12.26,-9.63,-12.26,6.00,6.34,4.45,-3.63,-3.63,2.62
23.22,-9.57,-12.21,-9.57,-12.20,6.00,6.36,4.58,-3.57,-3.57,2.63
23.45,-9.50,-12.15,-9.51,-12.15,6.00,6.38,4.70,-3.50,-3.51,2.64
23.69,-9.44,-12.10,-9.44,-12.10,6.00,6.40,4.83,-3.44,-3.44,2.65
23.92,-9.37,-12.05,-9.37,-12.05,6.00,6.41,4.96,-3.37,-3.37,2.67
24.16,-9.30,-11.99,-9.30,-11.99,6.00,6.42,5.10,-3.30,-3.30,2.69
24.40,-9.23,-11.93,-9.23,-11.93,6.00,6.42,5.23,-3.23,-3.23,2.70
24.65,-9.15,-11.86,-9.16,-11.87,6.00,6.43,5.37,-3.15,-3.16,2.70
24.89,-9.08,-11.80,-9.08,-11.80,6.00,6.43,5.51,-3.08,-3.08,2.72
25.14,-9.00,-11.73,-9.00,-11.73,6.00,6.42,5.65,-3.00,-3.00,2.73
25.39,-8.92,-11.66,-8.92,-11.67,6.00,6.42,5.79,-2.92,-2.92,2.74
25.65,-8.84,-11.59,-8.84,-11.59,6.00,6.41,5.94,-2.84,-2.84,2.75
25.91,-8.76,-11.52,-8.76,-11.52,6.00,6.40,6.08,-2.76,-2.76,2.76
26.16,-8.67,-11.44,-8.67,-11.44,6.00,6.38,6.22,-2.67,-2.67,2.77
26.43,-8.58,-11.36,-8.58,-11.37,6.00,6.37,6.36,-2.58,-2.58,2.78
26.69,-8.49,-11.29,-8.49,-11.29,6.00,6.35,6.50,-2.49,-2.49,2.80
26.96,-8.40,-11.21,-8.40,-11.21,6.00,6.33,6.64,-2.40,-2.40,2.81
27.23,-8.30,-11.12,-8.30,-11.12,6.00,6.31,6.77,-2.30,-2.30,2.82
27.50,-8.20,-11.04,-8.20,-11.03,6.00,6.29,6.90,-2.20,-2.20,2.84
27.77,-8.10,-10.94,-8.10,-10.94,6.00,6.27,7.03,-2.10,-2.10,2.84
28.05,-8.00,-10.86,-8.00,-10.85,6.00,6.25,7.15,-2.00,-2.00,2.85
28.33,-7.89,-10.75,-7.89,-10.75,6.00,6.23,7.26,-1.89,-1.89,2.85
28.62,-7.78,-10.66,-7.78,-10.65,6.00,6.21,7.36,-1.78,-1.78,2.87
28.90,-7.67,-10.55,-7.67,-10.55,6.00,6.20,7.46,-1.67,-1.67,2.88
29.19,-7.55,-10.44,-7.55,-10.45,6.00,6.18,7.54,-1.55,-1.55,2.89
29.48,-7.43,-10.34,-7.44,-10.35,6.00,6.17,7.61,-1.43,-1.44,2.91
29.78,-7.31,-10.23,-7.31,-10.23,6.00,6.16,7.67,-1.31,-1.31,2.92
30.08,-7.17,-10.10,-7.16,-10.09,6.00,6.16,7.72,-1.17,-1.16,2.93
30.38,-6.98,-9.92,-6.99,-9.93,6.00,6.15,7.75,-0.98,-0.99,2.94
30.68,-6.79,-9.74,-6.80,-9.74,6.00,6.15,7.77,-0.79,-0.80,2.95
30.99,-6.60,-9.56,-6.60,-9.56,6.00,6.15,7.78,-0.60,-0.60,2.95
31.30,-6.40,-9.37,-6.41,-9.37,6.00,6.15,7.76,-0.40,-0.41,2.96
31.61,-6.20,-9.18,-6.21,-9.18,6.00,6.16,7.74,-0.20,-0.21,2.98
31.93,-6.02,-9.00,-6.01,-8.99,6.00,6.16,7.69,-0.02,-0.01,2.98
32.24,-5.80,-8.79,-5.80,-8.79,6.00,6.16,7.64,0.20,0.20,2.99
32.57,-5.59,-8.59,-5.60,-8.59,6.00,6.16,7.57,0.41,0.40,3.00
32.89,-5.39,-8.41,-5.39,-8.40,6.00,6.16,7.48,0.61,0.61,3.02
33.22,-5.19,-8.21,-5.19,-8.21,6.00,6.15,7.39,0.81,0.81,3.02
33.55,-5.00,-8.03,-5.00,-8.03,6.00,6.14,7.28,1.00,1.00,3.03
33.89,-4.80,-7.83,-4.81,-7.84,6.00,6.13,7.16,1.20,1.19,3.03
34.23,-4.62,-7.67,-4.62,-7.67,6.00,6.12,7.03,1.38,1.38,3.05
34.57,-4.44,-7.49,-4.44,-7.49,6.00,6.10,6.89,1.56,1.56,3.05
34.92,-4.26,-7.32,-4.27,-7.33,6.00,6.07,6.74,1.74,1.73,3.06
35.27,-4.10,-7.17,-4.10,-7.16,6.00,6.04,6.59,1.90,1.90,3.06
35.62,-3.93,-7.00,-3.93,-7.00,6.00,6.01,6.43,2.07,2.07,3.06
35.97,-3.77,-6.83,-3.78,-6.85,6.00,5.97,6.27,2.23,2.22,3.06
36.33,-3.64,-6.72,-3.63,-6.71,6.01,5.93,6.10,2.37,2.38,3.08
36.70,-3.50,-6.58,-3.50,-6.57,6.02,5.88,5.93,2.52,2.52,3.08
37.06,-3.37,-6.43,-3.38,-6.45,6.02,5.82,5.75,2.65,2.65,3.06
37.43,-3.25,-6.32,-3.25,-6.32,6.02,5.76,5.58,2.77,2.76,3.07
37.81,-3.14,-6.21,-3.14,-6.21,6.00,5.70,5.40,2.85,2.86,3.07
38.19,-3.02,-6.09,-3.02,-6.09,5.96,5.63,5.23,2.94,2.94,3.07
38.57,-2.91,-5.99,-2.91,-5.98,5.91,5.56,5.05,2.99,3.00,3.07
38.95,-2.79,-5.85,-2.79,-5.86,5.83,5.48,4.87,3.04,3.04,3.06
39.34,-2.68,-5.74,-2.68,-5.74,5.74,5.39,4.70,3.06,3.06,3.06
39.74,-2.56,-5.61,-2.56,-5.61,5.63,5.30,4.52,3.07,3.07,3.04
40.14,-2.44,-5.49,-2.44,-5.49,5.51,5.21,4.35,3.06,3.06,3.05
40.54,-2.31,-5.35,-2.32,-5.36,5.37,5.11,4.18,3.05,3.05,3.04
40.94,-2.18,-5.23,-2.18,-5.22,5.22,5.01,4.01,3.04,3.04,3.04
41.35,-2.04,-5.08,-2.04,-5.08,5.08,4.91,3.84,3.04,3.04,3.04
41.76,-1.89,-4.93,-1.90,-4.94,4.94,4.80,3.67,3.05,3.04,3.04
42.18,-1.75,-4.79,-1.75,-4.79,4.79,4.68,3.51,3.04,3.04,3.04
42.60,-1.60,-4.64,-1.60,-4.64,4.64,4.57,3.34,3.04,3.04,3.04
43.03,-1.45,-4.50,-1.45,-4.50,4.49,4.45,3.18,3.04,3.04,3.04
43.46,-1.30,-4.34,-1.31,-4.35,4.34,4.32,3.02,3.04,3.03,3.04
43.90,-1.16,-4.20,-1.16,-4.19,4.19,4.19,2.86,3.02,3.03,3.04
44.33,-1.00,-4.03,-1.00,-4.03,4.03,4.06,2.71,3.03,3.03,3.03
44.78,-0.84,-3.87,-0.84,-3.87,3.88,3.93,2.55,3.04,3.03,3.03
45.23,-0.68,-3.71,-0.69,-3.71,3.73,3.80,2.40,3.04,3.04,3.03
45.68,-0.54,-3.57,-0.54,-3.57,3.58,3.66,2.25,3.03,3.04,3.03
46.13,-0.39,-3.42,-0.39,-3.42,3.43,3.52,2.10,3.04,3.04,3.03
46.60,-0.24,-3.29,-0.24,-3.28,3.28,3.37,1.96,3.04,3.04,3.04
47.06,-0.09,-3.13,-0.09,-3.14,3.13,3.23,1.81,3.04,3.04,3.04
47.53,0.06,-2.98,0.05,-2.99,2.99,3.08,1.67,3.05,3.04,3.04
48.01,0.20,-2.86,0.20,-2.85,2.84,2.92,1.53,3.04,3.04,3.06
48.49,0.35,-2.70,0.35,-2.70,2.69,2.77,1.39,3.04,3.04,3.05
48.97,0.50,-2.53,0.49,-2.54,2.54,2.61,1.25,3.04,3.04,3.03
49.46,0.64,-2.39,0.64,-2.38,2.39,2.46,1.11,3.03,3.03,3.03
49.96,0.79,-2.22,0.79,-2.23,2.24,2.29,0.98,3.02,3.02,3.01
50.46,0.94,-2.08,0.94,-2.08,2.08,2.13,0.85,3.02,3.02,3.02
50.96,1.09,-1.92,1.09,-1.92,1.92,1.96,0.72,3.01,3.01,3.01
51.47,1.24,-1.76,1.24,-1.76,1.76,1.79,0.59,3.00,3.00,2.99
51.99,1.40,-1.60,1.40,-1.60,1.59,1.62,0.46,2.99,2.99,3.00
52.51,1.57,-1.43,1.57,-1.43,1.42,1.45,0.33,2.99,2.99,3.00
53.03,1.74,-1.25,1.74,-1.25,1.25,1.27,0.21,2.99,2.98,2.99
53.56,1.91,-1.07,1.91,-1.07,1.07,1.09,0.09,2.97,2.97,2.98
54.10,2.08,-0.88,2.08,-0.88,0.88,0.91,-0.03,2.96,2.96,2.96
54.64,2.26,-0.69,2.26,-0.69,0.69,0.72,-0.14,2.95,2.95,2.95
55.18,2.44,-0.50,2.44,-0.50,0.50,0.54,-0.26,2.94,2.94,2.94
55.74,2.62,-0.30,2.62,-0.31,0.31,0.35,-0.37,2.92,2.92,2.92
56.29,2.80,-0.12,2.79,-0.12,0.12,0.15,-0.48,2.92,2.91,2.92
56.86,2.97,0.07,2.97,0.08,-0.07,-0.04,-0.58,2.90,2.90,2.90
57.42,3.14,0.27,3.14,0.26,-0.26,-0.23,-0.68,2.88,2.88,2.87
58.00,3.31,0.45,3.31,0.45,-0.44,-0.42,-0.78,2.87,2.87,2.86
58.58,3.47,0.62,3.47,0.62,-0.62,-0.62,-0.88,2.85,2.85,2.85
59.16,3.62,0.78,3.62,0.78,-0.79,-0.80,-0.97,2.83,2.83,2.83
59.76,3.77,0.95,3.77,0.95,-0.96,-0.99,-1.06,2.81,2.81,2.82
60.35,3.92,1.12,3.92,1.12,-1.13,-1.16,-1.14,2.79,2.79,2.80
60.96,4.07,1.29,4.06,1.29,-1.29,-1.33,-1.23,2.78,2.77,2.77
61.57,4.19,1.45,4.19,1.45,-1.44,-1.48,-1.30,2.74,2.75,2.74
62.18,4.31,1.60,4.31,1.60,-1.59,-1.63,-1.38,2.72,2.72,2.71
62.80,4.43,1.74,4.43,1.74,-1.74,-1.76,-1.45,2.69,2.69,2.69
63.43,4.54,1.88,4.54,1.88,-1.88,-1.89,-1.52,2.66,2.66,2.66
64.07,4.64,2.00,4.64,2.01,-2.01,-2.00,-1.58,2.63,2.63,2.63
64.71,4.74,2.12,4.74,2.13,-2.13,-2.10,-1.64,2.61,2.61,2.62
65.35,4.84,2.25,4.84,2.25,-2.25,-2.19,-1.70,2.59,2.59,2.59
66.01,4.93,2.36,4.93,2.36,-2.36,-2.27,-1.76,2.57,2.57,2.57
66.67,5.01,2.47,5.01,2.47,-2.47,-2.35,-1.81,2.54,2.54,2.54
67.33,5.09,2.58,5.09,2.57,-2.57,-2.43,-1.86,2.52,2.52,2.51
68.01,5.16,2.67,5.16,2.67,-2.66,-2.50,-1.91,2.49,2.49,2.49
68.69,5.22,2.76,5.22,2.76,-2.76,-2.57,-1.96,2.46,2.46,2.46
69.37,5.28,2.84,5.28,2.84,-2.84,-2.64,-2.00,2.44,2.44,2.44
70.07,5.34,2.92,5.34,2.92,-2.93,-2.72,-2.04,2.41,2.41,2.42
70.77,5.40,3.00,5.40,3.00,-3.01,-2.79,-2.09,2.39,2.39,2.39
71.48,5.45,3.08,5.45,3.08,-3.09,-2.86,-2.13,2.36,2.36,2.37
72.19,5.51,3.16,5.51,3.16,-3.16,-2.93,-2.17,2.34,2.34,2.35
72.91,5.56,3.24,5.56,3.24,-3.24,-3.01,-2.21,2.32,2.32,2.32
73.64,5.61,3.31,5.61,3.31,-3.30,-3.08,-2.25,2.30,2.31,2.30
74.38,5.66,3.38,5.66,3.38,-3.37,-3.16,-2.29,2.29,2.29,2.28
75.12,5.71,3.44,5.70,3.43,-3.43,-3.23,-2.33,2.28,2.28,2.27
75.87,5.74,3.48,5.74,3.48,-3.48,-3.31,-2.37,2.26,2.26,2.26
76.63,5.78,3.54,5.78,3.53,-3.53,-3.38,-2.41,2.25,2.25,2.24
77.40,5.81,3.57,5.81,3.57,-3.58,-3.46,-2.46,2.23,2.23,2.23
78.17,5.84,3.62,5.84,3.62,-3.62,-3.53,-2.50,2.22,2.22,2.22
78.95,5.87,3.65,5.87,3.66,-3.66,-3.61,-2.55,2.20,2.21,2.22
79.74,5.91,3.70,5.91,3.70,-3.71,-3.68,-2.59,2.20,2.20,2.21
80.54,5.95,3.75,5.95,3.75,-3.75,-3.75,-2.64,2.20,2.20,2.20
81.35,5.99,3.80,5.99,3.80,-3.80,-3.83,-2.69,2.19,2.19,2.19
82.16,6.03,3.85,6.02,3.85,-3.85,-3.90,-2.75,2.18,2.18,2.18
82.98,6.06,3.88,6.06,3.89,-3.89,-3.96,-2.80,2.17,2.17,2.17
83.81,6.09,3.94,6.09,3.93,-3.94,-4.03,-2.86,2.15,2.16,2.15
84.65,6.13,3.98,6.13,3.98,-3.98,-4.10,-2.92,2.15,2.15,2.15
85.50,6.17,4.02,6.16,4.02,-4.02,-4.16,-2.98,2.15,2.15,2.15
86.35,6.20,4.07,6.20,4.06,-4.05,-4.22,-3.05,2.15,2.14,2.13
87.22,6.22,4.09,6.22,4.09,-4.08,-4.29,-3.11,2.13,2.13,2.13
88.09,6.24,4.13,6.24,4.12,-4.12,-4.34,-3.18,2.12,2.12,2.11
88.97,6.25,4.13,6.25,4.14,-4.15,-4.40,-3.25,2.10,2.10,2.12
89.86,6.27,4.17,6.27,4.17,-4.18,-4.46,-3.33,2.09,2.09,2.10
90.76,6.29,4.20,6.29,4.20,-4.20,-4.51,-3.41,2.08,2.09,2.09
91.66,6.32,4.23,6.32,4.24,-4.23,-4.56,-3.49,2.08,2.08,2.09
92.58,6.35,4.28,6.35,4.27,-4.27,-4.61,-3.57,2.08,2.08,2.07
93.51,6.38,4.30,6.38,4.30,-4.30,-4.65,-3.66,2.08,2.08,2.07
94.44,6.40,4.33,6.40,4.34,-4.33,-4.69,-3.74,2.06,2.07,2.07
95.39,6.43,4.37,6.42,4.37,-4.37,-4.74,-3.83,2.05,2.05,2.06
96.34,6.45,4.42,6.45,4.41,-4.41,-4.78,-3.93,2.04,2.03,2.03
97.30,6.47,4.45,6.47,4.45,-4.45,-4.81,-4.02,2.02,2.02,2.02
98.28,6.50,4.48,6.50,4.49,-4.49,-4.85,-4.12,2.00,2.01,2.01
99.26,6.54,4.54,6.53,4.54,-4.54,-4.88,-4.21,2.00,2.00,1.99
100.25,6.57,4.58,6.57,4.58,-4.58,-4.91,-4.31,1.99,1.99,1.99
101.25,6.60,4.63,6.60,4.63,-4.63,-4.94,-4.41,1.97,1.97,1.97
102.27,6.62,4.67,6.62,4.67,-4.67,-4.96,-4.52,1.95,1.95,1.95
103.29,6.64,4.72,6.64,4.71,-4.72,-4.98,-4.62,1.92,1.92,1.92
104.32,6.66,4.75,6.66,4.76,-4.76,-5.00,-4.72,1.90,1.90,1.91
105.37,6.68,4.80,6.68,4.80,-4.80,-5.02,-4.82,1.88,1.88,1.88
106.42,6.70,4.84,6.70,4.84,-4.84,-5.04,-4.92,1.86,1.86,1.86
107.48,6.71,4.88,6.71,4.88,-4.87,-5.05,-5.02,1.84,1.84,1.83
108.56,6.71,4.92,6.71,4.91,-4.90,-5.07,-5.12,1.81,1.81,1.79
109.64,6.70,4.94,6.69,4.93,-4.92,-5.08,-5.22,1.78,1.77,1.76
110.74,6.67,4.94,6.67,4.94,-4.94,-5.09,-5.31,1.73,1.73,1.72
111.85,6.64,4.94,6.64,4.95,-4.96,-5.09,-5.40,1.68,1.68,1.69
112.97,6.61,4.96,6.61,4.96,-4.97,-5.10,-5.49,1.64,1.64,1.65
114.10,6.58,4.97,6.58,4.97,-4.98,-5.10,-5.57,1.60,1.60,1.61
115.24,6.55,4.98,6.55,4.98,-4.98,-5.10,-5.65,1.56,1.56,1.57
116.39,6.52,5.00,6.52,5.00,-4.99,-5.10,-5.71,1.53,1.53,1.52
117.55,6.49,5.01,6.49,5.01,-5.00,-5.09,-5.78,1.49,1.49,1.48
118.73,6.46,5.02,6.45,5.01,-5.01,-5.09,-5.83,1.45,1.44,1.44
119.92,6.41,5.01,6.42,5.02,-5.02,-5.08,-5.88,1.39,1.40,1.40
121.12,6.39,5.03,6.39,5.03,-5.03,-5.08,-5.92,1.35,1.36,1.36
122.33,6.38,5.05,6.37,5.04,-5.05,-5.07,-5.95,1.33,1.32,1.33
123.55,6.36,5.06,6.36,5.06,-5.07,-5.05,-5.97,1.29,1.29,1.30
124.79,6.35,5.08,6.35,5.08,-5.09,-5.04,-5.99,1.26,1.26,1.26
126.03,6.34,5.11,6.34,5.11,-5.11,-5.03,-5.99,1.22,1.22,1.23
127.29,6.33,5.13,6.33,5.14,-5.14,-5.01,-5.98,1.19,1.19,1.19
128.57,6.32,5.17,6.32,5.16,-5.16,-5.00,-5.97,1.16,1.16,1.15
129.85,6.31,5.18,6.31,5.18,-5.17,-4.98,-5.95,1.13,1.13,1.13
131.15,6.29,5.19,6.29,5.20,-5.19,-4.96,-5.92,1.10,1.11,1.09
132.46,6.28,5.21,6.27,5.20,-5.19,-4.94,-5.88,1.09,1.08,1.07
133.79,6.24,5.19,6.24,5.19,-5.19,-4.92,-5.83,1.05,1.05,1.05
135.12,6.19,5.17,6.20,5.17,-5.17,-4.89,-5.78,1.01,1.02,1.02
136.48,6.16,5.16,6.15,5.15,-5.16,-4.87,-5.72,1.00,0.99,1.00
137.84,6.10,5.12,6.10,5.14,-5.13,-4.84,-5.65,0.96,0.97,0.98
139.22,6.06,5.12,6.06,5.11,-5.11,-4.82,-5.58,0.95,0.95,0.94
140.61,6.01,5.09,6.00,5.08,-5.08,-4.79,-5.51,0.93,0.92,0.92
142.02,5.95,5.04,5.95,5.05,-5.06,-4.76,-5.43,0.89,0.90,0.91
143.44,5.91,5.03,5.90,5.02,-5.04,-4.73,-5.35,0.87,0.87,0.88
144.87,5.86,5.00,5.86,5.00,-5.02,-4.70,-5.26,0.84,0.84,0.85
146.32,5.82,4.99,5.82,4.99,-5.00,-4.67,-5.18,0.82,0.83,0.83
147.78,5.79,4.98,5.78,4.98,-4.98,-4.64,-5.09,0.81,0.81,0.81
149.26,5.75,4.96,5.75,4.97,-4.96,-4.61,-5.00,0.79,0.79,0.79
150.75,5.70,4.95,5.70,4.95,-4.94,-4.58,-4.92,0.76,0.76,0.75
152.26,5.65,4.93,5.64,4.92,-4.92,-4.55,-4.83,0.73,0.73,0.72
153.78,5.58,4.89,5.58,4.89,-4.89,-4.51,-4.74,0.68,0.69,0.69
155.32,5.53,4.87,5.53,4.86,-4.87,-4.48,-4.65,0.66,0.66,0.66
156.88,5.47,4.83,5.47,4.83,-4.85,-4.44,-4.57,0.62,0.62,0.64
158.44,5.42,4.81,5.41,4.81,-4.82,-4.41,-4.49,0.60,0.59,0.60
160.03,5.35,4.78,5.36,4.79,-4.79,-4.37,-4.40,0.56,0.57,0.56
161.63,5.30,4.77,5.30,4.77,-4.76,-4.34,-4.33,0.54,0.54,0.53
163.24,5.25,4.76,5.23,4.73,-4.72,-4.30,-4.25,0.53,0.51,0.49
164.88,5.15,4.68,5.16,4.70,-4.68,-4.26,-4.17,0.47,0.48,0.47
166.53,5.08,4.65,5.08,4.64,-4.64,-4.23,-4.10,0.44,0.44,0.43
168.19,5.01,4.60,4.99,4.58,-4.59,-4.19,-4.03,0.41,0.39,0.40
169.87,4.89,4.52,4.91,4.55,-4.55,-4.15,-3.96,0.34,0.36,0.37
171.57,4.82,4.49,4.82,4.50,-4.50,-4.11,-3.90,0.32,0.32,0.33
173.29,4.76,4.48,4.73,4.44,-4.45,-4.08,-3.84,0.31,0.28,0.28
175.02,4.63,4.38,4.64,4.40,-4.41,-4.04,-3.78,0.22,0.24,0.24
176.77,4.54,4.34,4.55,4.35,-4.36,-4.00,-3.72,0.18,0.19,0.20
178.54,4.47,4.32,4.46,4.32,-4.31,-3.96,-3.67,0.15,0.15,0.14
180.32,4.39,4.29,4.38,4.28,-4.27,-3.92,-3.62,0.12,0.11,0.10
182.13,4.30,4.24,4.28,4.23,-4.22,-3.88,-3.58,0.07,0.06,0.05
183.95,4.17,4.17,4.18,4.18,-4.18,-3.84,-3.53,-0.01,-0.00,-0.00
185.79,4.07,4.11,4.08,4.13,-4.13,-3.80,-3.49,-0.07,-0.06,-0.04
187.65,3.99,4.09,3.99,4.08,-4.09,-3.76,-3.45,-0.10,-0.10,-0.10
189.52,3.92,4.06,3.91,4.05,-4.05,-3.72,-3.42,-0.13,-0.14,-0.14
191.42,3.83,4.01,3.83,4.01,-4.01,-3.68,-3.38,-0.18,-0.18,-0.18
193.33,3.74,3.96,3.75,3.97,-3.97,-3.64,-3.35,-0.23,-0.23,-0.23
195.27,3.67,3.94,3.66,3.94,-3.94,-3.60,-3.32,-0.27,-0.27,-0.27
197.22,3.59,3.91,3.59,3.91,-3.90,-3.56,-3.30,-0.31,-0.32,-0.32
199.19,3.51,3.88,3.51,3.87,-3.87,-3.52,-3.27,-0.36,-0.36,-0.37
201.18,3.43,3.84,3.43,3.84,-3.83,-3.48,-3.25,-0.40,-0.40,-0.41
203.19,3.35,3.79,3.35,3.79,-3.80,-3.44,-3.23,-0.45,-0.45,-0.44
205.23,3.28,3.76,3.28,3.76,-3.76,-3.41,-3.21,-0.48,-0.48,-0.48
207.28,3.21,3.72,3.21,3.72,-3.72,-3.37,-3.20,-0.52,-0.52,-0.51
209.35,3.14,3.70,3.13,3.69,-3.69,-3.33,-3.18,-0.55,-0.55,-0.56
211.44,3.06,3.67,3.06,3.66,-3.66,-3.29,-3.17,-0.60,-0.60,-0.61
213.56,2.98,3.61,2.98,3.62,-3.63,-3.25,-3.15,-0.65,-0.65,-0.64
215.69,2.91,3.57,2.91,3.58,-3.60,-3.21,-3.14,-0.69,-0.68,-0.66
217.85,2.85,3.55,2.85,3.56,-3.56,-3.17,-3.13,-0.72,-0.71,-0.70
220.03,2.81,3.55,2.80,3.54,-3.53,-3.13,-3.12,-0.72,-0.73,-0.74
222.23,2.75,3.52,2.75,3.51,-3.49,-3.09,-3.11,-0.75,-0.75,-0.77
224.45,2.69,3.47,2.68,3.47,-3.45,-3.05,-3.10,-0.77,-0.77,-0.78
226.70,2.62,3.42,2.62,3.42,-3.41,-3.01,-3.08,-0.80,-0.80,-0.80
228.96,2.54,3.37,2.55,3.37,-3.37,-2.98,-3.07,-0.84,-0.83,-0.83
231.25,2.49,3.32,2.48,3.31,-3.33,-2.94,-3.06,-0.84,-0.85,-0.83
233.57,2.42,3.27,2.42,3.27,-3.29,-2.90,-3.05,-0.87,-0.87,-0.85
235.90,2.36,3.21,2.37,3.23,-3.24,-2.86,-3.03,-0.88,-0.87,-0.86
238.26,2.34,3.21,2.33,3.20,-3.20,-2.82,-3.02,-0.86,-0.86,-0.87
240.64,2.30,3.17,2.29,3.16,-3.15,-2.79,-3.00,-0.85,-0.86,-0.87
243.05,2.26,3.12,2.25,3.12,-3.11,-2.75,-2.98,-0.85,-0.86,-0.86
245.48,2.20,3.07,2.20,3.07,-3.07,-2.71,-2.96,-0.87,-0.86,-0.87
247.93,2.15,3.01,2.15,3.02,-3.02,-2.67,-2.94,-0.88,-0.87,-0.86
250.41,2.12,2.99,2.11,2.97,-2.98,-2.64,-2.92,-0.86,-0.87,-0.87
252.92,2.07,2.91,2.08,2.92,-2.93,-2.60,-2.89,-0.86,-0.85,-0.84
255.45,2.05,2.88,2.05,2.88,-2.88,-2.56,-2.87,-0.83,-0.84,-0.83
258.00,2.02,2.84,2.01,2.83,-2.83,-2.52,-2.84,-0.81,-0.82,-0.82
260.58,1.98,2.79,1.98,2.79,-2.78,-2.49,-2.81,-0.80,-0.80,-0.82
263.19,1.94,2.74,1.94,2.74,-2.73,-2.45,-2.78,-0.79,-0.79,-0.80
265.82,1.89,2.68,1.89,2.68,-2.68,-2.41,-2.74,-0.79,-0.78,-0.79
268.48,1.85,2.62,1.85,2.62,-2.62,-2.38,-2.71,-0.77,-0.77,-0.77
271.16,1.81,2.56,1.80,2.56,-2.56,-2.34,-2.67,-0.75,-0.76,-0.75
273.87,1.75,2.49,1.76,2.50,-2.50,-2.31,-2.63,-0.75,-0.74,-0.74
276.61,1.72,2.45,1.71,2.44,-2.44,-2.27,-2.59,-0.73,-0.73,-0.73
279.38,1.67,2.39,1.67,2.38,-2.38,-2.23,-2.55,-0.72,-0.72,-0.72
282.17,1.62,2.32,1.62,2.33,-2.33,-2.20,-2.51,-0.71,-0.70,-0.70
284.99,1.58,2.26,1.57,2.26,-2.27,-2.16,-2.47,-0.69,-0.69,-0.69
287.84,1.53,2.21,1.53,2.21,-2.21,-2.12,-2.43,-0.68,-0.68,-0.68
290.72,1.49,2.15,1.49,2.15,-2.15,-2.08,-2.39,-0.66,-0.66,-0.66
293.63,1.45,2.10,1.44,2.10,-2.09,-2.05,-2.35,-0.64,-0.64,-0.65
296.57,1.40,2.03,1.39,2.03,-2.03,-2.01,-2.31,-0.63,-0.63,-0.64
299.53,1.34,1.97,1.34,1.97,-1.97,-1.97,-2.27,-0.63,-0.63,-0.63
302.53,1.28,1.90,1.28,1.90,-1.91,-1.93,-2.23,-0.63,-0.62,-0.62
305.55,1.23,1.83,1.23,1.84,-1.84,-1.89,-2.19,-0.62,-0.61,-0.60
308.61,1.19,1.78,1.18,1.78,-1.78,-1.85,-2.15,-0.59,-0.60,-0.60
311.69,1.14,1.72,1.14,1.72,-1.71,-1.81,-2.11,-0.58,-0.57,-0.58
314.81,1.10,1.66,1.10,1.66,-1.65,-1.77,-2.07,-0.55,-0.55,-0.56
317.96,1.05,1.60,1.04,1.59,-1.58,-1.72,-2.03,-0.54,-0.55,-0.55
321.14,0.98,1.52,0.98,1.52,-1.52,-1.68,-2.00,-0.55,-0.55,-0.54
324.35,0.91,1.44,0.91,1.45,-1.46,-1.63,-1.96,-0.55,-0.55,-0.54
327.59,0.86,1.38,0.86,1.39,-1.40,-1.58,-1.93,-0.54,-0.54,-0.53
330.87,0.82,1.34,0.82,1.34,-1.34,-1.52,-1.89,-0.52,-0.52,-0.52
334.18,0.78,1.29,0.78,1.29,-1.28,-1.47,-1.86,-0.50,-0.50,-0.51
337.52,0.73,1.24,0.73,1.23,-1.22,-1.41,-1.83,-0.49,-0.50,-0.51
340.90,0.68,1.17,0.67,1.17,-1.17,-1.35,-1.80,-0.49,-0.49,-0.49
344.30,0.61,1.10,0.62,1.11,-1.11,-1.28,-1.77,-0.50,-0.49,-0.49
347.75,0.57,1.05,0.56,1.05,-1.05,-1.21,-1.75,-0.49,-0.49,-0.49
351.23,0.51,1.00,0.51,1.00,-1.00,-1.13,-1.72,-0.49,-0.49,-0.49
354.74,0.47,0.96,0.46,0.95,-0.94,-1.06,-1.70,-0.47,-0.48,-0.49
358.28,0.41,0.89,0.41,0.89,-0.89,-0.98,-1.67,-0.48,-0.48,-0.48
361.87,0.36,0.84,0.36,0.84,-0.84,-0.89,-1.65,-0.49,-0.49,-0.48
365.49,0.31,0.79,0.31,0.79,-0.80,-0.81,-1.63,-0.50,-0.49,-0.48
369.14,0.27,0.76,0.27,0.76,-0.77,-0.74,-1.61,-0.50,-0.49,-0.49
372.83,0.25,0.74,0.24,0.73,-0.73,-0.67,-1.59,-0.49,-0.49,-0.49
376.56,0.22,0.71,0.22,0.71,-0.71,-0.62,-1.58,-0.49,-0.49,-0.49
380.33,0.20,0.68,0.20,0.69,-0.69,-0.59,-1.56,-0.49,-0.49,-0.49
384.13,0.18,0.67,0.18,0.67,-0.67,-0.57,-1.55,-0.49,-0.49,-0.50
387.97,0.17,0.67,0.16,0.66,-0.66,-0.57,-1.53,-0.49,-0.50,-0.50
391.85,0.15,0.66,0.15,0.65,-0.65,-0.58,-1.52,-0.51,-0.50,-0.51
395.77,0.14,0.64,0.14,0.65,-0.65,-0.61,-1.51,-0.51,-0.51,-0.50
399.73,0.15,0.66,0.14,0.65,-0.65,-0.65,-1.50,-0.51,-0.51,-0.51
403.72,0.16,0.67,0.15,0.66,-0.66,-0.70,-1.49,-0.51,-0.51,-0.51
407.76,0.17,0.68,0.17,0.68,-0.68,-0.74,-1.48,-0.51,-0.51,-0.51
411.84,0.19,0.69,0.19,0.70,-0.70,-0.79,-1.48,-0.51,-0.51,-0.50
415.96,0.22,0.72,0.22,0.72,-0.73,-0.84,-1.47,-0.51,-0.51,-0.50
420.12,0.25,0.75,0.25,0.75,-0.76,-0.88,-1.46,-0.51,-0.51,-0.50
424.32,0.28,0.78,0.28,0.79,-0.79,-0.91,-1.46,-0.51,-0.50,-0.50
428.56,0.32,0.83,0.32,0.83,-0.82,-0.95,-1.45,-0.50,-0.50,-0.51
432.85,0.35,0.86,0.35,0.86,-0.85,-0.98,-1.45,-0.50,-0.50,-0.51
437.18,0.38,0.89,0.37,0.89,-0.88,-1.01,-1.44,-0.50,-0.51,-0.52
441.55,0.40,0.90,0.40,0.91,-0.91,-1.03,-1.44,-0.51,-0.51,-0.51
445.96,0.42,0.92,0.42,0.93,-0.94,-1.05,-1.43,-0.52,-0.52,-0.51
450.42,0.46,0.97,0.45,0.96,-0.97,-1.07,-1.43,-0.51,-0.52,-0.52
454.93,0.48,0.98,0.48,0.99,-1.00,-1.09,-1.43,-0.52,-0.51,-0.51
459.48,0.52,1.03,0.52,1.02,-1.02,-1.10,-1.42,-0.50,-0.51,-0.51
464.07,0.55,1.06,0.55,1.05,-1.05,-1.12,-1.42,-0.50,-0.50,-0.51
468.71,0.58,1.08,0.58,1.08,-1.08,-1.13,-1.41,-0.50,-0.50,-0.50
473.40,0.61,1.12,0.60,1.11,-1.11,-1.14,-1.41,-0.50,-0.50,-0.51
478.13,0.63,1.13,0.63,1.13,-1.13,-1.16,-1.40,-0.51,-0.50,-0.50
482.91,0.66,1.16,0.66,1.16,-1.16,-1.17,-1.40,-0.51,-0.50,-0.50
487.74,0.69,1.19,0.69,1.18,-1.19,-1.18,-1.39,-0.50,-0.50,-0.50
492.62,0.72,1.21,0.72,1.21,-1.22,-1.19,-1.38,-0.50,-0.50,-0.49
497.55,0.75,1.25,0.75,1.24,-1.24,-1.20,-1.38,-0.49,-0.49,-0.50
