frequency,raw,error,smoothed,error_smoothed,equalization,parametric_eq,fixed_band_eq,equalized_raw,equalized_smoothed,target
20.00,-18.80,-19.60,-18.80,-19.60,6.00,6.62,2.91,-12.80,-12.80,0.80
20.20,-18.69,-19.49,-18.68,-19.48,6.00,6.62,3.00,-12.69,-12.68,0.80
20.40,-18.56,-19.36,-18.57,-19.37,6.00,6.61,3.08,-12.56,-12.57,0.80
20.61,-18.45,-19.26,-18.45,-19.25,6.00,6.60,3.17,-12.45,-12.45,0.81
20.81,-18.33,-19.14,-18.33,-19.14,6.00,6.60,3.26,-12.33,-12.33,0.81
21.02,-18.22,-19.03,-18.21,-19.02,6.00,6.59,3.35,-12.22,-12.21,0.81
21.23,-18.09,-18.90,-18.09,-18.90,6.00,6.59,3.45,-12.09,-12.09,0.81
21.44,-17.96,-18.77,-17.97,-18.78,6.00,6.58,3.54,-11.96,-11.97,0.82
21.66,-17.84,-18.66,-17.84,-18.65,6.00,6.58,3.64,-11.84,-11.84,0.82
21.87,-17.71,-18.52,-17.71,-18.53,6.00,6.57,3.75,-11.71,-11.71,0.82
22.09,-17.58,-18.39,-17.58,-18.40,6.00,6.56,3.85,-11.58,-11.58,0.81
22.31,-17.45,-18.27,-17.45,-18.27,6.00,6.56,3.97,-11.45,-11.45,0.82
22.54,-17.32,-18.14,-17.32,-18.14,6.00,6.55,4.08,-11.32,-11.32,0.81
22.76,-17.18,-18.00,-17.18,-18.01,6.00,6.54,4.19,-11.18,-11.18,0.82
22.99,-17.05,-17.87,-17.04,-17.87,6.00,6.54,4.31,-11.05,-11.04,0.82
23.22,-16.90,-17.72,-16.90,-17.72,6.00,6.53,4.43,-10.90,-10.90,0.82
23.45,-16.75,-17.57,-16.75,-17.57,6.00,6.52,4.55,-10.75,-10.75,0.82
23.69,-16.60,-17.42,-16.60,-17.42,6.00,6.52,4.68,-10.60,-10.60,0.82
23.92,-16.45,-17.28,-16.46,-17.28,6.00,6.51,4.81,-10.45,-10.46,0.83
24.16,-16.33,-17.15,-16.34,-17.16,6.00,6.50,4.94,-10.33,-10.34,0.82
24.40,-16.23,-17.05,-16.23,-17.05,6.00,6.49,5.07,-10.23,-10.23,0.82
24.65,-16.14,-16.96,-16.13,-16.95,6.00,6.49,5.21,-10.14,-10.13,0.82
24.89,-16.02,-16.83,-16.03,-16.84,6.00,6.48,5.35,-10.02,-10.03,0.81
25.14,-15.92,-16.73,-15.91,-16.72,6.00,6.47,5.49,-9.92,-9.91,0.81
25.39,-15.80,-16.60,-15.80,-16.60,6.00,6.46,5.63,-9.80,-9.80,0.80
25.65,-15.68,-16.48,-15.68,-16.48,6.00,6.45,5.77,-9.68,-9.68,0.80
25.91,-15.56,-16.35,-15.56,-16.35,6.00,6.44,5.91,-9.56,-9.56,0.79
26.16,-15.43,-16.21,-15.43,-16.21,6.00,6.43,6.05,-9.43,-9.43,0.79
26.43,-15.29,-16.07,-15.29,-16.07,6.00,6.43,6.20,-9.29,-9.29,0.77
26.69,-15.15,-15.92,-15.15,-15.92,6.00,6.42,6.34,-9.15,-9.15,0.77
26.96,-15.00,-15.77,-15.01,-15.78,6.00,6.41,6.48,-9.00,-9.01,0.77
27.23,-14.87,-15.64,-14.87,-15.64,6.00,6.40,6.61,-8.87,-8.87,0.77
27.50,-14.73,-15.49,-14.73,-15.49,6.00,6.39,6.74,-8.73,-8.73,0.76
27.77,-14.59,-15.35,-14.59,-15.36,6.00,6.38,6.87,-8.59,-8.59,0.76
28.05,-14.46,-15.23,-14.47,-15.23,6.00,6.37,7.00,-8.46,-8.47,0.77
28.33,-14.36,-15.13,-14.36,-15.13,6.00,6.36,7.12,-8.36,-8.36,0.77
28.62,-14.26,-15.03,-14.26,-15.03,6.00,6.35,7.23,-8.26,-8.26,0.77
28.90,-14.16,-14.93,-14.14,-14.91,6.00,6.34,7.33,-8.16,-8.14,0.77
29.19,-13.99,-14.76,-13.99,-14.75,6.00,6.33,7.43,-7.99,-7.99,0.77
29.48,-13.80,-14.56,-13.80,-14.57,6.00,6.31,7.51,-7.80,-7.80,0.76
29.78,-13.62,-14.39,-13.62,-14.38,6.00,6.30,7.59,-7.62,-7.62,0.76
30.08,-13.44,-14.20,-13.46,-14.22,6.00,6.29,7.65,-7.44,-7.46,0.75
30.38,-13.34,-14.09,-13.34,-14.09,6.00,6.28,7.71,-7.34,-7.34,0.75
30.68,-13.24,-13.99,-13.24,-13.98,6.00,6.27,7.75,-7.24,-7.24,0.75
30.99,-13.14,-13.88,-13.13,-13.87,6.00,6.25,7.78,-7.14,-7.13,0.74
31.30,-12.99,-13.73,-12.99,-13.73,6.00,6.24,7.80,-6.99,-6.99,0.74
31.61,-12.84,-13.57,-12.84,-13.57,6.00,6.23,7.80,-6.84,-6.84,0.73
31.93,-12.68,-13.41,-12.68,-13.40,6.00,6.22,7.79,-6.68,-6.68,0.72
32.24,-12.53,-13.24,-12.54,-13.25,6.00,6.20,7.77,-6.53,-6.54,0.71
32.57,-12.40,-13.10,-12.39,-13.10,6.00,6.19,7.74,-6.40,-6.39,0.70
32.89,-12.26,-12.96,-12.26,-12.95,6.00,6.18,7.70,-6.26,-6.26,0.70
33.22,-12.12,-12.82,-12.13,-12.82,6.00,6.16,7.64,-6.12,-6.13,0.70
33.55,-12.00,-12.68,-12.00,-12.69,6.00,6.15,7.58,-6.00,-6.00,0.69
33.89,-11.89,-12.56,-11.88,-12.56,6.00,6.14,7.51,-5.89,-5.88,0.67
34.23,-11.76,-12.43,-11.76,-12.43,6.00,6.12,7.43,-5.76,-5.76,0.67
34.57,-11.62,-12.28,-11.63,-12.29,6.00,6.11,7.34,-5.62,-5.63,0.66
34.92,-11.49,-12.15,-11.48,-12.14,6.00,6.09,7.24,-5.49,-5.48,0.66
35.27,-11.32,-11.98,-11.31,-11.97,6.00,6.08,7.14,-5.32,-5.31,0.66
35.62,-11.14,-11.79,-11.14,-11.79,6.00,6.06,7.04,-5.14,-5.14,0.65
35.97,-10.95,-11.59,-10.98,-11.62,6.00,6.05,6.93,-4.95,-4.98,0.64
36.33,-10.85,-11.49,-10.85,-11.49,6.00,6.03,6.83,-4.85,-4.85,0.64
36.70,-10.76,-11.40,-10.74,-11.38,6.00,6.02,6.71,-4.76,-4.74,0.64
37.06,-10.65,-11.28,-10.65,-11.28,6.00,6.00,6.60,-4.65,-4.65,0.63
37.43,-10.53,-11.16,-10.53,-11.17,6.00,5.99,6.49,-4.53,-4.53,0.63
37.81,-10.41,-11.05,-10.41,-11.04,6.00,5.98,6.38,-4.41,-4.41,0.64
38.19,-10.28,-10.92,-10.28,-10.92,6.00,5.96,6.27,-4.28,-4.28,0.64
38.57,-10.16,-10.79,-10.16,-10.79,6.00,5.95,6.16,-4.16,-4.16,0.63
38.95,-10.03,-10.66,-10.04,-10.67,6.00,5.93,6.05,-4.03,-4.04,0.63
39.34,-9.93,-10.55,-9.93,-10.56,6.00,5.92,5.94,-3.93,-3.93,0.63
39.74,-9.83,-10.45,-9.83,-10.45,6.00,5.91,5.84,-3.83,-3.83,0.62
40.14,-9.71,-10.33,-9.70,-10.32,6.00,5.89,5.74,-3.71,-3.70,0.62
40.54,-9.54,-10.16,-9.54,-10.16,6.00,5.88,5.64,-3.54,-3.54,0.62
40.94,-9.36,-9.97,-9.37,-9.98,6.00,5.87,5.54,-3.36,-3.37,0.61
41.35,-9.19,-9.79,-9.19,-9.79,6.00,5.86,5.45,-3.19,-3.19,0.60
41.76,-9.03,-9.61,-9.03,-9.61,6.00,5.85,5.36,-3.03,-3.03,0.58
42.18,-8.88,-9.45,-8.89,-9.46,6.00,5.84,5.28,-2.88,-2.89,0.57
42.60,-8.76,-9.31,-8.76,-9.31,6.00,5.84,5.20,-2.76,-2.76,0.55
43.03,-8.64,-9.18,-8.63,-9.16,6.00,5.83,5.12,-2.64,-2.63,0.54
43.46,-8.49,-9.01,-8.49,-9.01,6.00,5.83,5.05,-2.49,-2.49,0.52
43.90,-8.35,-8.85,-8.36,-8.86,6.00,5.83,4.98,-2.35,-2.36,0.50
44.33,-8.23,-8.72,-8.24,-8.72,6.00,5.83,4.91,-2.23,-2.24,0.49
44.78,-8.14,-8.61,-8.13,-8.60,6.00,5.84,4.85,-2.14,-2.13,0.47
45.23,-8.02,-8.48,-8.02,-8.47,6.00,5.85,4.79,-2.02,-2.02,0.46
45.68,-7.89,-8.33,-7.89,-8.33,6.00,5.86,4.74,-1.89,-1.89,0.44
46.13,-7.74,-8.17,-7.73,-8.16,6.00,5.87,4.69,-1.74,-1.73,0.43
46.60,-7.57,-8.00,-7.56,-7.99,6.00,5.89,4.64,-1.57,-1.56,0.43
47.06,-7.38,-7.80,-7.41,-7.83,6.00,5.92,4.59,-1.38,-1.41,0.42
47.53,-7.26,-7.68,-7.26,-7.68,6.00,5.94,4.55,-1.26,-1.26,0.42
48.01,-7.13,-7.55,-7.12,-7.54,6.00,5.97,4.52,-1.13,-1.12,0.42
48.49,-6.98,-7.40,-6.98,-7.40,6.00,6.00,4.48,-0.98,-0.98,0.42
48.97,-6.82,-7.24,-6.81,-7.24,6.00,6.03,4.45,-0.82,-0.81,0.42
49.46,-6.66,-7.09,-6.66,-7.09,6.00,6.07,4.42,-0.66,-0.66,0.43
49.96,-6.50,-6.93,-6.53,-6.96,6.00,6.09,4.39,-0.50,-0.53,0.43
50.46,-6.42,-6.86,-6.42,-6.86,6.01,6.11,4.37,-0.42,-0.41,0.44
50.96,-6.33,-6.77,-6.32,-6.76,6.01,6.12,4.35,-0.32,-0.30,0.44
51.47,-6.20,-6.65,-6.20,-6.64,6.02,6.11,4.33,-0.18,-0.18,0.45
51.99,-6.05,-6.49,-6.04,-6.47,6.03,6.09,4.31,-0.03,-0.01,0.44
52.51,-5.87,-6.30,-5.87,-6.30,6.02,6.04,4.29,0.15,0.15,0.43
53.03,-5.69,-6.11,-5.73,-6.15,6.00,5.98,4.27,0.31,0.26,0.42
53.56,-5.63,-6.04,-5.62,-6.03,5.95,5.89,4.26,0.32,0.33,0.41
54.10,-5.56,-5.96,-5.53,-5.93,5.88,5.79,4.24,0.32,0.35,0.40
54.64,-5.43,-5.81,-5.44,-5.82,5.78,5.66,4.22,0.35,0.34,0.38
55.18,-5.31,-5.67,-5.32,-5.68,5.65,5.53,4.21,0.34,0.33,0.36
55.74,-5.19,-5.53,-5.17,-5.51,5.50,5.38,4.19,0.31,0.33,0.34
56.29,-5.02,-5.32,-5.01,-5.32,5.33,5.23,4.17,0.31,0.32,0.30
56.86,-4.83,-5.11,-4.85,-5.13,5.15,5.07,4.15,0.32,0.30,0.28
57.42,-4.68,-4.93,-4.69,-4.94,4.96,4.92,4.13,0.28,0.27,0.25
58.00,-4.55,-4.77,-4.54,-4.76,4.78,4.76,4.10,0.23,0.24,0.22
58.58,-4.42,-4.61,-4.41,-4.60,4.61,4.60,4.08,0.19,0.20,0.19
59.16,-4.28,-4.43,-4.28,-4.43,4.45,4.45,4.05,0.17,0.17,0.15
59.76,-4.16,-4.28,-4.17,-4.29,4.30,4.29,4.01,0.14,0.13,0.12
60.35,-4.06,-4.14,-4.07,-4.15,4.16,4.14,3.98,0.10,0.09,0.08
60.96,-3.99,-4.04,-3.96,-4.02,4.01,4.00,3.93,0.02,0.04,0.05
61.57,-3.86,-3.88,-3.87,-3.89,3.86,3.85,3.89,-0.01,-0.01,0.02
62.18,-3.73,-3.72,-3.76,-3.75,3.70,3.71,3.84,-0.03,-0.06,-0.01
62.80,-3.66,-3.61,-3.62,-3.58,3.56,3.56,3.78,-0.10,-0.07,-0.05
63.43,-3.50,-3.41,-3.48,-3.40,3.41,3.42,3.73,-0.09,-0.07,-0.08
64.07,-3.31,-3.19,-3.34,-3.22,3.26,3.28,3.66,-0.05,-0.08,-0.12
64.71,-3.21,-3.05,-3.22,-3.06,3.11,3.14,3.60,-0.10,-0.11,-0.16
65.35,-3.13,-2.93,-3.14,-2.94,2.96,3.00,3.52,-0.17,-0.18,-0.20
66.01,-3.08,-2.85,-3.08,-2.85,2.80,2.87,3.45,-0.28,-0.27,-0.23
66.67,-3.00,-2.75,-2.97,-2.72,2.66,2.73,3.37,-0.34,-0.31,-0.25
67.33,-2.85,-2.57,-2.83,-2.55,2.53,2.59,3.29,-0.32,-0.30,-0.27
68.01,-2.63,-2.33,-2.68,-2.37,2.40,2.46,3.20,-0.23,-0.27,-0.30
68.69,-2.54,-2.22,-2.54,-2.22,2.27,2.33,3.11,-0.27,-0.27,-0.33
69.37,-2.45,-2.11,-2.45,-2.11,2.14,2.20,3.01,-0.31,-0.31,-0.34
70.07,-2.38,-2.03,-2.38,-2.03,2.00,2.07,2.92,-0.38,-0.38,-0.35
70.77,-2.30,-1.94,-2.28,-1.92,1.87,1.94,2.82,-0.43,-0.41,-0.36
71.48,-2.16,-1.79,-2.15,-1.77,1.76,1.82,2.72,-0.40,-0.39,-0.37
72.19,-2.00,-1.61,-2.00,-1.62,1.64,1.70,2.62,-0.36,-0.36,-0.39
72.91,-1.84,-1.45,-1.89,-1.50,1.53,1.59,2.51,-0.31,-0.36,-0.39
73.64,-1.82,-1.41,-1.80,-1.40,1.42,1.48,2.40,-0.40,-0.39,-0.41
74.38,-1.76,-1.34,-1.73,-1.31,1.30,1.37,2.30,-0.46,-0.44,-0.42
75.12,-1.64,-1.20,-1.65,-1.21,1.18,1.27,2.19,-0.46,-0.47,-0.44
75.87,-1.55,-1.09,-1.54,-1.08,1.07,1.17,2.08,-0.48,-0.47,-0.46
76.63,-1.42,-0.94,-1.44,-0.96,0.96,1.07,1.97,-0.46,-0.48,-0.48
77.40,-1.34,-0.84,-1.34,-0.84,0.86,0.97,1.86,-0.48,-0.48,-0.50
78.17,-1.27,-0.76,-1.25,-0.73,0.75,0.88,1.75,-0.52,-0.50,-0.51
78.95,-1.14,-0.60,-1.18,-0.64,0.65,0.79,1.63,-0.49,-0.53,-0.54
79.74,-1.13,-0.57,-1.11,-0.55,0.54,0.70,1.52,-0.59,-0.57,-0.56
80.54,-1.05,-0.47,-1.04,-0.46,0.44,0.61,1.41,-0.61,-0.60,-0.58
81.35,-0.96,-0.36,-0.97,-0.37,0.35,0.52,1.30,-0.61,-0.62,-0.60
82.16,-0.89,-0.27,-0.88,-0.26,0.26,0.43,1.19,-0.63,-0.61,-0.62
82.98,-0.80,-0.16,-0.80,-0.15,0.17,0.35,1.08,-0.63,-0.62,-0.64
83.81,-0.70,-0.04,-0.73,-0.07,0.08,0.26,0.96,-0.62,-0.65,-0.66
84.65,-0.68,-0.00,-0.66,0.01,-0.01,0.17,0.85,-0.69,-0.68,-0.68
85.50,-0.62,0.07,-0.60,0.09,-0.11,0.07,0.74,-0.73,-0.71,-0.69
86.35,-0.51,0.19,-0.54,0.17,-0.20,-0.02,0.63,-0.71,-0.74,-0.70
87.22,-0.44,0.28,-0.44,0.28,-0.29,-0.11,0.52,-0.73,-0.72,-0.72
88.09,-0.38,0.35,-0.34,0.39,-0.37,-0.20,0.41,-0.75,-0.71,-0.73
88.97,-0.23,0.52,-0.28,0.47,-0.45,-0.30,0.30,-0.68,-0.72,-0.75
89.86,-0.22,0.55,-0.22,0.55,-0.52,-0.39,0.19,-0.74,-0.74,-0.77
90.76,-0.21,0.58,-0.18,0.61,-0.60,-0.49,0.08,-0.81,-0.78,-0.79
91.66,-0.14,0.66,-0.16,0.65,-0.67,-0.58,-0.03,-0.81,-0.83,-0.80
92.58,-0.11,0.71,-0.11,0.71,-0.73,-0.68,-0.14,-0.84,-0.84,-0.82
93.51,-0.06,0.77,-0.06,0.78,-0.79,-0.78,-0.25,-0.85,-0.85,-0.83
94.44,-0.00,0.85,0.00,0.85,-0.84,-0.87,-0.36,-0.84,-0.84,-0.85
95.39,0.05,0.92,0.06,0.93,-0.90,-0.97,-0.47,-0.85,-0.84,-0.87
96.34,0.12,1.00,0.10,0.98,-0.96,-1.06,-0.58,-0.84,-0.86,-0.88
97.30,0.12,1.02,0.12,1.02,-1.02,-1.16,-0.69,-0.90,-0.90,-0.90
98.28,0.12,1.04,0.14,1.06,-1.08,-1.25,-0.80,-0.96,-0.94,-0.92
99.26,0.15,1.09,0.16,1.10,-1.13,-1.34,-0.90,-0.98,-0.97,-0.94
100.25,0.23,1.20,0.22,1.18,-1.19,-1.43,-1.01,-0.96,-0.97,-0.97
101.25,0.27,1.25,0.28,1.26,-1.25,-1.52,-1.11,-0.98,-0.97,-0.98
102.27,0.34,1.35,0.32,1.33,-1.31,-1.61,-1.22,-0.97,-0.99,-1.01
103.29,0.34,1.38,0.34,1.38,-1.38,-1.69,-1.32,-1.04,-1.04,-1.04
104.32,0.34,1.42,0.36,1.44,-1.45,-1.77,-1.42,-1.11,-1.09,-1.08
105.37,0.37,1.49,0.38,1.50,-1.52,-1.85,-1.53,-1.15,-1.13,-1.12
106.42,0.44,1.60,0.42,1.58,-1.58,-1.93,-1.62,-1.14,-1.16,-1.16
107.48,0.46,1.66,0.45,1.66,-1.64,-2.01,-1.72,-1.18,-1.19,-1.20
108.56,0.46,1.72,0.47,1.72,-1.70,-2.08,-1.82,-1.24,-1.24,-1.26
109.64,0.46,1.77,0.46,1.77,-1.76,-2.15,-1.91,-1.30,-1.30,-1.31
110.74,0.46,1.82,0.46,1.82,-1.82,-2.22,-2.00,-1.36,-1.36,-1.36
111.85,0.46,1.87,0.46,1.87,-1.88,-2.28,-2.08,-1.42,-1.42,-1.41
112.97,0.46,1.92,0.46,1.92,-1.93,-2.34,-2.16,-1.47,-1.47,-1.46
114.10,0.46,1.97,0.46,1.97,-1.97,-2.40,-2.24,-1.51,-1.51,-1.51
115.24,0.46,2.02,0.46,2.02,-2.01,-2.45,-2.32,-1.55,-1.55,-1.56
116.39,0.46,2.07,0.46,2.07,-2.06,-2.50,-2.39,-1.60,-1.60,-1.61
117.55,0.46,2.11,0.46,2.11,-2.11,-2.55,-2.45,-1.65,-1.65,-1.65
118.73,0.46,2.15,0.45,2.14,-2.17,-2.59,-2.51,-1.71,-1.71,-1.69
119.92,0.46,2.18,0.46,2.19,-2.22,-2.63,-2.56,-1.76,-1.76,-1.72
121.12,0.46,2.22,0.49,2.25,-2.26,-2.67,-2.61,-1.80,-1.78,-1.76
122.33,0.53,2.33,0.53,2.32,-2.30,-2.70,-2.65,-1.77,-1.77,-1.80
123.55,0.57,2.39,0.55,2.38,-2.33,-2.73,-2.69,-1.76,-1.78,-1.82
124.79,0.57,2.43,0.55,2.40,-2.36,-2.76,-2.72,-1.79,-1.81,-1.86
126.03,0.50,2.38,0.52,2.40,-2.39,-2.78,-2.75,-1.89,-1.87,-1.88
127.29,0.47,2.37,0.48,2.39,-2.41,-2.80,-2.77,-1.94,-1.93,-1.90
128.57,0.46,2.40,0.46,2.39,-2.42,-2.82,-2.79,-1.96,-1.97,-1.94
129.85,0.46,2.42,0.46,2.42,-2.44,-2.84,-2.79,-1.98,-1.98,-1.96
131.15,0.46,2.44,0.46,2.45,-2.45,-2.85,-2.80,-1.99,-1.99,-1.98
132.46,0.46,2.47,0.46,2.47,-2.47,-2.86,-2.80,-2.01,-2.01,-2.01
133.79,0.46,2.51,0.46,2.50,-2.50,-2.86,-2.79,-2.04,-2.04,-2.05
135.12,0.46,2.53,0.46,2.53,-2.53,-2.86,-2.78,-2.07,-2.07,-2.07
136.48,0.46,2.56,0.46,2.56,-2.56,-2.87,-2.77,-2.10,-2.10,-2.10
137.84,0.46,2.59,0.47,2.59,-2.58,-2.86,-2.75,-2.12,-2.11,-2.13
139.22,0.46,2.61,0.46,2.61,-2.59,-2.86,-2.72,-2.13,-2.13,-2.15
140.61,0.46,2.63,0.44,2.61,-2.59,-2.85,-2.70,-2.13,-2.15,-2.17
142.02,0.40,2.60,0.41,2.61,-2.60,-2.84,-2.67,-2.20,-2.18,-2.20
143.44,0.36,2.59,0.37,2.60,-2.59,-2.83,-2.64,-2.23,-2.22,-2.23
144.87,0.34,2.60,0.32,2.58,-2.59,-2.82,-2.61,-2.25,-2.28,-2.26
146.32,0.27,2.56,0.28,2.57,-2.60,-2.80,-2.57,-2.33,-2.32,-2.29
147.78,0.23,2.56,0.25,2.57,-2.60,-2.79,-2.54,-2.37,-2.36,-2.33
149.26,0.23,2.59,0.23,2.60,-2.61,-2.77,-2.50,-2.38,-2.38,-2.36
150.75,0.23,2.64,0.22,2.63,-2.62,-2.75,-2.47,-2.39,-2.40,-2.41
152.26,0.22,2.67,0.20,2.65,-2.64,-2.73,-2.43,-2.42,-2.44,-2.45
153.78,0.15,2.66,0.17,2.68,-2.66,-2.71,-2.39,-2.51,-2.49,-2.51
155.32,0.12,2.68,0.13,2.69,-2.68,-2.68,-2.36,-2.56,-2.55,-2.56
156.88,0.11,2.72,0.08,2.69,-2.71,-2.66,-2.32,-2.60,-2.62,-2.61
158.44,0.04,2.69,0.05,2.71,-2.73,-2.63,-2.29,-2.69,-2.68,-2.65
160.03,0.01,2.71,0.02,2.72,-2.74,-2.60,-2.25,-2.73,-2.72,-2.70
161.63,0.01,2.75,0.01,2.75,-2.75,-2.58,-2.22,-2.74,-2.74,-2.74
163.24,0.01,2.78,0.01,2.77,-2.76,-2.55,-2.19,-2.75,-2.75,-2.77
164.88,0.01,2.81,-0.02,2.78,-2.75,-2.52,-2.15,-2.74,-2.77,-2.80
166.53,-0.08,2.74,-0.05,2.76,-2.74,-2.49,-2.12,-2.82,-2.79,-2.82
168.19,-0.11,2.72,-0.10,2.73,-2.71,-2.45,-2.10,-2.82,-2.81,-2.83
169.87,-0.14,2.70,-0.16,2.68,-2.68,-2.42,-2.07,-2.82,-2.84,-2.84
171.57,-0.21,2.63,-0.22,2.63,-2.64,-2.39,-2.04,-2.85,-2.86,-2.84
173.29,-0.29,2.55,-0.28,2.56,-2.59,-2.36,-2.02,-2.88,-2.87,-2.84
175.02,-0.34,2.49,-0.32,2.51,-2.53,-2.32,-2.00,-2.87,-2.85,-2.83
176.77,-0.34,2.48,-0.34,2.48,-2.47,-2.29,-1.98,-2.81,-2.81,-2.82
178.54,-0.34,2.47,-0.37,2.44,-2.41,-2.26,-1.96,-2.75,-2.78,-2.81
180.32,-0.42,2.37,-0.43,2.36,-2.36,-2.22,-1.94,-2.78,-2.78,-2.79
182.13,-0.51,2.27,-0.50,2.28,-2.30,-2.19,-1.92,-2.81,-2.80,-2.78
183.95,-0.57,2.20,-0.54,2.22,-2.25,-2.15,-1.91,-2.82,-2.79,-2.77
185.79,-0.57,2.19,-0.58,2.19,-2.19,-2.12,-1.90,-2.76,-2.77,-2.76
187.65,-0.57,2.19,-0.60,2.16,-2.14,-2.08,-1.89,-2.71,-2.75,-2.76
189.52,-0.66,2.10,-0.65,2.11,-2.10,-2.04,-1.88,-2.76,-2.75,-2.76
191.42,-0.71,2.05,-0.71,2.06,-2.07,-2.01,-1.87,-2.78,-2.78,-2.76
193.33,-0.77,2.01,-0.77,2.01,-2.03,-1.97,-1.86,-2.80,-2.80,-2.78
195.27,-0.80,1.98,-0.79,1.99,-2.00,-1.94,-1.86,-2.80,-2.79,-2.78
197.22,-0.80,1.98,-0.80,1.98,-1.97,-1.90,-1.85,-2.77,-2.77,-2.78
199.19,-0.80,1.99,-0.82,1.97,-1.94,-1.86,-1.85,-2.74,-2.76,-2.79
201.18,-0.87,1.93,-0.87,1.93,-1.92,-1.83,-1.85,-2.79,-2.78,-2.80
203.19,-0.93,1.88,-0.93,1.88,-1.90,-1.79,-1.84,-2.83,-2.83,-2.81
205.23,-0.99,1.83,-0.98,1.84,-1.88,-1.76,-1.84,-2.87,-2.86,-2.82
207.28,-1.02,1.82,-1.01,1.84,-1.85,-1.72,-1.84,-2.87,-2.86,-2.84
209.35,-1.02,1.84,-1.03,1.83,-1.82,-1.68,-1.84,-2.84,-2.85,-2.86
211.44,-1.02,1.85,-1.04,1.83,-1.80,-1.65,-1.84,-2.82,-2.84,-2.87
213.56,-1.10,1.79,-1.09,1.80,-1.78,-1.61,-1.84,-2.88,-2.86,-2.89
215.69,-1.13,1.77,-1.15,1.75,-1.76,-1.58,-1.84,-2.89,-2.91,-2.90
217.85,-1.24,1.68,-1.21,1.70,-1.74,-1.54,-1.84,-2.98,-2.95,-2.92
220.03,-1.25,1.67,-1.24,1.68,-1.71,-1.50,-1.84,-2.96,-2.96,-2.92
222.23,-1.25,1.69,-1.24,1.70,-1.68,-1.47,-1.84,-2.93,-2.93,-2.94
224.45,-1.25,1.70,-1.25,1.70,-1.65,-1.43,-1.84,-2.90,-2.91,-2.95
226.70,-1.25,1.72,-1.30,1.66,-1.63,-1.40,-1.83,-2.88,-2.93,-2.97
228.96,-1.41,1.56,-1.37,1.60,-1.61,-1.36,-1.83,-3.02,-2.98,-2.97
231.25,-1.46,1.53,-1.44,1.54,-1.59,-1.33,-1.82,-3.05,-3.03,-2.99
233.57,-1.48,1.52,-1.49,1.51,-1.56,-1.29,-1.81,-3.04,-3.04,-3.00
235.90,-1.48,1.52,-1.47,1.54,-1.52,-1.26,-1.80,-3.00,-2.99,-3.00
238.26,-1.48,1.54,-1.48,1.53,-1.48,-1.22,-1.78,-2.96,-2.96,-3.02
240.64,-1.48,1.55,-1.54,1.49,-1.45,-1.19,-1.77,-2.93,-2.99,-3.03
243.05,-1.64,1.39,-1.61,1.42,-1.43,-1.15,-1.75,-3.07,-3.04,-3.03
245.48,-1.71,1.33,-1.68,1.36,-1.41,-1.12,-1.73,-3.12,-3.08,-3.04
247.93,-1.71,1.33,-1.72,1.32,-1.38,-1.08,-1.70,-3.09,-3.10,-3.04
250.41,-1.71,1.34,-1.71,1.34,-1.34,-1.05,-1.67,-3.05,-3.05,-3.05
252.92,-1.71,1.34,-1.70,1.35,-1.30,-1.01,-1.65,-3.01,-3.01,-3.05
255.45,-1.71,1.35,-1.73,1.32,-1.27,-0.98,-1.61,-2.98,-3.00,-3.06
258.00,-1.77,1.29,-1.79,1.27,-1.25,-0.94,-1.58,-3.02,-3.04,-3.06
260.58,-1.89,1.18,-1.86,1.21,-1.23,-0.91,-1.54,-3.12,-3.09,-3.07
263.19,-1.93,1.15,-1.92,1.16,-1.21,-0.88,-1.50,-3.14,-3.13,-3.08
265.82,-1.94,1.14,-1.94,1.14,-1.18,-0.84,-1.45,-3.12,-3.12,-3.08
268.48,-1.94,1.15,-1.94,1.15,-1.15,-0.81,-1.41,-3.09,-3.09,-3.09
271.16,-1.94,1.16,-1.96,1.14,-1.12,-0.77,-1.36,-3.07,-3.08,-3.10
273.87,-1.98,1.12,-1.98,1.13,-1.10,-0.74,-1.30,-3.08,-3.08,-3.11
276.61,-2.04,1.07,-2.02,1.09,-1.07,-0.70,-1.25,-3.11,-3.09,-3.11
279.38,-2.05,1.07,-2.07,1.05,-1.04,-0.67,-1.19,-3.09,-3.11,-3.12
282.17,-2.13,1.00,-2.13,0.99,-1.00,-0.63,-1.14,-3.13,-3.13,-3.13
284.99,-2.19,0.94,-2.18,0.95,-0.95,-0.60,-1.08,-3.14,-3.14,-3.13
287.84,-2.27,0.86,-2.25,0.88,-0.89,-0.57,-1.01,-3.16,-3.14,-3.13
290.72,-2.28,0.85,-2.31,0.82,-0.83,-0.53,-0.95,-3.11,-3.14,-3.13
293.63,-2.39,0.75,-2.40,0.74,-0.75,-0.50,-0.89,-3.14,-3.15,-3.14
296.57,-2.49,0.65,-2.47,0.67,-0.66,-0.46,-0.82,-3.15,-3.12,-3.14
299.53,-2.59,0.55,-2.57,0.58,-0.55,-0.43,-0.75,-3.14,-3.12,-3.14
302.53,-2.62,0.53,-2.68,0.47,-0.43,-0.39,-0.69,-3.05,-3.11,-3.16
305.55,-2.83,0.33,-2.81,0.35,-0.30,-0.36,-0.62,-3.13,-3.10,-3.16
308.61,-2.98,0.18,-2.97,0.20,-0.18,-0.32,-0.55,-3.16,-3.14,-3.16
311.69,-3.11,0.06,-3.15,0.02,-0.06,-0.29,-0.48,-3.17,-3.21,-3.17
314.81,-3.31,-0.13,-3.29,-0.10,0.03,-0.25,-0.40,-3.28,-3.26,-3.18
317.96,-3.41,-0.21,-3.38,-0.18,0.11,-0.21,-0.33,-3.30,-3.28,-3.20
321.14,-3.42,-0.20,-3.43,-0.22,0.16,-0.18,-0.26,-3.26,-3.27,-3.22
324.35,-3.42,-0.19,-3.43,-0.20,0.20,-0.14,-0.19,-3.22,-3.23,-3.23
327.59,-3.42,-0.18,-3.42,-0.17,0.22,-0.10,-0.11,-3.20,-3.20,-3.24
330.87,-3.42,-0.17,-3.42,-0.16,0.22,-0.07,-0.04,-3.20,-3.20,-3.25
334.18,-3.42,-0.15,-3.44,-0.18,0.21,-0.03,0.04,-3.21,-3.23,-3.27
337.52,-3.48,-0.20,-3.47,-0.20,0.20,0.01,0.11,-3.28,-3.27,-3.28
340.90,-3.52,-0.24,-3.51,-0.22,0.20,0.05,0.19,-3.32,-3.31,-3.28
344.30,-3.53,-0.24,-3.53,-0.24,0.21,0.08,0.27,-3.32,-3.32,-3.29
347.75,-3.53,-0.24,-3.53,-0.24,0.23,0.12,0.34,-3.30,-3.30,-3.29
351.23,-3.53,-0.24,-3.53,-0.23,0.25,0.16,0.42,-3.28,-3.28,-3.29
354.74,-3.53,-0.24,-3.54,-0.25,0.28,0.20,0.50,-3.25,-3.26,-3.30
358.28,-3.58,-0.28,-3.58,-0.29,0.31,0.24,0.57,-3.27,-3.27,-3.30
361.87,-3.63,-0.34,-3.64,-0.35,0.36,0.28,0.65,-3.27,-3.28,-3.29
365.49,-3.73,-0.44,-3.71,-0.42,0.41,0.32,0.73,-3.32,-3.30,-3.29
369.14,-3.76,-0.47,-3.77,-0.48,0.47,0.36,0.81,-3.29,-3.30,-3.29
372.83,-3.84,-0.55,-3.83,-0.54,0.53,0.41,0.89,-3.31,-3.29,-3.29
376.56,-3.87,-0.59,-3.89,-0.61,0.60,0.45,0.97,-3.27,-3.29,-3.28
380.33,-3.96,-0.68,-3.97,-0.69,0.68,0.49,1.05,-3.28,-3.30,-3.28
384.13,-4.07,-0.79,-4.03,-0.74,0.75,0.53,1.13,-3.32,-3.28,-3.28
387.97,-4.10,-0.81,-4.09,-0.81,0.83,0.58,1.21,-3.27,-3.27,-3.29
391.85,-4.11,-0.82,-4.16,-0.88,0.90,0.62,1.29,-3.21,-3.26,-3.29
395.77,-4.26,-0.97,-4.25,-0.96,0.97,0.67,1.37,-3.29,-3.27,-3.29
399.73,-4.36,-1.08,-4.33,-1.05,1.04,0.71,1.45,-3.32,-3.29,-3.28
403.72,-4.42,-1.14,-4.42,-1.14,1.10,0.76,1.53,-3.32,-3.31,-3.28
407.76,-4.44,-1.16,-4.47,-1.19,1.16,0.81,1.61,-3.28,-3.31,-3.28
411.84,-4.51,-1.23,-4.50,-1.22,1.21,0.85,1.69,-3.30,-3.30,-3.28
415.96,-4.55,-1.27,-4.53,-1.25,1.25,0.90,1.76,-3.30,-3.28,-3.28
420.12,-4.55,-1.27,-4.56,-1.28,1.29,0.95,1.84,-3.26,-3.27,-3.28
424.32,-4.56,-1.28,-4.58,-1.30,1.32,1.00,1.91,-3.24,-3.26,-3.28
428.56,-4.64,-1.36,-4.62,-1.34,1.35,1.05,1.98,-3.29,-3.27,-3.28
