frequency,raw,error,smoothed,error_smoothed,equalization,parametric_eq,fixed_band_eq,equalized_raw,equalized_smoothed,target
20.00,13.04,8.10,13.04,8.10,-8.07,-6.90,-3.50,4.97,4.97,4.94
20.20,13.04,8.12,13.04,8.11,-8.11,-6.90,-3.60,4.93,4.93,4.92
20.40,13.04,8.13,13.04,8.13,-8.14,-6.90,-3.70,4.90,4.90,4.91
20.61,13.04,8.14,13.04,8.14,-8.16,-6.90,-3.80,4.88,4.88,4.90
20.81,13.04,8.16,13.04,8.16,-8.18,-6.90,-3.91,4.86,4.86,4.88
21.02,13.04,8.17,13.04,8.17,-8.19,-6.90,-4.02,4.85,4.85,4.87
21.23,13.04,8.18,13.04,8.18,-8.20,-6.90,-4.13,4.85,4.85,4.86
21.44,13.04,8.19,13.04,8.19,-8.20,-6.90,-4.24,4.85,4.85,4.85
21.66,13.04,8.20,13.04,8.21,-8.19,-6.90,-4.36,4.85,4.85,4.84
21.87,13.04,8.21,13.04,8.21,-8.18,-6.90,-4.48,4.86,4.86,4.83
22.09,13.02,8.19,13.01,8.19,-8.16,-6.90,-4.60,4.86,4.85,4.83
22.31,12.97,8.15,12.97,8.16,-8.14,-6.90,-4.73,4.83,4.84,4.82
22.54,12.92,8.11,12.92,8.10,-8.11,-6.90,-4.86,4.81,4.81,4.82
22.76,12.87,8.06,12.87,8.06,-8.08,-6.90,-5.00,4.79,4.79,4.81
22.99,12.82,8.01,12.84,8.03,-8.05,-6.90,-5.13,4.77,4.78,4.82
23.22,12.82,8.02,12.82,8.01,-8.03,-6.90,-5.27,4.79,4.79,4.80
23.45,12.82,8.02,12.82,8.01,-8.02,-6.90,-5.42,4.80,4.80,4.80
23.69,12.82,8.01,12.82,8.01,-8.01,-6.90,-5.57,4.81,4.81,4.81
23.92,12.82,8.01,12.82,8.01,-8.01,-6.90,-5.71,4.81,4.81,4.81
24.16,12.82,8.00,12.82,8.00,-8.01,-6.90,-5.87,4.81,4.81,4.82
24.40,12.82,8.00,12.82,8.00,-8.00,-6.90,-6.02,4.82,4.82,4.82
24.65,12.82,8.00,12.82,8.00,-7.99,-6.90,-6.18,4.84,4.84,4.82
24.89,12.82,8.00,12.81,8.00,-7.96,-6.89,-6.34,4.86,4.85,4.82
25.14,12.79,7.97,12.78,7.96,-7.93,-6.89,-6.51,4.86,4.85,4.82
25.39,12.73,7.91,12.73,7.91,-7.90,-6.89,-6.67,4.83,4.83,4.82
25.65,12.67,7.85,12.67,7.85,-7.86,-6.89,-6.84,4.81,4.81,4.83
25.91,12.61,7.79,12.62,7.80,-7.83,-6.89,-7.01,4.78,4.79,4.82
26.16,12.59,7.77,12.59,7.77,-7.81,-6.89,-7.18,4.78,4.79,4.82
26.43,12.59,7.78,12.59,7.77,-7.79,-6.89,-7.34,4.80,4.79,4.81
26.69,12.59,7.78,12.59,7.78,-7.78,-6.89,-7.51,4.81,4.80,4.81
26.96,12.59,7.78,12.59,7.78,-7.78,-6.89,-7.68,4.81,4.81,4.81
27.23,12.59,7.78,12.59,7.79,-7.78,-6.89,-7.84,4.81,4.81,4.81
27.50,12.59,7.79,12.60,7.80,-7.78,-6.89,-8.00,4.81,4.82,4.80
27.77,12.59,7.80,12.59,7.80,-7.76,-6.88,-8.16,4.83,4.83,4.79
28.05,12.58,7.80,12.56,7.78,-7.75,-6.88,-8.31,4.83,4.82,4.78
28.33,12.51,7.74,12.51,7.74,-7.73,-6.88,-8.45,4.78,4.79,4.77
28.62,12.45,7.68,12.45,7.68,-7.71,-6.88,-8.59,4.75,4.74,4.77
28.90,12.38,7.62,12.39,7.63,-7.68,-6.88,-8.72,4.70,4.71,4.76
29.19,12.36,7.61,12.37,7.61,-7.65,-6.88,-8.84,4.71,4.72,4.75
29.48,12.36,7.61,12.36,7.62,-7.62,-6.88,-8.94,4.74,4.74,4.75
29.78,12.36,7.63,12.36,7.62,-7.58,-6.87,-9.04,4.78,4.77,4.73
30.08,12.34,7.62,12.33,7.60,-7.55,-6.87,-9.12,4.79,4.77,4.72
30.38,12.27,7.55,12.27,7.55,-7.53,-6.87,-9.19,4.74,4.74,4.72
30.68,12.20,7.49,12.20,7.50,-7.51,-6.87,-9.24,4.69,4.69,4.71
30.99,12.13,7.43,12.15,7.45,-7.50,-6.87,-9.29,4.64,4.66,4.70
31.30,12.13,7.45,12.13,7.44,-7.48,-6.86,-9.31,4.65,4.65,4.68
31.61,12.13,7.45,12.12,7.44,-7.47,-6.86,-9.32,4.66,4.65,4.68
31.93,12.13,7.45,12.13,7.46,-7.46,-6.86,-9.31,4.67,4.67,4.68
32.24,12.13,7.46,12.14,7.46,-7.44,-6.85,-9.30,4.69,4.69,4.67
32.57,12.13,7.47,12.14,7.47,-7.43,-6.85,-9.26,4.70,4.71,4.66
32.89,12.13,7.47,12.12,7.46,-7.41,-6.85,-9.21,4.72,4.71,4.66
33.22,12.08,7.42,12.07,7.41,-7.39,-6.84,-9.15,4.69,4.68,4.66
33.55,12.00,7.33,12.00,7.34,-7.36,-6.84,-9.08,4.64,4.65,4.67
33.89,11.93,7.26,11.94,7.27,-7.31,-6.84,-9.00,4.62,4.63,4.67
34.23,11.90,7.23,11.91,7.24,-7.27,-6.83,-8.91,4.63,4.65,4.67
34.57,11.90,7.22,11.90,7.22,-7.22,-6.83,-8.81,4.69,4.68,4.68
34.92,11.90,7.23,11.88,7.20,-7.17,-6.83,-8.71,4.73,4.71,4.67
35.27,11.84,7.16,11.83,7.15,-7.13,-6.82,-8.60,4.71,4.71,4.68
35.62,11.76,7.08,11.77,7.09,-7.10,-6.82,-8.48,4.66,4.67,4.68
35.97,11.69,7.02,11.71,7.03,-7.07,-6.81,-8.36,4.62,4.64,4.67
36.33,11.68,7.01,11.68,7.01,-7.05,-6.81,-8.24,4.63,4.63,4.67
36.70,11.68,7.01,11.68,7.01,-7.02,-6.80,-8.12,4.66,4.65,4.67
37.06,11.68,7.02,11.68,7.01,-7.00,-6.79,-8.00,4.68,4.68,4.66
37.43,11.66,7.00,11.67,7.01,-6.98,-6.79,-7.87,4.68,4.69,4.66
37.81,11.64,7.00,11.64,6.99,-6.96,-6.78,-7.75,4.68,4.67,4.64
38.19,11.60,6.97,11.59,6.96,-6.95,-6.77,-7.63,4.65,4.63,4.63
38.57,11.53,6.92,11.53,6.92,-6.94,-6.77,-7.51,4.59,4.59,4.61
38.95,11.46,6.86,11.48,6.88,-6.91,-6.76,-7.39,4.55,4.57,4.60
39.34,11.45,6.87,11.46,6.87,-6.88,-6.75,-7.28,4.57,4.58,4.58
39.74,11.45,6.88,11.44,6.87,-6.84,-6.74,-7.17,4.61,4.60,4.57
40.14,11.42,6.88,11.40,6.85,-6.81,-6.73,-7.06,4.61,4.58,4.54
40.54,11.33,6.79,11.33,6.79,-6.79,-6.72,-6.96,4.54,4.54,4.54
40.94,11.23,6.71,11.26,6.74,-6.77,-6.71,-6.86,4.46,4.49,4.52
41.35,11.22,6.70,11.22,6.70,-6.75,-6.70,-6.77,4.47,4.47,4.52
41.76,11.22,6.71,11.21,6.70,-6.73,-6.69,-6.68,4.49,4.48,4.51
42.18,11.22,6.72,11.23,6.72,-6.70,-6.68,-6.59,4.52,4.53,4.50
42.60,11.22,6.72,11.22,6.73,-6.67,-6.67,-6.51,4.55,4.55,4.50
43.03,11.21,6.72,11.18,6.69,-6.64,-6.65,-6.43,4.57,4.53,4.49
43.46,11.11,6.63,11.11,6.62,-6.62,-6.64,-6.36,4.49,4.49,4.48
43.90,11.01,6.53,11.04,6.56,-6.60,-6.63,-6.29,4.41,4.45,4.49
44.33,10.99,6.51,11.00,6.52,-6.56,-6.61,-6.22,4.43,4.43,4.48
44.78,10.99,6.52,10.98,6.51,-6.53,-6.60,-6.17,4.47,4.46,4.47
45.23,10.98,6.51,10.98,6.51,-6.49,-6.58,-6.11,4.49,4.49,4.47
45.68,10.95,6.49,10.95,6.49,-6.45,-6.56,-6.06,4.50,4.50,4.46
46.13,10.91,6.46,10.89,6.44,-6.43,-6.54,-6.02,4.48,4.47,4.45
46.60,10.83,6.39,10.83,6.39,-6.40,-6.53,-5.98,4.43,4.43,4.44
47.06,10.76,6.32,10.79,6.35,-6.37,-6.51,-5.94,4.39,4.42,4.44
47.53,10.76,6.33,10.76,6.33,-6.34,-6.48,-5.91,4.42,4.42,4.43
48.01,10.76,6.34,10.73,6.31,-6.31,-6.46,-5.88,4.45,4.43,4.42
48.49,10.70,6.30,10.70,6.29,-6.27,-6.44,-5.85,4.43,4.43,4.40
48.97,10.63,6.24,10.64,6.25,-6.24,-6.42,-5.83,4.39,4.40,4.39
49.46,10.59,6.20,10.59,6.20,-6.20,-6.39,-5.81,4.39,4.38,4.39
49.96,10.54,6.16,10.55,6.17,-6.17,-6.36,-5.80,4.37,4.39,4.38
50.46,10.52,6.15,10.52,6.15,-6.13,-6.34,-5.79,4.39,4.39,4.37
50.96,10.49,6.14,10.46,6.10,-6.10,-6.31,-5.78,4.39,4.36,4.35
51.47,10.40,6.05,10.40,6.05,-6.07,-6.28,-5.78,4.33,4.33,4.35
51.99,10.31,5.97,10.34,6.00,-6.05,-6.24,-5.77,4.27,4.30,4.34
52.51,10.31,5.99,10.31,5.98,-6.02,-6.21,-5.77,4.29,4.28,4.32
53.03,10.31,6.00,10.31,6.01,-6.00,-6.18,-5.77,4.31,4.31,4.31
53.56,10.31,6.03,10.31,6.02,-5.97,-6.14,-5.78,4.34,4.33,4.28
54.10,10.29,6.02,10.25,5.98,-5.94,-6.11,-5.78,4.35,4.31,4.27
54.64,10.16,5.91,10.19,5.94,-5.91,-6.07,-5.78,4.25,4.28,4.25
55.18,10.08,5.85,10.12,5.89,-5.88,-6.03,-5.79,4.20,4.24,4.23
55.74,10.08,5.86,10.05,5.83,-5.84,-5.99,-5.79,4.24,4.20,4.22
56.29,10.01,5.81,9.98,5.78,-5.81,-5.95,-5.80,4.20,4.18,4.20
56.86,9.88,5.70,9.92,5.73,-5.76,-5.91,-5.80,4.12,4.15,4.18
57.42,9.85,5.68,9.86,5.70,-5.73,-5.86,-5.81,4.13,4.14,4.17
58.00,9.85,5.70,9.85,5.70,-5.70,-5.82,-5.81,4.15,4.15,4.15
58.58,9.85,5.72,9.83,5.71,-5.67,-5.78,-5.81,4.18,4.16,4.13
59.16,9.81,5.70,9.78,5.67,-5.65,-5.73,-5.81,4.16,4.12,4.11
59.76,9.68,5.60,9.71,5.63,-5.63,-5.69,-5.80,4.05,4.08,4.09
60.35,9.63,5.57,9.65,5.59,-5.61,-5.64,-5.80,4.03,4.05,4.06
60.96,9.63,5.59,9.63,5.59,-5.58,-5.60,-5.79,4.05,4.05,4.04
61.57,9.63,5.60,9.61,5.58,-5.56,-5.56,-5.78,4.08,4.05,4.03
62.18,9.59,5.59,9.55,5.55,-5.54,-5.52,-5.76,4.05,4.02,4.00
62.80,9.44,5.46,9.48,5.50,-5.52,-5.48,-5.75,3.92,3.96,3.98
63.43,9.40,5.45,9.42,5.47,-5.52,-5.45,-5.72,3.88,3.90,3.95
64.07,9.40,5.48,9.39,5.47,-5.51,-5.41,-5.70,3.89,3.88,3.92
64.71,9.40,5.51,9.41,5.52,-5.51,-5.38,-5.67,3.90,3.91,3.89
65.35,9.40,5.55,9.40,5.55,-5.50,-5.35,-5.64,3.90,3.90,3.85
66.01,9.40,5.58,9.35,5.53,-5.49,-5.33,-5.61,3.91,3.86,3.82
66.67,9.25,5.46,9.28,5.49,-5.48,-5.31,-5.58,3.77,3.79,3.79
67.33,9.17,5.42,9.21,5.46,-5.47,-5.29,-5.54,3.70,3.74,3.75
68.01,9.17,5.45,9.16,5.44,-5.46,-5.27,-5.50,3.71,3.70,3.72
68.69,9.15,5.46,9.11,5.43,-5.44,-5.26,-5.46,3.71,3.68,3.69
69.37,9.06,5.42,9.05,5.40,-5.41,-5.25,-5.42,3.65,3.64,3.64
70.07,8.94,5.33,8.99,5.38,-5.39,-5.25,-5.38,3.55,3.60,3.61
70.77,8.94,5.37,8.95,5.38,-5.37,-5.24,-5.34,3.57,3.58,3.57
71.48,8.94,5.41,8.91,5.37,-5.36,-5.24,-5.29,3.58,3.55,3.53
72.19,8.89,5.39,8.85,5.36,-5.35,-5.25,-5.25,3.54,3.50,3.50
72.91,8.73,5.28,8.78,5.33,-5.34,-5.25,-5.21,3.39,3.44,3.45
73.64,8.71,5.30,8.72,5.31,-5.34,-5.25,-5.17,3.37,3.39,3.41
74.38,8.71,5.33,8.70,5.33,-5.33,-5.26,-5.13,3.38,3.37,3.38
75.12,8.70,5.36,8.69,5.35,-5.33,-5.27,-5.09,3.37,3.36,3.34
75.87,8.66,5.36,8.63,5.34,-5.32,-5.28,-5.05,3.34,3.32,3.30
76.63,8.55,5.29,8.57,5.31,-5.31,-5.28,-5.01,3.24,3.26,3.26
77.40,8.49,5.26,8.53,5.30,-5.30,-5.29,-4.98,3.19,3.23,3.23
78.17,8.49,5.30,8.48,5.29,-5.29,-5.30,-4.95,3.20,3.19,3.19
78.95,8.49,5.34,8.43,5.27,-5.27,-5.31,-4.92,3.22,3.16,3.15
79.74,8.32,5.21,8.36,5.25,-5.25,-5.31,-4.89,3.07,3.11,3.11
80.54,8.26,5.18,8.30,5.22,-5.23,-5.32,-4.87,3.04,3.07,3.08
81.35,8.26,5.22,8.25,5.21,-5.21,-5.32,-4.85,3.05,3.03,3.04
82.16,8.24,5.24,8.21,5.21,-5.21,-5.33,-4.83,3.03,3.00,3.00
82.98,8.15,5.20,8.15,5.20,-5.20,-5.33,-4.81,2.95,2.94,2.95
83.81,8.05,5.15,8.08,5.18,-5.20,-5.34,-4.80,2.85,2.87,2.90
84.65,8.03,5.18,8.04,5.19,-5.21,-5.34,-4.80,2.82,2.83,2.85
85.50,8.03,5.23,8.04,5.24,-5.22,-5.34,-4.79,2.81,2.82,2.80
86.35,8.03,5.28,8.00,5.26,-5.23,-5.34,-4.79,2.80,2.78,2.75
87.22,7.98,5.29,7.94,5.25,-5.23,-5.34,-4.79,2.75,2.70,2.69
88.09,7.80,5.16,7.87,5.23,-5.24,-5.33,-4.80,2.56,2.62,2.64
88.97,7.80,5.23,7.82,5.24,-5.25,-5.33,-4.81,2.55,2.57,2.58
89.86,7.80,5.28,7.78,5.25,-5.26,-5.33,-4.82,2.54,2.52,2.52
90.76,7.78,5.32,7.74,5.27,-5.26,-5.32,-4.84,2.52,2.47,2.46
91.66,7.64,5.23,7.66,5.26,-5.26,-5.32,-4.86,2.38,2.40,2.41
92.58,7.57,5.22,7.61,5.26,-5.27,-5.32,-4.88,2.30,2.34,2.35
93.51,7.57,5.28,7.57,5.28,-5.28,-5.31,-4.91,2.29,2.29,2.29
94.44,7.57,5.34,7.53,5.30,-5.29,-5.30,-4.94,2.28,2.24,2.23
95.39,7.48,5.31,7.47,5.29,-5.29,-5.30,-4.97,2.19,2.17,2.17
96.34,7.35,5.23,7.40,5.29,-5.30,-5.29,-5.01,2.05,2.11,2.12
97.30,7.35,5.29,7.36,5.30,-5.30,-5.29,-5.05,2.05,2.06,2.06
98.28,7.35,5.35,7.31,5.31,-5.30,-5.28,-5.09,2.05,2.01,2.00
99.26,7.29,5.35,7.26,5.31,-5.30,-5.28,-5.14,1.99,1.96,1.94
100.25,7.12,5.23,7.19,5.31,-5.30,-5.27,-5.18,1.82,1.89,1.89
101.25,7.12,5.30,7.12,5.29,-5.30,-5.27,-5.23,1.82,1.82,1.82
102.27,7.09,5.33,7.04,5.28,-5.30,-5.27,-5.28,1.79,1.74,1.77
103.29,6.97,5.27,6.99,5.28,-5.29,-5.26,-5.34,1.68,1.69,1.70
104.32,6.89,5.25,6.93,5.29,-5.29,-5.26,-5.39,1.60,1.64,1.64
105.37,6.89,5.30,6.89,5.31,-5.29,-5.26,-5.44,1.60,1.60,1.59
106.42,6.89,5.36,6.84,5.31,-5.30,-5.26,-5.50,1.59,1.55,1.53
107.48,6.79,5.32,6.78,5.31,-5.31,-5.26,-5.55,1.48,1.48,1.47
108.56,6.67,5.24,6.71,5.29,-5.31,-5.26,-5.61,1.36,1.40,1.43
109.64,6.66,5.29,6.66,5.29,-5.32,-5.27,-5.66,1.34,1.34,1.37
110.74,6.66,5.34,6.67,5.34,-5.33,-5.27,-5.71,1.34,1.34,1.33
111.85,6.66,5.38,6.64,5.36,-5.33,-5.28,-5.76,1.33,1.31,1.28
112.97,6.64,5.41,6.58,5.35,-5.33,-5.28,-5.81,1.31,1.25,1.23
114.10,6.43,5.25,6.50,5.32,-5.33,-5.29,-5.85,1.10,1.17,1.18
115.24,6.43,5.31,6.45,5.33,-5.34,-5.30,-5.89,1.09,1.12,1.12
116.39,6.43,5.36,6.40,5.33,-5.34,-5.31,-5.93,1.09,1.06,1.07
117.55,6.42,5.40,6.37,5.35,-5.34,-5.32,-5.96,1.08,1.02,1.02
118.73,6.26,5.30,6.30,5.34,-5.34,-5.34,-5.99,0.92,0.96,0.96
119.92,6.21,5.30,6.24,5.34,-5.34,-5.35,-6.01,0.87,0.90,0.91
121.12,6.21,5.35,6.20,5.35,-5.35,-5.36,-6.03,0.86,0.85,0.86
122.33,6.21,5.42,6.17,5.37,-5.36,-5.38,-6.04,0.85,0.81,0.79
123.55,6.11,5.37,6.10,5.37,-5.36,-5.39,-6.05,0.75,0.74,0.74
124.79,5.99,5.31,6.04,5.36,-5.36,-5.40,-6.05,0.63,0.68,0.68
126.03,5.98,5.36,5.99,5.37,-5.36,-5.42,-6.04,0.62,0.63,0.62
127.29,5.98,5.41,5.95,5.38,-5.37,-5.43,-6.03,0.61,0.58,0.57
128.57,5.93,5.42,5.89,5.38,-5.38,-5.44,-6.01,0.55,0.51,0.51
129.85,5.77,5.31,5.82,5.36,-5.39,-5.45,-5.98,0.38,0.43,0.46
131.15,5.75,5.35,5.76,5.36,-5.39,-5.45,-5.95,0.36,0.37,0.40
132.46,5.75,5.40,5.75,5.40,-5.40,-5.46,-5.92,0.35,0.35,0.35
133.79,5.75,5.45,5.74,5.44,-5.41,-5.46,-5.88,0.35,0.34,0.30
135.12,5.74,5.49,5.69,5.43,-5.41,-5.46,-5.83,0.33,0.28,0.25
136.48,5.58,5.37,5.61,5.41,-5.41,-5.46,-5.78,0.17,0.21,0.21
137.84,5.52,5.36,5.56,5.40,-5.41,-5.45,-5.73,0.11,0.15,0.16
139.22,5.52,5.41,5.51,5.40,-5.41,-5.45,-5.67,0.11,0.10,0.11
140.61,5.52,5.45,5.48,5.41,-5.40,-5.44,-5.61,0.12,0.08,0.07
142.02,5.41,5.38,5.42,5.39,-5.39,-5.43,-5.55,0.02,0.03,0.03
143.44,5.32,5.34,5.35,5.37,-5.37,-5.41,-5.49,-0.05,-0.02,-0.01
144.87,5.29,5.36,5.30,5.36,-5.37,-5.40,-5.43,-0.08,-0.06,-0.07
146.32,5.29,5.40,5.27,5.37,-5.36,-5.39,-5.36,-0.07,-0.10,-0.10
147.78,5.24,5.38,5.21,5.36,-5.36,-5.37,-5.30,-0.12,-0.14,-0.14
149.26,5.13,5.31,5.15,5.33,-5.35,-5.36,-5.23,-0.22,-0.20,-0.18
150.75,5.07,5.29,5.10,5.32,-5.33,-5.34,-5.17,-0.26,-0.23,-0.22
152.26,5.07,5.33,5.08,5.34,-5.32,-5.32,-5.10,-0.24,-0.24,-0.26
153.78,5.07,5.37,5.04,5.34,-5.31,-5.31,-5.04,-0.24,-0.26,-0.30
155.32,5.02,5.36,4.98,5.31,-5.30,-5.29,-4.98,-0.28,-0.32,-0.34
156.88,4.86,5.22,4.91,5.27,-5.30,-5.28,-4.92,-0.44,-0.39,-0.36
158.44,4.84,5.23,4.85,5.24,-5.30,-5.26,-4.87,-0.46,-0.45,-0.39
160.03,4.84,5.27,4.83,5.25,-5.29,-5.25,-4.81,-0.45,-0.47,-0.42
161.63,4.84,5.30,4.86,5.31,-5.28,-5.23,-4.76,-0.44,-0.43,-0.46
163.24,4.84,5.33,4.84,5.32,-5.27,-5.22,-4.71,-0.43,-0.44,-0.49
164.88,4.84,5.36,4.78,5.29,-5.26,-5.20,-4.67,-0.42,-0.48,-0.52
166.53,4.66,5.21,4.70,5.25,-5.25,-5.19,-4.62,-0.58,-0.54,-0.55
168.19,4.61,5.17,4.65,5.22,-5.23,-5.18,-4.59,-0.62,-0.58,-0.56
169.87,4.61,5.20,4.60,5.19,-5.20,-5.16,-4.55,-0.59,-0.61,-0.59
171.57,4.61,5.23,4.55,5.17,-5.17,-5.15,-4.52,-0.56,-0.62,-0.62
173.29,4.47,5.12,4.49,5.13,-5.14,-5.13,-4.48,-0.67,-0.65,-0.64
175.02,4.38,5.05,4.42,5.09,-5.11,-5.12,-4.46,-0.73,-0.68,-0.67
176.77,4.38,5.08,4.38,5.07,-5.08,-5.10,-4.43,-0.70,-0.71,-0.69
178.54,4.38,5.10,4.35,5.07,-5.06,-5.08,-4.42,-0.68,-0.72,-0.72
180.32,4.31,5.06,4.30,5.05,-5.04,-5.06,-4.40,-0.73,-0.74,-0.75
182.13,4.21,4.99,4.23,5.01,-5.01,-5.04,-4.39,-0.80,-0.78,-0.77
183.95,4.16,4.97,4.19,5.00,-4.98,-5.02,-4.37,-0.82,-0.79,-0.81
185.79,4.16,4.99,4.15,4.98,-4.96,-5.00,-4.37,-0.80,-0.81,-0.83
187.65,4.16,5.01,4.09,4.95,-4.94,-4.97,-4.36,-0.78,-0.84,-0.85
189.52,3.98,4.86,4.02,4.90,-4.92,-4.95,-4.36,-0.94,-0.90,-0.88
191.42,3.93,4.83,3.96,4.85,-4.90,-4.92,-4.37,-0.97,-0.94,-0.90
193.33,3.93,4.85,3.92,4.84,-4.87,-4.89,-4.37,-0.94,-0.96,-0.92
195.27,3.93,4.87,3.94,4.87,-4.85,-4.86,-4.38,-0.92,-0.91,-0.94
197.22,3.93,4.88,3.93,4.88,-4.83,-4.83,-4.39,-0.90,-0.90,-0.95
199.19,3.92,4.88,3.88,4.84,-4.81,-4.80,-4.40,-0.89,-0.93,-0.96
201.18,3.79,4.77,3.80,4.78,-4.79,-4.77,-4.42,-1.00,-0.98,-0.98
203.19,3.70,4.69,3.74,4.72,-4.76,-4.74,-4.43,-1.06,-1.03,-0.99
205.23,3.70,4.70,3.71,4.71,-4.73,-4.71,-4.45,-1.03,-1.03,-1.00
207.28,3.70,4.71,3.69,4.71,-4.70,-4.68,-4.47,-1.00,-1.00,-1.01
209.35,3.70,4.73,3.65,4.68,-4.66,-4.65,-4.49,-0.96,-1.00,-1.03
211.44,3.57,4.61,3.58,4.63,-4.62,-4.62,-4.51,-1.05,-1.03,-1.04
213.56,3.48,4.54,3.52,4.58,-4.58,-4.60,-4.53,-1.10,-1.05,-1.06
215.69,3.47,4.54,3.47,4.54,-4.54,-4.57,-4.56,-1.07,-1.07,-1.07
217.85,3.47,4.55,3.43,4.51,-4.51,-4.55,-4.58,-1.04,-1.08,-1.08
220.03,3.38,4.48,3.37,4.47,-4.47,-4.53,-4.60,-1.09,-1.10,-1.09
222.23,3.28,4.40,3.31,4.42,-4.44,-4.50,-4.62,-1.16,-1.14,-1.12
224.45,3.24,4.37,3.25,4.38,-4.42,-4.48,-4.64,-1.18,-1.17,-1.13
226.70,3.24,4.38,3.24,4.37,-4.39,-4.46,-4.65,-1.15,-1.16,-1.14
228.96,3.24,4.39,3.25,4.40,-4.37,-4.44,-4.66,-1.13,-1.12,-1.15
231.25,3.24,4.40,3.22,4.39,-4.35,-4.42,-4.67,-1.11,-1.12,-1.16
233.57,3.21,4.39,3.16,4.34,-4.32,-4.39,-4.68,-1.11,-1.16,-1.18
235.90,3.03,4.22,3.09,4.28,-4.29,-4.37,-4.69,-1.25,-1.20,-1.19
238.26,3.02,4.22,3.04,4.25,-4.25,-4.34,-4.69,-1.23,-1.20,-1.20
240.64,3.02,4.24,3.00,4.21,-4.21,-4.31,-4.68,-1.19,-1.21,-1.22
243.05,3.01,4.24,2.96,4.18,-4.17,-4.28,-4.68,-1.16,-1.22,-1.23
245.48,2.85,4.09,2.88,4.12,-4.14,-4.25,-4.66,-1.28,-1.25,-1.24
247.93,2.79,4.03,2.82,4.06,-4.10,-4.22,-4.64,-1.31,-1.29,-1.24
250.41,2.79,4.04,2.78,4.03,-4.07,-4.18,-4.62,-1.28,-1.29,-1.25
252.92,2.79,4.05,2.80,4.06,-4.04,-4.14,-4.59,-1.25,-1.24,-1.26
255.45,2.79,4.06,2.79,4.06,-4.01,-4.10,-4.56,-1.22,-1.22,-1.27
258.00,2.79,4.06,2.74,4.01,-3.98,-4.06,-4.53,-1.19,-1.24,-1.27
260.58,2.65,3.93,2.67,3.95,-3.96,-4.01,-4.48,-1.31,-1.29,-1.28
263.19,2.57,3.86,2.60,3.89,-3.93,-3.97,-4.44,-1.36,-1.33,-1.29
265.82,2.56,3.86,2.56,3.86,-3.89,-3.92,-4.39,-1.33,-1.33,-1.30
268.48,2.56,3.87,2.56,3.87,-3.85,-3.87,-4.33,-1.28,-1.28,-1.31
271.16,2.56,3.88,2.53,3.84,-3.80,-3.82,-4.27,-1.24,-1.28,-1.32
273.87,2.48,3.79,2.46,3.78,-3.77,-3.77,-4.21,-1.29,-1.31,-1.31
276.61,2.35,3.67,2.39,3.71,-3.74,-3.72,-4.15,-1.39,-1.35,-1.32
279.38,2.33,3.65,2.34,3.66,-3.70,-3.67,-4.08,-1.37,-1.37,-1.32
282.17,2.33,3.66,2.33,3.65,-3.67,-3.62,-4.01,-1.34,-1.34,-1.33
284.99,2.33,3.65,2.34,3.66,-3.63,-3.56,-3.94,-1.30,-1.29,-1.32
287.84,2.33,3.66,2.30,3.63,-3.59,-3.51,-3.86,-1.26,-1.29,-1.33
290.72,2.26,3.59,2.24,3.57,-3.55,-3.45,-3.79,-1.29,-1.31,-1.33
293.63,2.12,3.46,2.16,3.50,-3.51,-3.40,-3.71,-1.38,-1.34,-1.34
296.57,2.10,3.43,2.13,3.46,-3.46,-3.34,-3.64,-1.36,-1.33,-1.33
299.53,2.10,3.43,2.08,3.42,-3.41,-3.29,-3.56,-1.31,-1.33,-1.33
302.53,2.10,3.44,2.03,3.37,-3.37,-3.23,-3.48,-1.27,-1.33,-1.34
305.55,1.91,3.25,1.96,3.30,-3.32,-3.18,-3.41,-1.41,-1.36,-1.34
308.61,1.88,3.23,1.90,3.24,-3.28,-3.12,-3.33,-1.40,-1.38,-1.34
311.69,1.88,3.22,1.87,3.21,-3.25,-3.07,-3.26,-1.37,-1.38,-1.34
314.81,1.88,3.22,1.89,3.24,-3.21,-3.01,-3.18,-1.33,-1.32,-1.34
317.96,1.88,3.23,1.87,3.22,-3.18,-2.96,-3.11,-1.29,-1.30,-1.35
321.14,1.87,3.22,1.82,3.16,-3.14,-2.91,-3.03,-1.27,-1.32,-1.35
324.35,1.70,3.05,1.74,3.09,-3.09,-2.85,-2.96,-1.39,-1.35,-1.35
327.59,1.65,3.00,1.69,3.04,-3.05,-2.80,-2.89,-1.40,-1.36,-1.35
330.87,1.65,3.01,1.64,3.00,-3.00,-2.75,-2.83,-1.35,-1.36,-1.36
334.18,1.65,3.01,1.60,2.96,-2.95,-2.69,-2.76,-1.30,-1.35,-1.36
337.52,1.52,2.88,1.54,2.90,-2.90,-2.64,-2.70,-1.38,-1.36,-1.36
340.90,1.44,2.80,1.47,2.82,-2.86,-2.59,-2.63,-1.42,-1.39,-1.35
344.30,1.42,2.78,1.42,2.77,-2.81,-2.54,-2.57,-1.39,-1.40,-1.36
347.75,1.42,2.77,1.42,2.78,-2.77,-2.49,-2.51,-1.35,-1.35,-1.35
351.23,1.42,2.77,1.42,2.77,-2.74,-2.44,-2.45,-1.32,-1.31,-1.35
354.74,1.42,2.77,1.38,2.74,-2.70,-2.39,-2.40,-1.28,-1.32,-1.35
358.28,1.31,2.67,1.32,2.67,-2.67,-2.34,-2.34,-1.36,-1.35,-1.36
361.87,1.22,2.58,1.25,2.60,-2.63,-2.30,-2.29,-1.41,-1.38,-1.36
365.49,1.19,2.55,1.20,2.56,-2.59,-2.25,-2.24,-1.40,-1.39,-1.36
369.14,1.19,2.55,1.20,2.56,-2.54,-2.20,-2.19,-1.35,-1.35,-1.36
372.83,1.19,2.55,1.17,2.53,-2.50,-2.16,-2.15,-1.31,-1.33,-1.36
376.56,1.14,2.51,1.11,2.47,-2.46,-2.11,-2.10,-1.32,-1.35,-1.37
380.33,0.99,2.36,1.03,2.40,-2.42,-2.07,-2.06,-1.43,-1.39,-1.37
384.13,0.96,2.33,0.97,2.35,-2.39,-2.03,-2.02,-1.43,-1.42,-1.37
387.97,0.96,2.34,0.95,2.33,-2.35,-1.99,-1.98,-1.39,-1.40,-1.38
391.85,0.96,2.34,0.97,2.35,-2.32,-1.94,-1.94,-1.36,-1.35,-1.38
395.77,0.96,2.34,0.94,2.33,-2.28,-1.90,-1.90,-1.32,-1.34,-1.38
399.73,0.90,2.30,0.88,2.27,-2.25,-1.86,-1.86,-1.35,-1.37,-1.39
403.72,0.78,2.18,0.81,2.21,-2.23,-1.82,-1.83,-1.45,-1.42,-1.40
407.76,0.74,2.14,0.75,2.15,-2.20,-1.78,-1.80,-1.46,-1.44,-1.40
411.84,0.74,2.14,0.73,2.13,-2.16,-1.74,-1.76,-1.42,-1.42,-1.40
415.96,0.74,2.13,0.75,2.14,-2.11,-1.71,-1.73,-1.37,-1.36,-1.39
420.12,0.74,2.13,0.73,2.12,-2.07,-1.67,-1.70,-1.33,-1.34,-1.39
424.32,0.72,2.10,0.67,2.06,-2.04,-1.63,-1.67,-1.32,-1.36,-1.38
428.56,0.57,1.95,0.60,1.99,-2.00,-1.60,-1.65,-1.43,-1.40,-1.38
432.85,0.51,1.90,0.54,1.92,-1.97,-1.56,-1.62,-1.46,-1.43,-1.38
437.18,0.51,1.90,0.50,1.88,-1.92,-1.53,-1.59,-1.41,-1.42,-1.39
441.55,0.51,1.89,0.52,1.90,-1.87,-1.49,-1.57,-1.36,-1.35,-1.38
445.96,0.51,1.89,0.51,1.88,-1.83,-1.46,-1.54,-1.32,-1.32,-1.38
450.42,0.51,1.88,0.45,1.82,-1.79,-1.42,-1.52,-1.28,-1.34,-1.37
454.93,0.33,1.70,0.37,1.74,-1.76,-1.39,-1.49,-1.43,-1.38,-1.37
459.48,0.28,1.65,0.31,1.67,-1.72,-1.36,-1.47,-1.44,-1.42,-1.37
464.07,0.28,1.64,0.27,1.63,-1.68,-1.33,-1.44,-1.40,-1.41,-1.36
468.71,0.28,1.64,0.29,1.65,-1.63,-1.30,-1.42,-1.35,-1.34,-1.36
473.40,0.28,1.64,0.28,1.64,-1.58,-1.27,-1.39,-1.30,-1.30,-1.36
478.13,0.28,1.63,0.22,1.58,-1.54,-1.24,-1.37,-1.26,-1.32,-1.35
482.91,0.10,1.45,0.14,1.49,-1.51,-1.21,-1.34,-1.41,-1.36,-1.35
487.74,0.05,1.40,0.08,1.42,-1.47,-1.18,-1.32,-1.42,-1.39,-1.34
492.62,0.05,1.39,0.04,1.38,-1.43,-1.15,-1.30,-1.37,-1.39,-1.34
497.55,0.05,1.39,0.06,1.39,-1.37,-1.13,-1.27,-1.32,-1.31,-1.34
