frequency,raw,error,smoothed,error_smoothed,equalization,parametric_eq,fixed_band_eq,equalized_raw,equalized_smoothed,target
20.00,9.09,7.50,9.09,7.50,-7.51,-7.04,-3.32,1.58,1.58,1.59
20.20,9.08,7.49,9.08,7.50,-7.50,-7.05,-3.41,1.58,1.59,1.59
20.40,9.07,7.49,9.07,7.49,-7.48,-7.05,-3.50,1.59,1.59,1.58
20.61,9.05,7.47,9.06,7.48,-7.47,-7.05,-3.60,1.58,1.58,1.58
20.81,9.04,7.47,9.04,7.47,-7.46,-7.05,-3.70,1.58,1.58,1.57
21.02,9.02,7.45,9.02,7.45,-7.45,-7.05,-3.80,1.57,1.57,1.57
21.23,8.99,7.43,9.00,7.44,-7.44,-7.05,-3.91,1.55,1.56,1.56
21.44,8.98,7.42,8.98,7.42,-7.43,-7.05,-4.02,1.55,1.55,1.56
21.66,8.96,7.41,8.96,7.41,-7.42,-7.05,-4.13,1.55,1.55,1.55
21.87,8.95,7.40,8.95,7.41,-7.40,-7.05,-4.25,1.55,1.55,1.55
22.09,8.94,7.40,8.94,7.39,-7.39,-7.05,-4.36,1.55,1.54,1.54
22.31,8.92,7.38,8.92,7.39,-7.39,-7.05,-4.49,1.54,1.54,1.54
22.54,8.91,7.37,8.91,7.38,-7.38,-7.06,-4.61,1.53,1.53,1.54
22.76,8.90,7.37,8.90,7.37,-7.37,-7.06,-4.74,1.53,1.53,1.53
22.99,8.89,7.36,8.89,7.36,-7.36,-7.06,-4.87,1.53,1.53,1.53
23.22,8.88,7.36,8.88,7.36,-7.35,-7.06,-5.00,1.53,1.52,1.52
23.45,8.86,7.34,8.86,7.35,-7.35,-7.06,-5.14,1.52,1.52,1.52
23.69,8.85,7.33,8.85,7.34,-7.34,-7.06,-5.28,1.52,1.52,1.52
23.92,8.84,7.33,8.84,7.33,-7.33,-7.06,-5.42,1.52,1.51,1.51
24.16,8.83,7.32,8.83,7.32,-7.32,-7.06,-5.57,1.52,1.51,1.51
24.40,8.81,7.30,8.81,7.30,-7.30,-7.06,-5.72,1.51,1.51,1.51
24.65,8.79,7.28,8.80,7.29,-7.29,-7.06,-5.87,1.50,1.50,1.51
24.89,8.78,7.28,8.78,7.28,-7.28,-7.07,-6.02,1.50,1.50,1.50
25.14,8.77,7.27,8.77,7.27,-7.27,-7.07,-6.18,1.50,1.50,1.50
25.39,8.76,7.26,8.76,7.26,-7.26,-7.07,-6.33,1.50,1.50,1.50
25.65,8.75,7.25,8.75,7.25,-7.25,-7.07,-6.49,1.50,1.50,1.50
25.91,8.74,7.24,8.74,7.24,-7.24,-7.07,-6.65,1.50,1.50,1.50
26.16,8.72,7.22,8.72,7.23,-7.23,-7.07,-6.81,1.49,1.50,1.50
26.43,8.71,7.21,8.71,7.22,-7.22,-7.07,-6.97,1.49,1.49,1.50
26.69,8.70,7.21,8.70,7.21,-7.21,-7.07,-7.13,1.49,1.49,1.49
26.96,8.69,7.20,8.69,7.20,-7.20,-7.07,-7.29,1.49,1.49,1.49
27.23,8.68,7.19,8.68,7.19,-7.19,-7.07,-7.44,1.49,1.49,1.49
27.50,8.67,7.18,8.67,7.18,-7.19,-7.08,-7.59,1.48,1.49,1.49
27.77,8.66,7.17,8.66,7.18,-7.18,-7.08,-7.74,1.48,1.48,1.49
28.05,8.66,7.18,8.66,7.18,-7.18,-7.08,-7.89,1.48,1.48,1.48
28.33,8.65,7.17,8.65,7.17,-7.17,-7.08,-8.02,1.48,1.48,1.48
28.62,8.65,7.17,8.65,7.17,-7.17,-7.08,-8.15,1.48,1.48,1.48
28.90,8.63,7.16,8.64,7.16,-7.16,-7.08,-8.27,1.47,1.47,1.47
29.19,8.63,7.16,8.63,7.16,-7.16,-7.08,-8.39,1.47,1.47,1.47
29.48,8.62,7.15,8.62,7.16,-7.16,-7.08,-8.49,1.47,1.46,1.47
29.78,8.61,7.15,8.61,7.15,-7.15,-7.08,-8.59,1.46,1.46,1.46
30.08,8.60,7.14,8.60,7.14,-7.14,-7.08,-8.67,1.46,1.46,1.46
30.38,8.59,7.13,8.59,7.13,-7.13,-7.09,-8.74,1.46,1.46,1.46
30.68,8.58,7.12,8.58,7.12,-7.12,-7.09,-8.80,1.46,1.46,1.46
30.99,8.57,7.11,8.57,7.11,-7.11,-7.09,-8.84,1.46,1.46,1.46
31.30,8.56,7.10,8.56,7.10,-7.10,-7.09,-8.87,1.46,1.46,1.46
31.61,8.55,7.08,8.55,7.09,-7.09,-7.09,-8.89,1.46,1.46,1.47
31.93,8.54,7.07,8.54,7.07,-7.08,-7.09,-8.89,1.46,1.46,1.47
32.24,8.53,7.06,8.53,7.07,-7.07,-7.09,-8.89,1.46,1.47,1.47
32.57,8.53,7.06,8.53,7.06,-7.06,-7.09,-8.86,1.47,1.47,1.47
32.89,8.52,7.05,8.52,7.05,-7.05,-7.09,-8.83,1.47,1.47,1.47
33.22,8.51,7.04,8.51,7.04,-7.04,-7.09,-8.79,1.47,1.47,1.47
33.55,8.50,7.03,8.50,7.04,-7.04,-7.09,-8.74,1.46,1.47,1.47
33.89,8.50,7.03,8.50,7.03,-7.03,-7.09,-8.67,1.47,1.46,1.47
34.23,8.49,7.03,8.49,7.03,-7.03,-7.09,-8.60,1.46,1.46,1.46
34.57,8.48,7.02,8.48,7.03,-7.03,-7.09,-8.52,1.45,1.46,1.46
34.92,8.47,7.02,8.47,7.03,-7.03,-7.09,-8.44,1.45,1.45,1.45
35.27,8.47,7.03,8.47,7.03,-7.03,-7.09,-8.35,1.45,1.44,1.44
35.62,8.46,7.03,8.46,7.03,-7.03,-7.09,-8.26,1.43,1.43,1.43
35.97,8.45,7.02,8.45,7.03,-7.03,-7.09,-8.16,1.42,1.42,1.43
36.33,8.44,7.02,8.44,7.03,-7.03,-7.09,-8.07,1.41,1.41,1.42
36.70,8.44,7.04,8.44,7.03,-7.04,-7.09,-7.97,1.40,1.40,1.40
37.06,8.43,7.04,8.43,7.04,-7.04,-7.09,-7.87,1.39,1.39,1.39
37.43,8.42,7.04,8.43,7.05,-7.04,-7.09,-7.77,1.38,1.38,1.38
37.81,8.42,7.05,8.42,7.05,-7.05,-7.09,-7.67,1.38,1.37,1.37
38.19,8.41,7.05,8.41,7.05,-7.05,-7.09,-7.58,1.36,1.36,1.36
38.57,8.40,7.04,8.40,7.05,-7.05,-7.09,-7.48,1.36,1.36,1.36
38.95,8.39,7.04,8.39,7.04,-7.04,-7.09,-7.39,1.35,1.35,1.35
39.34,8.38,7.04,8.38,7.04,-7.04,-7.09,-7.30,1.34,1.34,1.34
39.74,8.37,7.03,8.37,7.04,-7.03,-7.09,-7.22,1.34,1.34,1.34
40.14,8.36,7.03,8.36,7.03,-7.03,-7.09,-7.13,1.33,1.33,1.33
40.54,8.34,7.01,8.35,7.02,-7.02,-7.09,-7.06,1.32,1.33,1.33
40.94,8.34,7.01,8.34,7.01,-7.01,-7.09,-6.98,1.33,1.33,1.33
41.35,8.33,7.00,8.33,7.00,-7.01,-7.09,-6.91,1.32,1.33,1.33
41.76,8.33,7.00,8.33,7.00,-7.00,-7.09,-6.85,1.33,1.33,1.33
42.18,8.32,6.99,8.32,6.99,-6.99,-7.08,-6.79,1.33,1.33,1.33
42.60,8.31,6.98,8.32,6.99,-6.99,-7.08,-6.73,1.33,1.33,1.33
43.03,8.31,6.98,8.31,6.98,-6.98,-7.08,-6.68,1.33,1.33,1.33
43.46,8.30,6.97,8.30,6.97,-6.97,-7.08,-6.64,1.33,1.33,1.33
43.90,8.29,6.96,8.29,6.96,-6.96,-7.08,-6.60,1.33,1.33,1.33
44.33,8.28,6.94,8.28,6.95,-6.95,-7.07,-6.56,1.33,1.34,1.34
44.78,8.27,6.93,8.27,6.93,-6.93,-7.07,-6.53,1.34,1.34,1.34
45.23,8.26,6.92,8.26,6.92,-6.92,-7.07,-6.50,1.34,1.34,1.34
45.68,8.25,6.90,8.25,6.91,-6.91,-7.07,-6.48,1.34,1.34,1.35
46.13,8.25,6.90,8.25,6.90,-6.90,-7.06,-6.47,1.35,1.35,1.35
46.60,8.23,6.88,8.24,6.89,-6.89,-7.06,-6.46,1.35,1.35,1.35
47.06,8.23,6.88,8.23,6.88,-6.88,-7.06,-6.45,1.36,1.35,1.35
47.53,8.21,6.86,8.21,6.87,-6.87,-7.05,-6.45,1.34,1.35,1.35
48.01,8.20,6.85,8.20,6.86,-6.86,-7.05,-6.45,1.34,1.34,1.35
48.49,8.19,6.85,8.19,6.85,-6.85,-7.04,-6.45,1.34,1.34,1.34
48.97,8.18,6.84,8.18,6.84,-6.84,-7.04,-6.46,1.34,1.34,1.34
49.46,8.17,6.83,8.17,6.84,-6.83,-7.03,-6.48,1.34,1.34,1.34
49.96,8.16,6.83,8.16,6.83,-6.83,-7.03,-6.49,1.34,1.33,1.33
50.46,8.14,6.81,8.14,6.82,-6.82,-7.02,-6.51,1.32,1.33,1.33
50.96,8.13,6.81,8.13,6.81,-6.81,-7.02,-6.53,1.32,1.32,1.32
51.47,8.12,6.80,8.12,6.80,-6.81,-7.01,-6.56,1.31,1.31,1.32
51.99,8.11,6.80,8.11,6.80,-6.80,-7.00,-6.59,1.31,1.31,1.31
52.51,8.10,6.79,8.10,6.79,-6.79,-7.00,-6.62,1.31,1.31,1.31
53.03,8.09,6.78,8.09,6.79,-6.78,-6.99,-6.65,1.31,1.31,1.31
53.56,8.07,6.77,8.08,6.78,-6.77,-6.98,-6.68,1.30,1.30,1.30
54.10,8.07,6.77,8.07,6.77,-6.76,-6.97,-6.71,1.31,1.30,1.30
54.64,8.05,6.75,8.05,6.75,-6.75,-6.96,-6.75,1.30,1.30,1.30
55.18,8.04,6.74,8.04,6.74,-6.74,-6.96,-6.78,1.30,1.30,1.30
55.74,8.02,6.71,8.02,6.72,-6.72,-6.95,-6.81,1.30,1.30,1.31
56.29,8.01,6.70,8.01,6.70,-6.71,-6.94,-6.84,1.30,1.30,1.31
56.86,8.00,6.69,8.00,6.69,-6.70,-6.93,-6.87,1.31,1.30,1.31
57.42,7.99,6.68,7.99,6.68,-6.68,-6.92,-6.89,1.31,1.31,1.31
58.00,7.98,6.67,7.98,6.67,-6.67,-6.90,-6.92,1.31,1.31,1.31
58.58,7.97,6.66,7.97,6.66,-6.66,-6.89,-6.93,1.32,1.31,1.31
59.16,7.95,6.64,7.95,6.64,-6.64,-6.88,-6.95,1.31,1.31,1.31
59.76,7.94,6.63,7.94,6.63,-6.63,-6.87,-6.96,1.31,1.31,1.31
60.35,7.92,6.61,7.92,6.62,-6.62,-6.86,-6.96,1.30,1.30,1.31
60.96,7.91,6.61,7.91,6.61,-6.61,-6.84,-6.96,1.30,1.30,1.30
61.57,7.90,6.60,7.90,6.60,-6.60,-6.83,-6.96,1.30,1.30,1.30
62.18,7.88,6.58,7.88,6.59,-6.59,-6.81,-6.95,1.29,1.30,1.30
62.80,7.87,6.58,7.87,6.58,-6.58,-6.80,-6.93,1.29,1.29,1.29
63.43,7.85,6.56,7.86,6.57,-6.57,-6.78,-6.91,1.28,1.29,1.29
64.07,7.84,6.56,7.84,6.56,-6.56,-6.77,-6.88,1.29,1.28,1.28
64.71,7.83,6.55,7.82,6.54,-6.54,-6.75,-6.85,1.29,1.28,1.28
65.35,7.80,6.52,7.81,6.53,-6.53,-6.73,-6.81,1.27,1.28,1.28
66.01,7.79,6.51,7.79,6.51,-6.51,-6.71,-6.77,1.28,1.28,1.28
66.67,7.78,6.50,7.78,6.50,-6.50,-6.70,-6.72,1.28,1.28,1.28
67.33,7.76,6.48,7.76,6.48,-6.48,-6.68,-6.67,1.28,1.28,1.28
68.01,7.74,6.46,7.75,6.47,-6.47,-6.66,-6.61,1.27,1.28,1.28
68.69,7.73,6.45,7.73,6.45,-6.45,-6.64,-6.55,1.28,1.28,1.28
69.37,7.71,6.43,7.71,6.43,-6.44,-6.62,-6.49,1.28,1.28,1.28
70.07,7.69,6.41,7.70,6.42,-6.42,-6.59,-6.42,1.27,1.28,1.28
70.77,7.68,6.40,7.68,6.40,-6.40,-6.57,-6.36,1.28,1.28,1.28
71.48,7.66,6.39,7.66,6.39,-6.39,-6.55,-6.29,1.28,1.28,1.27
72.19,7.64,6.37,7.64,6.37,-6.37,-6.53,-6.22,1.27,1.27,1.27
72.91,7.62,6.35,7.62,6.35,-6.35,-6.50,-6.15,1.27,1.27,1.27
73.64,7.60,6.33,7.60,6.33,-6.33,-6.48,-6.08,1.27,1.27,1.27
74.38,7.58,6.30,7.58,6.31,-6.31,-6.45,-6.02,1.27,1.27,1.28
75.12,7.57,6.29,7.57,6.29,-6.29,-6.43,-5.95,1.28,1.28,1.28
75.87,7.55,6.27,7.55,6.27,-6.27,-6.40,-5.88,1.28,1.28,1.28
76.63,7.53,6.25,7.53,6.25,-6.25,-6.37,-5.82,1.28,1.28,1.28
77.40,7.51,6.23,7.51,6.23,-6.23,-6.35,-5.76,1.28,1.28,1.28
78.17,7.49,6.21,7.49,6.21,-6.21,-6.32,-5.70,1.28,1.28,1.28
78.95,7.47,6.19,7.47,6.19,-6.19,-6.29,-5.64,1.28,1.28,1.28
79.74,7.45,6.17,7.45,6.17,-6.17,-6.26,-5.58,1.28,1.28,1.28
80.54,7.43,6.15,7.43,6.15,-6.15,-6.23,-5.53,1.28,1.28,1.28
81.35,7.41,6.12,7.41,6.13,-6.13,-6.20,-5.48,1.29,1.28,1.29
82.16,7.39,6.10,7.39,6.10,-6.10,-6.17,-5.44,1.29,1.29,1.29
82.98,7.36,6.07,7.37,6.08,-6.08,-6.14,-5.40,1.28,1.29,1.29
83.81,7.35,6.05,7.35,6.05,-6.05,-6.11,-5.36,1.30,1.30,1.30
84.65,7.33,6.03,7.33,6.03,-6.03,-6.08,-5.33,1.30,1.30,1.30
85.50,7.30,6.00,7.31,6.00,-6.00,-6.04,-5.30,1.30,1.30,1.30
86.35,7.28,5.97,7.28,5.97,-5.97,-6.01,-5.27,1.31,1.30,1.31
87.22,7.25,5.94,7.25,5.95,-5.95,-5.98,-5.25,1.30,1.31,1.31
88.09,7.23,5.92,7.23,5.92,-5.92,-5.95,-5.23,1.31,1.31,1.31
88.97,7.21,5.89,7.21,5.89,-5.89,-5.91,-5.21,1.32,1.32,1.32
89.86,7.19,5.87,7.19,5.87,-5.87,-5.88,-5.20,1.33,1.32,1.32
90.76,7.16,5.83,7.16,5.84,-5.84,-5.85,-5.20,1.32,1.33,1.33
91.66,7.14,5.81,7.14,5.81,-5.81,-5.81,-5.19,1.33,1.33,1.33
92.58,7.11,5.78,7.11,5.78,-5.78,-5.78,-5.19,1.33,1.33,1.33
93.51,7.09,5.75,7.09,5.76,-5.76,-5.74,-5.20,1.33,1.33,1.34
94.44,7.07,5.73,7.07,5.73,-5.73,-5.71,-5.21,1.34,1.34,1.34
95.39,7.04,5.70,7.04,5.70,-5.71,-5.67,-5.22,1.34,1.34,1.34
96.34,7.02,5.68,7.02,5.68,-5.68,-5.64,-5.23,1.34,1.34,1.34
97.30,6.99,5.65,6.99,5.66,-5.66,-5.61,-5.25,1.33,1.34,1.34
98.28,6.97,5.63,6.97,5.63,-5.63,-5.57,-5.27,1.34,1.34,1.34
99.26,6.94,5.61,6.94,5.61,-5.61,-5.54,-5.29,1.33,1.33,1.33
100.25,6.92,5.59,6.92,5.59,-5.59,-5.50,-5.32,1.34,1.33,1.33
101.25,6.88,5.55,6.89,5.56,-5.56,-5.47,-5.35,1.32,1.33,1.33
102.27,6.86,5.54,6.86,5.54,-5.54,-5.44,-5.38,1.32,1.32,1.32
103.29,6.83,5.51,6.83,5.51,-5.51,-5.40,-5.41,1.32,1.31,1.32
104.32,6.80,5.49,6.80,5.49,-5.49,-5.37,-5.44,1.31,1.31,1.31
105.37,6.77,5.46,6.77,5.46,-5.46,-5.34,-5.48,1.31,1.31,1.31
106.42,6.75,5.44,6.75,5.44,-5.44,-5.30,-5.51,1.31,1.31,1.31
107.48,6.72,5.41,6.72,5.42,-5.41,-5.27,-5.55,1.31,1.31,1.31
108.56,6.69,5.39,6.69,5.39,-5.39,-5.24,-5.58,1.30,1.30,1.30
109.64,6.66,5.36,6.66,5.36,-5.36,-5.21,-5.62,1.30,1.30,1.30
110.74,6.63,5.33,6.63,5.34,-5.34,-5.18,-5.65,1.29,1.30,1.30
111.85,6.61,5.32,6.61,5.32,-5.32,-5.15,-5.68,1.30,1.29,1.29
112.97,6.58,5.29,6.58,5.29,-5.29,-5.12,-5.71,1.29,1.29,1.29
114.10,6.55,5.27,6.55,5.27,-5.27,-5.09,-5.74,1.28,1.28,1.28
115.24,6.51,5.23,6.52,5.25,-5.25,-5.06,-5.76,1.26,1.27,1.28
116.39,6.49,5.23,6.49,5.23,-5.23,-5.03,-5.78,1.27,1.26,1.26
117.55,6.46,5.21,6.46,5.21,-5.21,-5.00,-5.80,1.25,1.25,1.25
118.73,6.42,5.18,6.43,5.19,-5.19,-4.97,-5.81,1.23,1.24,1.24
119.92,6.39,5.17,6.39,5.17,-5.17,-4.94,-5.81,1.22,1.22,1.22
121.12,6.35,5.15,6.35,5.15,-5.16,-4.92,-5.82,1.19,1.20,1.20
122.33,6.32,5.14,6.32,5.14,-5.15,-4.89,-5.81,1.18,1.18,1.18
123.55,6.29,5.13,6.29,5.13,-5.14,-4.86,-5.80,1.16,1.15,1.16
124.79,6.26,5.12,6.26,5.12,-5.12,-4.84,-5.78,1.14,1.13,1.14
126.03,6.22,5.11,6.23,5.11,-5.11,-4.81,-5.76,1.11,1.11,1.11
127.29,6.19,5.10,6.19,5.10,-5.10,-4.79,-5.73,1.09,1.09,1.09
128.57,6.16,5.09,6.16,5.09,-5.08,-4.77,-5.70,1.08,1.07,1.07
129.85,6.12,5.07,6.12,5.07,-5.07,-4.74,-5.66,1.06,1.06,1.05
131.15,6.09,5.05,6.09,5.05,-5.05,-4.72,-5.62,1.05,1.04,1.04
132.46,6.04,5.01,6.05,5.02,-5.02,-4.70,-5.56,1.02,1.02,1.03
133.79,6.01,4.99,6.01,4.99,-4.99,-4.68,-5.51,1.02,1.02,1.02
135.12,5.97,4.96,5.97,4.96,-4.97,-4.65,-5.45,1.01,1.01,1.01
136.48,5.94,4.93,5.94,4.94,-4.93,-4.63,-5.39,1.01,1.01,1.01
137.84,5.90,4.90,5.90,4.90,-4.90,-4.61,-5.32,1.00,1.00,1.00
139.22,5.87,4.87,5.87,4.87,-4.86,-4.59,-5.25,1.01,1.00,1.00
140.61,5.82,4.82,5.83,4.83,-4.83,-4.57,-5.17,0.99,1.00,1.00
142.02,5.79,4.79,5.79,4.79,-4.79,-4.55,-5.10,1.00,1.00,1.00
143.44,5.75,4.75,5.75,4.75,-4.75,-4.53,-5.02,1.00,1.00,1.00
144.87,5.71,4.71,5.71,4.71,-4.71,-4.51,-4.94,1.00,1.00,1.00
146.32,5.67,4.67,5.68,4.67,-4.67,-4.49,-4.86,1.00,1.00,1.00
147.78,5.64,4.63,5.64,4.63,-4.63,-4.47,-4.78,1.01,1.01,1.01
149.26,5.60,4.59,5.60,4.59,-4.59,-4.45,-4.70,1.01,1.01,1.01
150.75,5.55,4.54,5.56,4.55,-4.55,-4.43,-4.62,1.00,1.01,1.01
152.26,5.52,4.51,5.52,4.51,-4.51,-4.41,-4.54,1.01,1.01,1.01
153.78,5.47,4.46,5.47,4.46,-4.47,-4.38,-4.46,1.00,1.01,1.01
155.32,5.43,4.42,5.43,4.42,-4.43,-4.36,-4.38,1.01,1.01,1.01
156.88,5.39,4.38,5.39,4.38,-4.38,-4.34,-4.30,1.01,1.01,1.01
158.44,5.35,4.34,5.35,4.34,-4.34,-4.32,-4.23,1.01,1.01,1.01
160.03,5.31,4.30,5.31,4.30,-4.30,-4.30,-4.16,1.01,1.01,1.01
161.63,5.26,4.25,5.27,4.26,-4.25,-4.27,-4.09,1.01,1.01,1.01
163.24,5.22,4.21,5.22,4.21,-4.21,-4.25,-4.02,1.01,1.01,1.01
164.88,5.18,4.17,5.18,4.16,-4.16,-4.23,-3.95,1.02,1.01,1.01
166.53,5.13,4.11,5.13,4.12,-4.12,-4.20,-3.89,1.01,1.01,1.02
168.19,5.08,4.06,5.09,4.07,-4.07,-4.17,-3.82,1.01,1.01,1.02
169.87,5.04,4.02,5.04,4.02,-4.02,-4.15,-3.76,1.02,1.02,1.02
171.57,5.00,3.97,5.00,3.98,-3.97,-4.12,-3.71,1.03,1.03,1.03
173.29,4.96,3.93,4.96,3.93,-3.93,-4.09,-3.65,1.04,1.03,1.03
175.02,4.91,3.88,4.91,3.88,-3.88,-4.07,-3.60,1.03,1.03,1.03
176.77,4.86,3.82,4.87,3.83,-3.83,-4.04,-3.55,1.03,1.04,1.04
178.54,4.82,3.78,4.82,3.78,-3.78,-4.01,-3.51,1.04,1.04,1.04
180.32,4.78,3.73,4.78,3.73,-3.73,-3.98,-3.46,1.05,1.04,1.05
182.13,4.73,3.68,4.73,3.69,-3.69,-3.94,-3.43,1.05,1.05,1.05
183.95,4.69,3.64,4.69,3.64,-3.64,-3.91,-3.39,1.05,1.05,1.05
185.79,4.65,3.59,4.65,3.60,-3.59,-3.88,-3.35,1.06,1.06,1.06
187.65,4.61,3.55,4.61,3.55,-3.55,-3.84,-3.32,1.06,1.06,1.06
189.52,4.57,3.51,4.57,3.51,-3.51,-3.81,-3.29,1.06,1.06,1.06
191.42,4.54,3.47,4.54,3.47,-3.48,-3.77,-3.26,1.06,1.06,1.07
193.33,4.51,3.44,4.51,3.44,-3.44,-3.74,-3.23,1.07,1.07,1.07
195.27,4.48,3.41,4.48,3.41,-3.41,-3.70,-3.21,1.07,1.07,1.07
197.22,4.46,3.39,4.46,3.39,-3.39,-3.66,-3.19,1.07,1.07,1.07
199.19,4.43,3.35,4.44,3.36,-3.36,-3.62,-3.17,1.07,1.07,1.08
201.18,4.42,3.34,4.42,3.34,-3.35,-3.58,-3.15,1.08,1.08,1.08
203.19,4.41,3.33,4.41,3.33,-3.33,-3.54,-3.13,1.08,1.08,1.08
205.23,4.39,3.31,4.39,3.32,-3.31,-3.50,-3.12,1.08,1.08,1.08
207.28,4.38,3.30,4.38,3.30,-3.30,-3.46,-3.11,1.08,1.08,1.08
209.35,4.36,3.28,4.36,3.29,-3.29,-3.41,-3.09,1.08,1.08,1.08
211.44,4.35,3.27,4.35,3.27,-3.27,-3.37,-3.08,1.08,1.08,1.08
213.56,4.34,3.26,4.34,3.26,-3.26,-3.33,-3.07,1.08,1.08,1.08
215.69,4.32,3.24,4.33,3.25,-3.24,-3.28,-3.06,1.08,1.08,1.08
217.85,4.31,3.23,4.31,3.23,-3.23,-3.24,-3.05,1.08,1.08,1.08
220.03,4.29,3.21,4.29,3.21,-3.21,-3.19,-3.04,1.08,1.08,1.08
222.23,4.27,3.19,4.27,3.19,-3.19,-3.15,-3.03,1.08,1.08,1.08
224.45,4.25,3.17,4.25,3.17,-3.18,-3.10,-3.02,1.08,1.08,1.08
226.70,4.23,3.15,4.23,3.15,-3.16,-3.05,-3.00,1.08,1.08,1.08
228.96,4.21,3.13,4.21,3.13,-3.13,-3.01,-2.99,1.08,1.08,1.08
231.25,4.19,3.11,4.19,3.11,-3.11,-2.96,-2.98,1.08,1.08,1.08
233.57,4.16,3.09,4.16,3.09,-3.09,-2.91,-2.96,1.07,1.07,1.07
235.90,4.13,3.06,4.13,3.06,-3.06,-2.86,-2.94,1.07,1.07,1.07
238.26,4.09,3.02,4.10,3.03,-3.03,-2.82,-2.93,1.06,1.07,1.07
240.64,4.06,3.00,4.06,3.00,-3.00,-2.77,-2.90,1.06,1.06,1.06
243.05,4.03,2.97,4.02,2.96,-2.96,-2.72,-2.88,1.07,1.06,1.06
245.48,3.98,2.92,3.99,2.93,-2.93,-2.67,-2.86,1.06,1.06,1.06
247.93,3.94,2.88,3.94,2.88,-2.88,-2.63,-2.83,1.06,1.06,1.06
250.41,3.90,2.84,3.90,2.84,-2.84,-2.58,-2.80,1.06,1.06,1.06
252.92,3.85,2.80,3.85,2.80,-2.80,-2.53,-2.77,1.05,1.05,1.05
255.45,3.80,2.75,3.80,2.75,-2.75,-2.48,-2.73,1.05,1.05,1.05
258.00,3.75,2.70,3.75,2.71,-2.71,-2.43,-2.69,1.04,1.04,1.05
260.58,3.70,2.66,3.70,2.66,-2.66,-2.39,-2.65,1.04,1.04,1.04
263.19,3.65,2.61,3.65,2.61,-2.62,-2.34,-2.61,1.04,1.04,1.04
265.82,3.60,2.57,3.60,2.57,-2.57,-2.29,-2.57,1.03,1.03,1.03
268.48,3.55,2.52,3.55,2.52,-2.52,-2.25,-2.52,1.03,1.03,1.03
271.16,3.50,2.48,3.50,2.48,-2.47,-2.20,-2.47,1.03,1.02,1.02
273.87,3.44,2.42,3.44,2.43,-2.43,-2.15,-2.42,1.01,1.02,1.02
276.61,3.39,2.38,3.39,2.38,-2.38,-2.11,-2.37,1.01,1.01,1.01
279.38,3.33,2.32,3.33,2.33,-2.33,-2.06,-2.31,1.00,1.00,1.01
282.17,3.28,2.28,3.28,2.28,-2.29,-2.02,-2.26,1.00,1.00,1.00
284.99,3.23,2.24,3.23,2.24,-2.24,-1.97,-2.20,0.99,0.99,0.99
287.84,3.17,2.19,3.18,2.20,-2.19,-1.92,-2.14,0.98,0.98,0.98
290.72,3.12,2.15,3.12,2.15,-2.15,-1.88,-2.09,0.97,0.97,0.97
293.63,3.07,2.10,3.07,2.10,-2.10,-1.84,-2.03,0.97,0.97,0.97
296.57,3.01,2.05,3.01,2.06,-2.05,-1.79,-1.97,0.96,0.96,0.96
299.53,2.96,2.01,2.96,2.01,-2.01,-1.75,-1.91,0.95,0.95,0.95
302.53,2.90,1.95,2.90,1.96,-1.96,-1.70,-1.85,0.94,0.95,0.95
305.55,2.85,1.91,2.85,1.91,-1.91,-1.66,-1.79,0.94,0.94,0.94
308.61,2.79,1.85,2.79,1.86,-1.86,-1.62,-1.73,0.93,0.94,0.94
311.69,2.74,1.80,2.74,1.81,-1.81,-1.58,-1.67,0.94,0.94,0.94
314.81,2.69,1.76,2.69,1.75,-1.76,-1.53,-1.61,0.94,0.93,0.93
317.96,2.63,1.70,2.63,1.71,-1.70,-1.49,-1.55,0.93,0.93,0.93
321.14,2.58,1.65,2.58,1.65,-1.65,-1.45,-1.49,0.93,0.93,0.93
324.35,2.52,1.60,2.52,1.60,-1.60,-1.41,-1.43,0.92,0.92,0.92
327.59,2.47,1.55,2.47,1.55,-1.55,-1.37,-1.38,0.92,0.92,0.92
330.87,2.41,1.50,2.42,1.50,-1.50,-1.33,-1.32,0.91,0.91,0.91
334.18,2.37,1.46,2.37,1.46,-1.45,-1.29,-1.26,0.92,0.91,0.91
337.52,2.31,1.40,2.31,1.41,-1.41,-1.25,-1.21,0.91,0.91,0.91
340.90,2.26,1.36,2.26,1.36,-1.36,-1.21,-1.15,0.90,0.90,0.90
344.30,2.20,1.30,2.20,1.31,-1.31,-1.17,-1.10,0.89,0.89,0.90
347.75,2.15,1.26,2.15,1.27,-1.27,-1.13,-1.04,0.89,0.89,0.89
351.23,2.10,1.22,2.10,1.22,-1.22,-1.09,-0.99,0.88,0.88,0.88
354.74,2.05,1.18,2.05,1.18,-1.17,-1.06,-0.94,0.88,0.88,0.87
358.28,1.99,1.12,2.00,1.13,-1.13,-1.02,-0.89,0.86,0.87,0.87
361.87,1.95,1.09,1.94,1.09,-1.09,-0.98,-0.84,0.86,0.86,0.86
365.49,1.89,1.04,1.89,1.04,-1.04,-0.94,-0.79,0.85,0.85,0.85
369.14,1.83,0.99,1.84,1.00,-1.00,-0.91,-0.74,0.83,0.84,0.84
372.83,1.79,0.96,1.78,0.96,-0.96,-0.87,-0.69,0.83,0.83,0.83
376.56,1.73,0.91,1.73,0.92,-0.91,-0.83,-0.64,0.82,0.82,0.82
380.33,1.68,0.87,1.68,0.87,-0.87,-0.79,-0.59,0.81,0.81,0.81
384.13,1.63,0.83,1.63,0.83,-0.83,-0.76,-0.55,0.80,0.80,0.80
387.97,1.57,0.78,1.57,0.79,-0.79,-0.72,-0.50,0.79,0.79,0.79
391.85,1.52,0.74,1.52,0.74,-0.74,-0.69,-0.45,0.78,0.78,0.78
395.77,1.47,0.70,1.47,0.70,-0.70,-0.65,-0.41,0.77,0.77,0.77
399.73,1.42,0.66,1.42,0.66,-0.65,-0.61,-0.36,0.77,0.76,0.76
403.72,1.36,0.60,1.36,0.61,-0.61,-0.58,-0.32,0.75,0.75,0.76
407.76,1.31,0.56,1.31,0.56,-0.57,-0.54,-0.28,0.75,0.75,0.75
411.84,1.26,0.52,1.26,0.52,-0.52,-0.51,-0.24,0.74,0.74,0.74
415.96,1.21,0.48,1.21,0.48,-0.48,-0.47,-0.19,0.73,0.73,0.73
420.12,1.15,0.43,1.16,0.44,-0.44,-0.44,-0.15,0.71,0.72,0.72
424.32,1.10,0.39,1.11,0.40,-0.40,-0.40,-0.11,0.70,0.71,0.71
428.56,1.06,0.36,1.06,0.36,-0.36,-0.36,-0.07,0.70,0.70,0.70
432.85,1.01,0.32,1.01,0.32,-0.32,-0.33,-0.03,0.69,0.69,0.69
437.18,0.95,0.27,0.96,0.28,-0.28,-0.29,0.00,0.67,0.68,0.68
441.55,0.90,0.23,0.90,0.24,-0.24,-0.26,0.04,0.66,0.67,0.67
445.96,0.85,0.20,0.85,0.20,-0.20,-0.22,0.08,0.65,0.65,0.65
450.42,0.80,0.16,0.80,0.16,-0.16,-0.19,0.11,0.64,0.64,0.64
454.93,0.74,0.11,0.74,0.12,-0.12,-0.15,0.15,0.62,0.63,0.63
459.48,0.69,0.08,0.69,0.08,-0.08,-0.11,0.18,0.61,0.61,0.61
464.07,0.64,0.04,0.64,0.04,-0.04,-0.08,0.22,0.60,0.60,0.60
468.71,0.59,0.00,0.59,0.01,-0.01,-0.04,0.25,0.58,0.59,0.59
473.40,0.55,-0.03,0.55,-0.03,0.03,-0.00,0.28,0.58,0.58,0.58
478.13,0.49,-0.07,0.50,-0.06,0.07,0.03,0.31,0.56,0.57,0.56
482.91,0.45,-0.10,0.45,-0.10,0.10,0.07,0.34,0.56,0.55,0.55
487.74,0.40,-0.14,0.40,-0.14,0.14,0.11,0.37,0.54,0.54,0.54
492.62,0.34,-0.19,0.35,-0.18,0.18,0.15,0.40,0.52,0.53,0.53
497.55,0.30,-0.22,0.30,-0.22,0.22,0.19,0.42,0.52,0.51,0.52
502.52,0.25,-0.26,0.25,-0.26,0.26,0.22,0.45,0.51,0.50,0.51
507.55,0.19,-0.30,0.20,-0.29,0.29,0.26,0.47,0.49,0.49,0.49
512.62,0.15,-0.33,0.15,-0.33,0.33,0.30,0.50,0.48,0.48,0.48
517.75,0.10,-0.37,0.10,-0.37,0.37,0.34,0.52,0.47,0.47,0.47
522.93,0.04,-0.42,0.05,-0.41,0.41,0.38,0.54,0.45,0.46,0.46
528.16,0.00,-0.45,-0.00,-0.45,0.45,0.42,0.56,0.45,0.45,0.45
533.44,-0.05,-0.49,-0.05,-0.49,0.49,0.46,0.58,0.44,0.44,0.44
538.77,-0.10,-0.53,-0.10,-0.53,0.53,0.50,0.60,0.43,0.43,0.43
544.16,-0.15,-0.57,-0.15,-0.57,0.57,0.54,0.62,0.42,0.42,0.42
549.60,-0.20,-0.62,-0.20,-0.61,0.61,0.57,0.64,0.41,0.41,0.42
