frequency,raw,error,smoothed,error_smoothed,equalization,parametric_eq,fixed_band_eq,equalized_raw,equalized_smoothed,target
20.00,9.71,2.83,9.71,2.83,-2.82,-2.44,-1.25,6.88,6.88,6.88
20.20,9.70,2.85,9.70,2.85,-2.85,-2.43,-1.28,6.85,6.85,6.85
20.40,9.70,2.87,9.69,2.87,-2.87,-2.43,-1.32,6.83,6.83,6.83
20.61,9.69,2.88,9.69,2.88,-2.88,-2.43,-1.36,6.80,6.80,6.81
20.81,9.68,2.89,9.68,2.89,-2.90,-2.43,-1.40,6.78,6.78,6.79
21.02,9.67,2.90,9.67,2.90,-2.91,-2.43,-1.44,6.76,6.76,6.77
21.23,9.66,2.91,9.66,2.91,-2.92,-2.42,-1.48,6.74,6.74,6.74
21.44,9.65,2.92,9.64,2.92,-2.92,-2.42,-1.53,6.73,6.72,6.72
21.66,9.63,2.92,9.63,2.92,-2.92,-2.42,-1.57,6.71,6.71,6.70
21.87,9.61,2.91,9.61,2.92,-2.92,-2.42,-1.62,6.69,6.69,6.69
22.09,9.60,2.92,9.59,2.92,-2.91,-2.41,-1.66,6.68,6.68,6.67
22.31,9.58,2.91,9.57,2.91,-2.90,-2.41,-1.71,6.67,6.67,6.66
22.54,9.55,2.89,9.55,2.90,-2.89,-2.41,-1.76,6.66,6.66,6.65
22.76,9.52,2.87,9.51,2.87,-2.87,-2.41,-1.81,6.64,6.64,6.64
22.99,9.48,2.85,9.48,2.85,-2.85,-2.40,-1.87,6.63,6.63,6.63
23.22,9.45,2.83,9.45,2.83,-2.83,-2.40,-1.92,6.62,6.62,6.62
23.45,9.42,2.81,9.42,2.81,-2.81,-2.40,-1.98,6.61,6.61,6.61
23.69,9.40,2.80,9.39,2.79,-2.79,-2.40,-2.03,6.61,6.60,6.60
23.92,9.37,2.77,9.37,2.78,-2.77,-2.39,-2.09,6.59,6.60,6.60
24.16,9.36,2.77,9.35,2.76,-2.77,-2.39,-2.15,6.59,6.59,6.59
24.40,9.34,2.75,9.34,2.75,-2.76,-2.39,-2.21,6.57,6.57,6.59
24.65,9.33,2.75,9.33,2.75,-2.77,-2.38,-2.27,6.56,6.57,6.58
24.89,9.34,2.76,9.34,2.76,-2.77,-2.38,-2.33,6.56,6.56,6.58
25.14,9.35,2.78,9.35,2.78,-2.78,-2.38,-2.39,6.56,6.56,6.57
25.39,9.36,2.80,9.36,2.80,-2.79,-2.37,-2.45,6.56,6.57,6.55
25.65,9.37,2.81,9.36,2.81,-2.80,-2.37,-2.51,6.56,6.56,6.55
25.91,9.37,2.82,9.37,2.82,-2.81,-2.37,-2.57,6.56,6.56,6.54
26.16,9.36,2.81,9.36,2.82,-2.81,-2.36,-2.63,6.55,6.55,6.54
26.43,9.35,2.81,9.35,2.81,-2.81,-2.36,-2.69,6.54,6.54,6.54
26.69,9.33,2.80,9.33,2.80,-2.79,-2.36,-2.75,6.53,6.53,6.53
26.96,9.31,2.78,9.31,2.78,-2.78,-2.35,-2.81,6.53,6.53,6.53
27.23,9.28,2.76,9.28,2.76,-2.76,-2.35,-2.86,6.52,6.52,6.52
27.50,9.25,2.73,9.25,2.73,-2.73,-2.35,-2.92,6.51,6.52,6.52
27.77,9.22,2.70,9.22,2.71,-2.71,-2.34,-2.97,6.51,6.51,6.52
28.05,9.19,2.68,9.19,2.68,-2.68,-2.34,-3.02,6.51,6.51,6.50
28.33,9.16,2.65,9.16,2.65,-2.65,-2.33,-3.07,6.51,6.51,6.50
28.62,9.13,2.63,9.13,2.63,-2.62,-2.33,-3.11,6.50,6.50,6.50
28.90,9.10,2.61,9.10,2.60,-2.60,-2.32,-3.15,6.50,6.49,6.49
29.19,9.07,2.58,9.07,2.58,-2.58,-2.32,-3.19,6.48,6.49,6.49
29.48,9.05,2.56,9.05,2.56,-2.57,-2.32,-3.22,6.48,6.48,6.49
29.78,9.03,2.54,9.03,2.55,-2.56,-2.31,-3.25,6.47,6.47,6.49
30.08,9.03,2.54,9.03,2.54,-2.55,-2.31,-3.27,6.47,6.47,6.48
30.38,9.03,2.55,9.03,2.55,-2.55,-2.30,-3.29,6.47,6.47,6.47
30.68,9.03,2.56,9.03,2.56,-2.55,-2.30,-3.30,6.47,6.47,6.47
30.99,9.03,2.56,9.03,2.56,-2.55,-2.29,-3.31,6.47,6.47,6.47
31.30,9.03,2.56,9.03,2.56,-2.55,-2.29,-3.32,6.47,6.47,6.47
31.61,9.02,2.56,9.02,2.56,-2.55,-2.28,-3.31,6.47,6.47,6.46
31.93,9.01,2.55,9.00,2.55,-2.54,-2.28,-3.31,6.46,6.46,6.45
32.24,8.98,2.53,8.98,2.53,-2.53,-2.27,-3.30,6.45,6.45,6.45
32.57,8.96,2.52,8.96,2.51,-2.51,-2.26,-3.28,6.45,6.44,6.44
32.89,8.93,2.49,8.93,2.49,-2.49,-2.26,-3.26,6.44,6.44,6.44
33.22,8.90,2.46,8.90,2.47,-2.47,-2.25,-3.23,6.43,6.43,6.43
33.55,8.87,2.44,8.87,2.44,-2.45,-2.25,-3.20,6.42,6.42,6.42
33.89,8.84,2.42,8.84,2.42,-2.42,-2.24,-3.17,6.41,6.41,6.42
34.23,8.81,2.39,8.81,2.40,-2.40,-2.23,-3.13,6.40,6.41,6.42
34.57,8.79,2.38,8.79,2.38,-2.38,-2.23,-3.09,6.40,6.41,6.40
34.92,8.77,2.37,8.77,2.36,-2.36,-2.22,-3.05,6.40,6.40,6.40
35.27,8.75,2.35,8.74,2.35,-2.34,-2.21,-3.00,6.40,6.40,6.40
35.62,8.72,2.33,8.72,2.33,-2.33,-2.21,-2.96,6.39,6.39,6.38
35.97,8.70,2.32,8.69,2.31,-2.31,-2.20,-2.91,6.39,6.38,6.38
36.33,8.67,2.29,8.67,2.29,-2.29,-2.19,-2.86,6.37,6.37,6.38
36.70,8.65,2.27,8.65,2.27,-2.28,-2.19,-2.80,6.37,6.37,6.37
37.06,8.63,2.26,8.63,2.26,-2.26,-2.18,-2.75,6.37,6.37,6.37
37.43,8.61,2.25,8.61,2.25,-2.24,-2.17,-2.70,6.36,6.36,6.36
37.81,8.59,2.23,8.58,2.23,-2.23,-2.16,-2.64,6.36,6.36,6.35
38.19,8.56,2.21,8.56,2.21,-2.21,-2.15,-2.59,6.34,6.34,6.35
38.57,8.53,2.19,8.53,2.19,-2.20,-2.15,-2.54,6.33,6.33,6.33
38.95,8.51,2.18,8.51,2.18,-2.18,-2.14,-2.48,6.32,6.32,6.33
39.34,8.49,2.17,8.49,2.17,-2.17,-2.13,-2.43,6.32,6.32,6.32
39.74,8.47,2.16,8.46,2.16,-2.15,-2.12,-2.38,6.32,6.31,6.31
40.14,8.44,2.14,8.44,2.14,-2.13,-2.11,-2.33,6.31,6.31,6.30
40.54,8.41,2.12,8.41,2.12,-2.11,-2.10,-2.28,6.30,6.30,6.29
40.94,8.38,2.09,8.37,2.09,-2.09,-2.09,-2.23,6.29,6.28,6.28
41.35,8.34,2.06,8.34,2.06,-2.07,-2.08,-2.18,6.27,6.28,6.28
41.76,8.31,2.03,8.31,2.04,-2.04,-2.07,-2.13,6.26,6.27,6.27
42.18,8.29,2.02,8.28,2.01,-2.02,-2.06,-2.09,6.27,6.26,6.27
42.60,8.26,2.00,8.26,1.99,-2.00,-2.05,-2.05,6.26,6.26,6.26
43.03,8.24,1.97,8.24,1.98,-1.98,-2.04,-2.00,6.26,6.26,6.26
43.46,8.22,1.96,8.22,1.96,-1.96,-2.03,-1.96,6.25,6.25,6.26
43.90,8.20,1.95,8.20,1.95,-1.94,-2.01,-1.92,6.25,6.25,6.25
44.33,8.18,1.93,8.18,1.93,-1.92,-2.00,-1.89,6.25,6.25,6.24
44.78,8.15,1.91,8.15,1.91,-1.90,-1.99,-1.85,6.24,6.24,6.24
45.23,8.12,1.89,8.12,1.89,-1.88,-1.98,-1.82,6.24,6.24,6.23
45.68,8.08,1.86,8.08,1.86,-1.86,-1.96,-1.78,6.22,6.22,6.22
46.13,8.05,1.84,8.04,1.83,-1.84,-1.95,-1.75,6.21,6.21,6.21
46.60,8.01,1.81,8.01,1.81,-1.82,-1.94,-1.72,6.19,6.19,6.20
47.06,7.98,1.78,7.98,1.79,-1.80,-1.92,-1.69,6.18,6.18,6.19
47.53,7.95,1.77,7.95,1.77,-1.78,-1.91,-1.66,6.16,6.17,6.17
48.01,7.93,1.76,7.93,1.76,-1.77,-1.89,-1.64,6.16,6.16,6.16
48.49,7.91,1.75,7.91,1.76,-1.75,-1.88,-1.61,6.15,6.15,6.15
48.97,7.90,1.75,7.89,1.75,-1.74,-1.86,-1.59,6.16,6.15,6.14
49.46,7.87,1.73,7.87,1.74,-1.72,-1.84,-1.57,6.15,6.15,6.13
49.96,7.84,1.72,7.84,1.72,-1.70,-1.82,-1.55,6.14,6.13,6.12
50.46,7.80,1.69,7.79,1.68,-1.68,-1.81,-1.53,6.12,6.12,6.11
50.96,7.75,1.65,7.75,1.65,-1.65,-1.79,-1.51,6.09,6.10,6.10
51.47,7.71,1.61,7.71,1.62,-1.63,-1.77,-1.49,6.08,6.08,6.09
51.99,7.67,1.59,7.67,1.59,-1.60,-1.75,-1.48,6.06,6.06,6.08
52.51,7.64,1.57,7.64,1.57,-1.58,-1.73,-1.46,6.06,6.06,6.07
53.03,7.61,1.55,7.61,1.56,-1.56,-1.71,-1.45,6.05,6.05,6.05
53.56,7.59,1.55,7.58,1.54,-1.54,-1.68,-1.44,6.05,6.04,6.04
54.10,7.56,1.52,7.56,1.53,-1.52,-1.66,-1.42,6.04,6.04,6.03
54.64,7.53,1.51,7.53,1.51,-1.50,-1.64,-1.41,6.03,6.03,6.02
55.18,7.50,1.49,7.49,1.49,-1.48,-1.61,-1.40,6.02,6.01,6.00
55.74,7.45,1.46,7.45,1.46,-1.45,-1.59,-1.39,5.99,5.99,5.99
56.29,7.40,1.42,7.40,1.43,-1.43,-1.56,-1.38,5.97,5.97,5.98
56.86,7.36,1.40,7.36,1.40,-1.41,-1.54,-1.37,5.95,5.95,5.96
57.42,7.32,1.37,7.32,1.37,-1.38,-1.51,-1.36,5.93,5.94,5.94
58.00,7.29,1.35,7.28,1.35,-1.36,-1.48,-1.35,5.93,5.92,5.93
58.58,7.25,1.33,7.25,1.34,-1.34,-1.46,-1.34,5.91,5.91,5.91
59.16,7.22,1.32,7.22,1.32,-1.32,-1.43,-1.33,5.90,5.90,5.89
59.76,7.19,1.30,7.18,1.31,-1.30,-1.40,-1.32,5.89,5.89,5.88
60.35,7.15,1.29,7.15,1.29,-1.28,-1.37,-1.31,5.87,5.87,5.86
60.96,7.11,1.27,7.10,1.27,-1.26,-1.34,-1.30,5.84,5.84,5.84
61.57,7.06,1.24,7.06,1.24,-1.25,-1.32,-1.30,5.81,5.81,5.82
62.18,7.02,1.22,7.02,1.22,-1.23,-1.29,-1.29,5.78,5.78,5.79
62.80,6.98,1.21,6.98,1.21,-1.22,-1.26,-1.28,5.76,5.76,5.77
63.43,6.95,1.20,6.95,1.20,-1.21,-1.23,-1.27,5.74,5.74,5.74
64.07,6.92,1.20,6.91,1.20,-1.20,-1.21,-1.26,5.72,5.72,5.72
64.71,6.88,1.19,6.88,1.19,-1.19,-1.18,-1.25,5.69,5.69,5.69
65.35,6.85,1.18,6.84,1.18,-1.18,-1.16,-1.24,5.67,5.67,5.66
66.01,6.81,1.17,6.81,1.17,-1.17,-1.14,-1.23,5.64,5.63,5.63
66.67,6.77,1.16,6.77,1.16,-1.16,-1.12,-1.22,5.60,5.60,5.61
67.33,6.73,1.15,6.73,1.16,-1.16,-1.10,-1.21,5.57,5.58,5.58
68.01,6.70,1.15,6.69,1.15,-1.15,-1.08,-1.21,5.55,5.55,5.55
68.69,6.66,1.14,6.65,1.14,-1.14,-1.07,-1.20,5.52,5.52,5.51
69.37,6.61,1.12,6.61,1.13,-1.13,-1.06,-1.19,5.48,5.48,5.48
70.07,6.57,1.12,6.57,1.12,-1.12,-1.05,-1.18,5.45,5.45,5.45
70.77,6.53,1.11,6.53,1.11,-1.11,-1.04,-1.17,5.42,5.42,5.42
71.48,6.49,1.10,6.48,1.10,-1.10,-1.04,-1.16,5.39,5.39,5.39
72.19,6.44,1.08,6.44,1.09,-1.09,-1.04,-1.16,5.35,5.35,5.35
72.91,6.40,1.08,6.39,1.07,-1.07,-1.04,-1.15,5.32,5.32,5.32
73.64,6.35,1.07,6.35,1.07,-1.07,-1.04,-1.14,5.28,5.28,5.28
74.38,6.31,1.05,6.31,1.06,-1.06,-1.04,-1.13,5.25,5.25,5.25
75.12,6.27,1.05,6.27,1.05,-1.05,-1.05,-1.13,5.22,5.21,5.21
75.87,6.23,1.04,6.23,1.05,-1.05,-1.06,-1.12,5.18,5.18,5.18
76.63,6.19,1.04,6.19,1.04,-1.04,-1.06,-1.12,5.14,5.14,5.14
77.40,6.15,1.04,6.15,1.04,-1.04,-1.07,-1.11,5.10,5.10,5.10
78.17,6.11,1.04,6.11,1.04,-1.04,-1.08,-1.11,5.06,5.07,5.07
78.95,6.08,1.05,6.07,1.05,-1.05,-1.09,-1.11,5.03,5.03,5.03
79.74,6.04,1.05,6.04,1.05,-1.05,-1.10,-1.11,4.99,4.99,4.98
80.54,6.00,1.05,6.00,1.05,-1.05,-1.11,-1.11,4.94,4.95,4.95
81.35,5.96,1.06,5.96,1.05,-1.06,-1.12,-1.11,4.90,4.90,4.90
82.16,5.92,1.06,5.91,1.06,-1.06,-1.13,-1.11,4.85,4.85,4.86
82.98,5.87,1.06,5.87,1.06,-1.07,-1.14,-1.11,4.80,4.81,4.81
83.81,5.84,1.08,5.83,1.07,-1.07,-1.15,-1.11,4.77,4.76,4.76
84.65,5.80,1.08,5.80,1.08,-1.07,-1.16,-1.11,4.72,4.72,4.72
85.50,5.76,1.09,5.76,1.08,-1.08,-1.16,-1.12,4.68,4.68,4.67
86.35,5.71,1.09,5.71,1.08,-1.08,-1.17,-1.12,4.63,4.63,4.62
87.22,5.66,1.09,5.65,1.08,-1.08,-1.18,-1.13,4.57,4.57,4.57
88.09,5.60,1.08,5.60,1.08,-1.09,-1.19,-1.13,4.51,4.51,4.52
88.97,5.55,1.08,5.55,1.08,-1.09,-1.19,-1.14,4.45,4.46,4.47
89.86,5.51,1.09,5.51,1.09,-1.10,-1.20,-1.15,4.41,4.41,4.41
90.76,5.47,1.11,5.47,1.11,-1.11,-1.20,-1.16,4.36,4.36,4.36
91.66,5.44,1.13,5.43,1.12,-1.12,-1.21,-1.17,4.32,4.32,4.31
92.58,5.39,1.13,5.39,1.13,-1.12,-1.21,-1.18,4.26,4.26,4.25
93.51,5.34,1.14,5.34,1.14,-1.14,-1.22,-1.19,4.20,4.20,4.20
94.44,5.29,1.14,5.29,1.14,-1.15,-1.22,-1.20,4.14,4.14,4.14
95.39,5.24,1.15,5.24,1.15,-1.16,-1.22,-1.21,4.08,4.08,4.09
96.34,5.19,1.16,5.19,1.16,-1.17,-1.23,-1.23,4.02,4.02,4.03
97.30,5.16,1.17,5.16,1.18,-1.18,-1.23,-1.24,3.98,3.98,3.98
98.28,5.13,1.20,5.12,1.19,-1.19,-1.23,-1.26,3.94,3.93,3.93
99.26,5.08,1.21,5.08,1.21,-1.20,-1.23,-1.27,3.88,3.88,3.87
100.25,5.03,1.21,5.03,1.21,-1.20,-1.24,-1.29,3.82,3.82,3.81
101.25,4.97,1.21,4.97,1.22,-1.21,-1.24,-1.30,3.75,3.75,3.75
102.27,4.92,1.22,4.91,1.22,-1.22,-1.24,-1.32,3.69,3.69,3.70
103.29,4.86,1.22,4.86,1.22,-1.23,-1.24,-1.34,3.63,3.63,3.64
104.32,4.82,1.23,4.82,1.23,-1.24,-1.24,-1.35,3.58,3.58,3.59
105.37,4.78,1.24,4.78,1.25,-1.24,-1.24,-1.37,3.53,3.53,3.53
106.42,4.75,1.27,4.74,1.26,-1.25,-1.25,-1.39,3.49,3.49,3.48
107.48,4.70,1.27,4.70,1.27,-1.26,-1.25,-1.40,3.43,3.43,3.43
108.56,4.65,1.28,4.64,1.28,-1.28,-1.25,-1.42,3.37,3.37,3.37
109.64,4.59,1.27,4.59,1.28,-1.29,-1.25,-1.44,3.30,3.30,3.31
110.74,4.55,1.29,4.55,1.29,-1.30,-1.26,-1.45,3.25,3.25,3.26
111.85,4.51,1.31,4.51,1.31,-1.31,-1.26,-1.46,3.20,3.20,3.20
112.97,4.48,1.33,4.47,1.33,-1.32,-1.26,-1.48,3.16,3.16,3.15
114.10,4.44,1.34,4.43,1.34,-1.33,-1.27,-1.49,3.11,3.11,3.09
115.24,4.38,1.34,4.38,1.34,-1.33,-1.27,-1.50,3.04,3.05,3.04
116.39,4.33,1.34,4.32,1.34,-1.34,-1.27,-1.51,2.98,2.98,2.98
117.55,4.27,1.33,4.27,1.33,-1.35,-1.28,-1.51,2.92,2.92,2.94
118.73,4.22,1.34,4.22,1.34,-1.35,-1.28,-1.52,2.86,2.87,2.88
119.92,4.18,1.35,4.18,1.35,-1.35,-1.29,-1.52,2.82,2.83,2.83
121.12,4.15,1.37,4.14,1.37,-1.35,-1.29,-1.53,2.79,2.79,2.77
122.33,4.10,1.37,4.09,1.37,-1.35,-1.30,-1.53,2.74,2.74,2.73
123.55,4.04,1.36,4.04,1.36,-1.35,-1.30,-1.52,2.68,2.68,2.68
124.79,3.98,1.34,3.98,1.35,-1.35,-1.31,-1.52,2.62,2.63,2.63
126.03,3.93,1.34,3.93,1.34,-1.35,-1.32,-1.51,2.57,2.57,2.58
127.29,3.88,1.34,3.88,1.34,-1.35,-1.32,-1.51,2.53,2.53,2.54
128.57,3.84,1.35,3.83,1.34,-1.34,-1.33,-1.50,2.49,2.49,2.49
129.85,3.79,1.35,3.79,1.34,-1.34,-1.34,-1.48,2.45,2.45,2.44
131.15,3.74,1.34,3.74,1.34,-1.33,-1.34,-1.47,2.40,2.40,2.39
132.46,3.69,1.33,3.68,1.33,-1.33,-1.35,-1.45,2.35,2.35,2.35
133.79,3.63,1.32,3.63,1.32,-1.33,-1.35,-1.44,2.30,2.30,2.31
135.12,3.58,1.32,3.58,1.32,-1.33,-1.36,-1.42,2.25,2.25,2.26
136.48,3.53,1.31,3.53,1.32,-1.32,-1.37,-1.40,2.21,2.21,2.21
137.84,3.49,1.32,3.49,1.32,-1.31,-1.37,-1.37,2.18,2.18,2.17
139.22,3.45,1.32,3.44,1.32,-1.30,-1.38,-1.35,2.15,2.14,2.12
140.61,3.39,1.31,3.39,1.30,-1.29,-1.38,-1.33,2.10,2.10,2.08
142.02,3.33,1.28,3.33,1.28,-1.28,-1.38,-1.30,2.05,2.05,2.05
143.44,3.27,1.26,3.27,1.26,-1.27,-1.38,-1.28,2.00,1.99,2.01
144.87,3.21,1.24,3.21,1.24,-1.26,-1.38,-1.25,1.95,1.95,1.97
146.32,3.17,1.23,3.17,1.24,-1.25,-1.38,-1.22,1.92,1.92,1.94
147.78,3.14,1.24,3.13,1.24,-1.24,-1.37,-1.19,1.90,1.90,1.90
149.26,3.10,1.24,3.10,1.24,-1.23,-1.37,-1.16,1.87,1.87,1.86
150.75,3.06,1.23,3.05,1.23,-1.22,-1.36,-1.13,1.84,1.84,1.83
152.26,3.01,1.21,3.01,1.21,-1.21,-1.35,-1.11,1.80,1.80,1.79
153.78,2.96,1.20,2.96,1.20,-1.20,-1.33,-1.08,1.75,1.76,1.76
155.32,2.92,1.18,2.92,1.19,-1.20,-1.32,-1.05,1.72,1.72,1.73
156.88,2.88,1.18,2.88,1.18,-1.19,-1.30,-1.02,1.69,1.69,1.70
158.44,2.84,1.17,2.84,1.18,-1.17,-1.28,-0.99,1.66,1.67,1.67
160.03,2.81,1.17,2.80,1.17,-1.16,-1.26,-0.96,1.64,1.64,1.63
161.63,2.77,1.17,2.76,1.16,-1.15,-1.24,-0.93,1.61,1.61,1.60
163.24,2.72,1.14,2.72,1.14,-1.14,-1.22,-0.91,1.57,1.58,1.58
164.88,2.68,1.13,2.68,1.13,-1.13,-1.19,-0.88,1.55,1.55,1.55
166.53,2.64,1.12,2.64,1.11,-1.11,-1.17,-0.85,1.52,1.52,1.52
168.19,2.60,1.10,2.60,1.10,-1.10,-1.14,-0.83,1.50,1.50,1.49
169.87,2.56,1.08,2.55,1.08,-1.08,-1.11,-0.80,1.48,1.47,1.48
171.57,2.51,1.06,2.51,1.06,-1.06,-1.08,-0.78,1.44,1.45,1.45
173.29,2.47,1.04,2.47,1.04,-1.05,-1.05,-0.75,1.42,1.42,1.42
175.02,2.43,1.03,2.43,1.03,-1.03,-1.02,-0.73,1.40,1.40,1.40
176.77,2.40,1.01,2.39,1.01,-1.01,-0.99,-0.70,1.38,1.38,1.38
178.54,2.36,1.00,2.36,1.00,-1.00,-0.96,-0.68,1.36,1.36,1.36
180.32,2.32,0.98,2.32,0.98,-0.98,-0.93,-0.66,1.33,1.34,1.34
182.13,2.28,0.96,2.28,0.97,-0.97,-0.90,-0.64,1.31,1.31,1.31
183.95,2.25,0.96,2.24,0.95,-0.95,-0.87,-0.61,1.30,1.29,1.29
185.79,2.21,0.94,2.21,0.94,-0.93,-0.83,-0.59,1.27,1.27,1.27
187.65,2.17,0.92,2.17,0.92,-0.92,-0.80,-0.57,1.25,1.25,1.25
189.52,2.13,0.90,2.13,0.90,-0.90,-0.77,-0.55,1.23,1.23,1.23
191.42,2.09,0.88,2.09,0.88,-0.88,-0.75,-0.53,1.21,1.21,1.21
193.33,2.05,0.85,2.05,0.85,-0.86,-0.72,-0.52,1.19,1.19,1.19
195.27,2.01,0.83,2.01,0.83,-0.84,-0.69,-0.50,1.17,1.17,1.17
197.22,1.97,0.81,1.97,0.81,-0.81,-0.66,-0.48,1.16,1.16,1.16
199.19,1.93,0.79,1.93,0.79,-0.78,-0.63,-0.46,1.14,1.15,1.14
201.18,1.90,0.76,1.89,0.76,-0.75,-0.61,-0.44,1.15,1.14,1.13
203.19,1.85,0.73,1.85,0.73,-0.72,-0.58,-0.43,1.13,1.13,1.12
205.23,1.80,0.68,1.80,0.69,-0.68,-0.55,-0.41,1.12,1.12,1.11
207.28,1.74,0.64,1.74,0.64,-0.64,-0.53,-0.40,1.10,1.10,1.10
209.35,1.68,0.59,1.68,0.59,-0.60,-0.50,-0.38,1.08,1.08,1.08
211.44,1.63,0.55,1.62,0.55,-0.56,-0.48,-0.36,1.07,1.06,1.08
213.56,1.58,0.51,1.58,0.51,-0.52,-0.45,-0.35,1.05,1.06,1.07
215.69,1.54,0.48,1.54,0.48,-0.49,-0.43,-0.33,1.05,1.05,1.05
217.85,1.51,0.46,1.50,0.45,-0.45,-0.41,-0.32,1.06,1.05,1.04
220.03,1.46,0.42,1.46,0.42,-0.42,-0.38,-0.31,1.04,1.04,1.04
222.23,1.42,0.39,1.41,0.39,-0.38,-0.36,-0.29,1.03,1.03,1.03
224.45,1.37,0.35,1.37,0.35,-0.35,-0.34,-0.28,1.02,1.02,1.02
226.70,1.32,0.31,1.32,0.31,-0.31,-0.32,-0.26,1.00,1.01,1.01
228.96,1.28,0.27,1.28,0.27,-0.27,-0.29,-0.25,1.00,1.00,1.01
231.25,1.24,0.24,1.24,0.24,-0.24,-0.27,-0.23,1.00,1.00,1.00
233.57,1.20,0.21,1.19,0.20,-0.20,-0.25,-0.22,1.00,1.00,0.99
235.90,1.15,0.16,1.15,0.17,-0.16,-0.23,-0.21,0.99,0.99,0.99
238.26,1.11,0.13,1.11,0.13,-0.13,-0.21,-0.19,0.98,0.98,0.98
240.64,1.07,0.09,1.07,0.08,-0.10,-0.19,-0.18,0.97,0.97,0.98
243.05,1.04,0.05,1.04,0.06,-0.07,-0.17,-0.16,0.97,0.97,0.98
245.48,1.01,0.02,1.02,0.03,-0.04,-0.15,-0.15,0.96,0.97,0.98
247.93,1.01,0.03,1.00,0.02,-0.02,-0.13,-0.14,0.99,0.98,0.98
250.41,0.99,0.01,0.98,0.00,0.00,-0.11,-0.12,0.99,0.99,0.98
252.92,0.97,-0.01,0.97,-0.01,0.02,-0.09,-0.11,0.99,0.99,0.98
255.45,0.95,-0.04,0.95,-0.04,0.04,-0.07,-0.09,0.99,0.99,0.98
258.00,0.93,-0.05,0.92,-0.06,0.06,-0.06,-0.08,0.98,0.98,0.98
260.58,0.90,-0.08,0.90,-0.08,0.07,-0.04,-0.06,0.97,0.97,0.98
263.19,0.88,-0.10,0.88,-0.10,0.09,-0.02,-0.05,0.97,0.97,0.98
265.82,0.86,-0.11,0.86,-0.12,0.11,0.00,-0.03,0.97,0.97,0.97
268.48,0.84,-0.14,0.84,-0.13,0.14,0.02,-0.01,0.97,0.97,0.97
271.16,0.82,-0.15,0.81,-0.15,0.16,0.04,0.00,0.98,0.98,0.97
273.87,0.79,-0.18,0.79,-0.18,0.19,0.06,0.02,0.97,0.97,0.96
276.61,0.76,-0.21,0.76,-0.21,0.21,0.07,0.03,0.97,0.97,0.97
279.38,0.73,-0.24,0.73,-0.24,0.24,0.09,0.05,0.97,0.97,0.96
282.17,0.70,-0.27,0.70,-0.27,0.27,0.11,0.07,0.96,0.96,0.97
284.99,0.67,-0.30,0.67,-0.30,0.29,0.13,0.08,0.96,0.96,0.96
287.84,0.64,-0.32,0.64,-0.32,0.32,0.15,0.10,0.95,0.95,0.96
290.72,0.62,-0.34,0.62,-0.34,0.33,0.16,0.12,0.95,0.95,0.96
293.63,0.60,-0.35,0.60,-0.35,0.34,0.18,0.14,0.94,0.95,0.95
296.57,0.60,-0.35,0.59,-0.36,0.35,0.20,0.16,0.95,0.94,0.95
299.53,0.59,-0.37,0.59,-0.36,0.36,0.22,0.17,0.94,0.94,0.95
302.53,0.59,-0.36,0.59,-0.36,0.36,0.24,0.19,0.94,0.95,0.95
305.55,0.60,-0.35,0.59,-0.36,0.36,0.25,0.21,0.96,0.95,0.95
308.61,0.60,-0.36,0.59,-0.36,0.37,0.27,0.23,0.96,0.96,0.95
311.69,0.59,-0.36,0.59,-0.36,0.37,0.29,0.25,0.96,0.96,0.95
314.81,0.58,-0.38,0.58,-0.38,0.39,0.31,0.27,0.96,0.96,0.96
317.96,0.56,-0.40,0.55,-0.40,0.41,0.32,0.29,0.96,0.96,0.95
321.14,0.53,-0.43,0.53,-0.43,0.43,0.34,0.31,0.96,0.96,0.96
324.35,0.50,-0.46,0.50,-0.46,0.46,0.36,0.33,0.96,0.96,0.96
327.59,0.47,-0.49,0.47,-0.49,0.49,0.38,0.35,0.96,0.96,0.96
330.87,0.44,-0.53,0.44,-0.53,0.53,0.40,0.38,0.96,0.96,0.96
334.18,0.41,-0.56,0.41,-0.56,0.56,0.42,0.40,0.97,0.97,0.97
337.52,0.38,-0.59,0.38,-0.60,0.59,0.43,0.42,0.97,0.97,0.97
340.90,0.35,-0.63,0.35,-0.63,0.62,0.45,0.44,0.96,0.97,0.98
344.30,0.33,-0.65,0.33,-0.65,0.64,0.47,0.47,0.97,0.97,0.97
347.75,0.31,-0.67,0.31,-0.66,0.66,0.49,0.49,0.97,0.97,0.97
351.23,0.30,-0.67,0.30,-0.68,0.68,0.51,0.52,0.98,0.98,0.97
354.74,0.29,-0.69,0.28,-0.69,0.69,0.53,0.54,0.98,0.98,0.98
358.28,0.27,-0.71,0.27,-0.71,0.71,0.54,0.57,0.98,0.98,0.98
361.87,0.25,-0.73,0.25,-0.72,0.72,0.56,0.59,0.97,0.98,0.98
365.49,0.24,-0.74,0.23,-0.74,0.74,0.58,0.62,0.98,0.97,0.97
369.14,0.22,-0.75,0.22,-0.75,0.76,0.60,0.64,0.98,0.98,0.97
372.83,0.20,-0.77,0.20,-0.78,0.78,0.62,0.67,0.98,0.98,0.97
376.56,0.18,-0.80,0.17,-0.80,0.80,0.64,0.70,0.98,0.98,0.98
380.33,0.15,-0.83,0.15,-0.83,0.83,0.66,0.73,0.98,0.98,0.98
384.13,0.12,-0.86,0.12,-0.86,0.86,0.68,0.75,0.98,0.98,0.98
387.97,0.09,-0.89,0.09,-0.89,0.89,0.70,0.78,0.98,0.98,0.97
391.85,0.06,-0.93,0.06,-0.92,0.93,0.71,0.81,0.98,0.98,0.98
395.77,0.03,-0.96,0.03,-0.96,0.96,0.73,0.84,0.99,0.98,0.98
399.73,-0.00,-0.99,-0.00,-0.99,0.99,0.75,0.87,0.99,0.99,0.99
403.72,-0.02,-1.01,-0.02,-1.02,1.02,0.77,0.90,0.99,0.99,0.99
407.76,-0.04,-1.04,-0.05,-1.04,1.04,0.79,0.93,0.99,0.99,1.00
411.84,-0.06,-1.06,-0.06,-1.06,1.05,0.81,0.96,0.99,0.99,1.00
415.96,-0.07,-1.08,-0.07,-1.08,1.06,0.83,0.99,0.99,0.99,1.01
420.12,-0.07,-1.08,-0.07,-1.08,1.06,0.85,1.01,0.99,0.99,1.01
424.32,-0.06,-1.07,-0.06,-1.07,1.06,0.87,1.04,1.00,1.00,1.00
428.56,-0.04,-1.06,-0.05,-1.06,1.06,0.89,1.07,1.02,1.02,1.01
432.85,-0.03,-1.05,-0.04,-1.05,1.06,0.91,1.10,1.03,1.02,1.01
437.18,-0.03,-1.05,-0.04,-1.05,1.06,0.93,1.13,1.03,1.03,1.01
441.55,-0.05,-1.06,-0.05,-1.06,1.07,0.95,1.16,1.02,1.02,1.01
445.96,-0.06,-1.07,-0.06,-1.07,1.08,0.97,1.18,1.02,1.02,1.01
450.42,-0.08,-1.09,-0.09,-1.10,1.10,0.99,1.21,1.01,1.01,1.01
454.93,-0.11,-1.12,-0.11,-1.12,1.12,1.00,1.23,1.01,1.01,1.01
459.48,-0.14,-1.15,-0.14,-1.15,1.15,1.02,1.26,1.01,1.01,1.01
464.07,-0.17,-1.18,-0.17,-1.18,1.18,1.04,1.28,1.01,1.01,1.01
468.71,-0.20,-1.21,-0.20,-1.21,1.21,1.06,1.30,1.01,1.01,1.01
473.40,-0.23,-1.24,-0.23,-1.24,1.24,1.08,1.32,1.01,1.01,1.01
478.13,-0.26,-1.28,-0.26,-1.28,1.28,1.10,1.34,1.01,1.01,1.02
482.91,-0.29,-1.31,-0.29,-1.31,1.31,1.12,1.35,1.02,1.02,1.02
487.74,-0.32,-1.34,-0.32,-1.34,1.34,1.14,1.37,1.01,1.02,1.02
492.62,-0.34,-1.36,-0.35,-1.37,1.36,1.15,1.38,1.02,1.02,1.01
497.55,-0.37,-1.40,-0.37,-1.39,1.39,1.17,1.40,1.01,1.02,1.02
502.52,-0.38,-1.41,-0.38,-1.41,1.40,1.19,1.41,1.02,1.02,1.02
507.55,-0.39,-1.42,-0.40,-1.42,1.41,1.21,1.42,1.02,1.02,1.02
512.62,-0.40,-1.43,-0.40,-1.43,1.42,1.23,1.42,1.02,1.02,1.02
517.75,-0.40,-1.44,-0.40,-1.43,1.43,1.24,1.43,1.02,1.03,1.03
522.93,-0.39,-1.43,-0.39,-1.42,1.43,1.26,1.43,1.03,1.03,1.03
528.16,-0.38,-1.41,-0.39,-1.42,1.43,1.28,1.44,1.04,1.04,1.03
533.44,-0.38,-1.41,-0.38,-1.42,1.42,1.29,1.44,1.04,1.04,1.03
538.77,-0.38,-1.42,-0.38,-1.42,1.42,1.31,1.44,1.04,1.04,1.04
544.16,-0.38,-1.42,-0.38,-1.42,1.42,1.32,1.44,1.04,1.04,1.04
