frequency,raw,error,smoothed,error_smoothed,equalization,parametric_eq,fixed_band_eq,equalized_raw,equalized_smoothed,target
20.00,-5.30,-8.45,-5.31,-8.46,6.00,5.54,2.52,0.70,0.69,3.15
20.20,-5.20,-8.36,-5.19,-8.35,6.00,5.60,2.59,0.80,0.81,3.16
20.40,-5.09,-8.26,-5.08,-8.25,6.00,5.65,2.67,0.91,0.92,3.17
20.61,-4.99,-8.16,-4.98,-8.16,6.00,5.70,2.74,1.01,1.02,3.17
20.81,-4.88,-8.06,-4.89,-8.06,6.00,5.75,2.82,1.12,1.11,3.18
21.02,-4.79,-7.97,-4.81,-7.99,6.00,5.80,2.90,1.21,1.19,3.18
21.23,-4.75,-7.94,-4.75,-7.93,6.00,5.85,2.99,1.25,1.25,3.19
21.44,-4.71,-7.90,-4.71,-7.90,6.00,5.90,3.07,1.29,1.29,3.19
21.66,-4.67,-7.86,-4.67,-7.87,6.00,5.94,3.16,1.33,1.33,3.19
21.87,-4.63,-7.82,-4.63,-7.82,6.00,5.98,3.26,1.37,1.37,3.19
22.09,-4.58,-7.78,-4.58,-7.77,6.00,6.02,3.35,1.42,1.42,3.20
22.31,-4.51,-7.71,-4.51,-7.71,6.00,6.05,3.45,1.49,1.49,3.20
22.54,-4.44,-7.63,-4.44,-7.63,6.00,6.09,3.55,1.56,1.56,3.19
22.76,-4.37,-7.55,-4.37,-7.55,6.00,6.12,3.65,1.63,1.63,3.18
22.99,-4.30,-7.48,-4.32,-7.49,6.00,6.14,3.75,1.70,1.68,3.18
23.22,-4.28,-7.46,-4.28,-7.45,6.00,6.17,3.86,1.72,1.72,3.18
23.45,-4.25,-7.42,-4.26,-7.43,6.00,6.19,3.97,1.75,1.74,3.17
23.69,-4.22,-7.39,-4.23,-7.40,6.00,6.21,4.08,1.78,1.77,3.17
23.92,-4.20,-7.37,-4.18,-7.34,6.00,6.22,4.19,1.80,1.82,3.17
24.16,-4.10,-7.27,-4.10,-7.26,6.00,6.24,4.31,1.90,1.90,3.17
24.40,-3.98,-7.15,-3.98,-7.15,6.00,6.24,4.43,2.02,2.02,3.16
24.65,-3.85,-7.02,-3.85,-7.02,6.00,6.25,4.55,2.15,2.15,3.16
24.89,-3.72,-6.88,-3.73,-6.89,6.00,6.25,4.67,2.28,2.27,3.16
25.14,-3.62,-6.78,-3.62,-6.78,6.00,6.25,4.79,2.38,2.38,3.16
25.39,-3.53,-6.68,-3.53,-6.68,6.00,6.24,4.92,2.47,2.47,3.15
25.65,-3.44,-6.60,-3.44,-6.59,6.00,6.24,5.04,2.56,2.56,3.15
25.91,-3.35,-6.51,-3.36,-6.51,6.00,6.22,5.17,2.65,2.64,3.15
26.16,-3.28,-6.43,-3.29,-6.44,6.00,6.21,5.29,2.72,2.71,3.15
26.43,-3.23,-6.38,-3.23,-6.38,6.00,6.19,5.41,2.77,2.77,3.15
26.69,-3.17,-6.32,-3.17,-6.32,6.00,6.17,5.54,2.83,2.83,3.15
26.96,-3.12,-6.27,-3.13,-6.27,6.01,6.14,5.66,2.88,2.88,3.15
27.23,-3.08,-6.23,-3.08,-6.23,6.01,6.12,5.77,2.93,2.93,3.15
27.50,-3.04,-6.19,-3.05,-6.20,6.02,6.09,5.89,2.97,2.97,3.15
27.77,-3.01,-6.16,-3.01,-6.16,6.01,6.05,6.00,3.00,3.00,3.15
28.05,-2.97,-6.12,-2.96,-6.11,6.00,6.02,6.10,3.03,3.04,3.15
28.33,-2.90,-6.05,-2.91,-6.05,5.97,5.98,6.20,3.07,3.07,3.15
28.62,-2.83,-5.98,-2.84,-5.98,5.94,5.93,6.30,3.10,3.10,3.14
28.90,-2.76,-5.92,-2.76,-5.91,5.89,5.89,6.38,3.12,3.13,3.15
29.19,-2.68,-5.84,-2.68,-5.83,5.83,5.84,6.46,3.15,3.15,3.15
29.48,-2.59,-5.74,-2.59,-5.75,5.76,5.79,6.53,3.17,3.17,3.15
29.78,-2.50,-5.66,-2.51,-5.66,5.69,5.74,6.59,3.18,3.18,3.16
30.08,-2.42,-5.58,-2.43,-5.59,5.61,5.69,6.63,3.18,3.18,3.16
30.38,-2.36,-5.52,-2.36,-5.52,5.53,5.63,6.67,3.17,3.17,3.16
30.68,-2.30,-5.46,-2.30,-5.46,5.46,5.57,6.70,3.15,3.16,3.16
30.99,-2.24,-5.40,-2.24,-5.40,5.39,5.52,6.71,3.15,3.15,3.16
31.30,-2.18,-5.34,-2.18,-5.34,5.34,5.45,6.71,3.16,3.16,3.16
31.61,-2.12,-5.28,-2.12,-5.27,5.29,5.39,6.70,3.16,3.17,3.15
31.93,-2.05,-5.21,-2.06,-5.21,5.23,5.33,6.68,3.18,3.17,3.15
32.24,-2.02,-5.16,-2.03,-5.17,5.18,5.26,6.65,3.16,3.15,3.14
32.57,-1.99,-5.13,-1.99,-5.13,5.12,5.20,6.61,3.12,3.12,3.14
32.89,-1.96,-5.10,-1.95,-5.09,5.05,5.13,6.55,3.09,3.10,3.14
33.22,-1.89,-5.02,-1.88,-5.01,4.98,5.06,6.48,3.09,3.10,3.13
33.55,-1.79,-4.92,-1.80,-4.92,4.91,4.99,6.41,3.12,3.12,3.13
33.89,-1.70,-4.82,-1.71,-4.83,4.85,4.92,6.33,3.14,3.14,3.11
34.23,-1.63,-4.75,-1.63,-4.74,4.78,4.85,6.23,3.15,3.15,3.11
34.57,-1.57,-4.68,-1.57,-4.68,4.71,4.78,6.14,3.14,3.14,3.11
34.92,-1.51,-4.62,-1.52,-4.63,4.64,4.71,6.03,3.13,3.12,3.11
35.27,-1.47,-4.58,-1.48,-4.58,4.57,4.63,5.92,3.10,3.09,3.11
35.62,-1.43,-4.54,-1.43,-4.54,4.50,4.56,5.81,3.07,3.07,3.10
35.97,-1.38,-4.48,-1.37,-4.48,4.44,4.49,5.69,3.06,3.07,3.10
36.33,-1.30,-4.40,-1.29,-4.39,4.38,4.41,5.57,3.08,3.09,3.10
36.70,-1.20,-4.30,-1.21,-4.31,4.33,4.34,5.44,3.12,3.12,3.10
37.06,-1.12,-4.22,-1.14,-4.23,4.28,4.27,5.32,3.15,3.14,3.10
37.43,-1.09,-4.19,-1.09,-4.19,4.23,4.19,5.19,3.13,3.13,3.09
37.81,-1.07,-4.17,-1.06,-4.16,4.18,4.12,5.06,3.11,3.11,3.10
38.19,-1.04,-4.14,-1.05,-4.14,4.13,4.05,4.94,3.09,3.08,3.10
38.57,-1.01,-4.11,-1.02,-4.12,4.08,3.97,4.81,3.07,3.07,3.10
38.95,-0.98,-4.08,-0.97,-4.07,4.04,3.90,4.68,3.05,3.07,3.10
39.34,-0.90,-4.00,-0.90,-4.00,3.98,3.83,4.56,3.08,3.08,3.10
39.74,-0.82,-3.92,-0.83,-3.92,3.93,3.75,4.43,3.10,3.10,3.10
40.14,-0.74,-3.84,-0.75,-3.84,3.86,3.68,4.31,3.11,3.11,3.09
40.54,-0.68,-3.77,-0.68,-3.77,3.78,3.61,4.19,3.10,3.10,3.09
40.94,-0.62,-3.71,-0.62,-3.70,3.71,3.54,4.07,3.08,3.09,3.09
41.35,-0.55,-3.63,-0.55,-3.63,3.63,3.47,3.96,3.08,3.08,3.08
41.76,-0.48,-3.55,-0.48,-3.56,3.55,3.40,3.84,3.07,3.07,3.07
42.18,-0.41,-3.48,-0.41,-3.48,3.48,3.32,3.73,3.06,3.07,3.07
42.60,-0.34,-3.40,-0.34,-3.40,3.40,3.25,3.62,3.06,3.06,3.06
43.03,-0.27,-3.33,-0.28,-3.33,3.33,3.18,3.51,3.06,3.05,3.06
43.46,-0.21,-3.26,-0.22,-3.27,3.26,3.11,3.41,3.05,3.04,3.05
43.90,-0.16,-3.20,-0.15,-3.19,3.20,3.05,3.31,3.04,3.05,3.04
44.33,-0.09,-3.12,-0.08,-3.12,3.14,2.98,3.21,3.05,3.06,3.03
44.78,-0.01,-3.04,-0.03,-3.06,3.09,2.91,3.11,3.07,3.06,3.03
45.23,0.02,-3.01,-0.00,-3.02,3.03,2.84,3.02,3.05,3.03,3.02
45.68,0.01,-3.01,0.02,-3.00,2.98,2.77,2.93,2.99,3.00,3.02
46.13,0.03,-2.99,0.06,-2.96,2.93,2.71,2.84,2.96,2.99,3.02
46.60,0.13,-2.89,0.12,-2.90,2.87,2.64,2.75,3.00,3.00,3.02
47.06,0.23,-2.79,0.21,-2.82,2.82,2.57,2.67,3.04,3.02,3.02
47.53,0.28,-2.75,0.28,-2.74,2.76,2.51,2.58,3.03,3.04,3.02
48.01,0.34,-2.69,0.33,-2.70,2.70,2.44,2.50,3.03,3.03,3.03
48.49,0.39,-2.64,0.38,-2.65,2.63,2.38,2.43,3.02,3.02,3.03
48.97,0.44,-2.60,0.47,-2.57,2.58,2.32,2.35,3.02,3.05,3.04
49.46,0.55,-2.49,0.55,-2.49,2.52,2.25,2.28,3.07,3.07,3.04
49.96,0.66,-2.39,0.60,-2.45,2.47,2.19,2.20,3.12,3.07,3.05
50.46,0.64,-2.42,0.63,-2.43,2.41,2.13,2.13,3.05,3.04,3.05
50.96,0.60,-2.47,0.67,-2.39,2.36,2.06,2.06,2.96,3.03,3.07
51.47,0.73,-2.34,0.73,-2.34,2.31,2.00,2.00,3.03,3.04,3.07
51.99,0.87,-2.20,0.81,-2.26,2.26,1.94,1.93,3.12,3.07,3.07
52.51,0.89,-2.18,0.89,-2.18,2.21,1.88,1.87,3.10,3.10,3.07
53.03,0.90,-2.17,0.93,-2.14,2.17,1.82,1.81,3.07,3.10,3.07
53.56,0.97,-2.10,0.96,-2.11,2.12,1.76,1.74,3.09,3.09,3.07
54.10,1.03,-2.05,1.00,-2.07,2.08,1.70,1.68,3.11,3.08,3.08
54.64,1.04,-2.04,1.04,-2.04,2.04,1.64,1.62,3.07,3.08,3.08
55.18,1.06,-2.02,1.07,-2.01,1.99,1.58,1.57,3.05,3.06,3.08
55.74,1.11,-1.96,1.11,-1.97,1.95,1.52,1.51,3.06,3.06,3.07
56.29,1.17,-1.90,1.16,-1.91,1.89,1.46,1.45,3.06,3.06,3.07
56.86,1.23,-1.84,1.22,-1.84,1.83,1.40,1.40,3.06,3.05,3.07
57.42,1.28,-1.78,1.28,-1.77,1.76,1.34,1.34,3.04,3.05,3.06
58.00,1.34,-1.71,1.36,-1.69,1.69,1.28,1.29,3.03,3.05,3.04
58.58,1.44,-1.59,1.43,-1.60,1.62,1.22,1.23,3.05,3.05,3.03
59.16,1.52,-1.50,1.49,-1.52,1.54,1.16,1.18,3.06,3.03,3.02
59.76,1.54,-1.47,1.55,-1.45,1.46,1.10,1.12,3.00,3.01,3.00
60.35,1.58,-1.40,1.59,-1.39,1.39,1.04,1.07,2.97,2.98,2.98
60.96,1.64,-1.32,1.64,-1.32,1.32,0.99,1.01,2.96,2.96,2.95
61.57,1.70,-1.23,1.69,-1.24,1.24,0.93,0.96,2.94,2.93,2.93
62.18,1.74,-1.16,1.72,-1.17,1.16,0.87,0.91,2.90,2.89,2.89
62.80,1.74,-1.12,1.76,-1.10,1.08,0.81,0.85,2.82,2.83,2.86
63.43,1.79,-1.02,1.79,-1.02,0.99,0.75,0.80,2.78,2.78,2.81
64.07,1.86,-0.92,1.84,-0.93,0.91,0.69,0.74,2.76,2.75,2.77
64.71,1.92,-0.81,1.95,-0.78,0.82,0.63,0.69,2.73,2.76,2.73
65.35,2.01,-0.68,2.01,-0.68,0.72,0.57,0.63,2.73,2.74,2.69
66.01,2.13,-0.52,2.04,-0.61,0.63,0.51,0.58,2.76,2.67,2.65
66.67,2.02,-0.59,2.07,-0.55,0.54,0.45,0.52,2.56,2.60,2.61
67.33,2.05,-0.53,2.10,-0.47,0.44,0.38,0.46,2.49,2.54,2.58
68.01,2.20,-0.34,2.16,-0.38,0.34,0.32,0.41,2.54,2.50,2.54
68.69,2.28,-0.23,2.26,-0.25,0.25,0.26,0.35,2.53,2.51,2.51
69.37,2.33,-0.15,2.33,-0.15,0.17,0.19,0.29,2.49,2.49,2.48
70.07,2.36,-0.09,2.38,-0.07,0.09,0.13,0.23,2.45,2.46,2.45
70.77,2.43,0.01,2.45,0.03,0.01,0.06,0.17,2.44,2.46,2.42
71.48,2.53,0.13,2.51,0.12,-0.07,-0.01,0.11,2.46,2.44,2.39
72.19,2.59,0.23,2.53,0.17,-0.15,-0.08,0.05,2.43,2.37,2.36
72.91,2.50,0.17,2.51,0.18,-0.23,-0.15,-0.01,2.26,2.27,2.32
73.64,2.46,0.17,2.52,0.23,-0.31,-0.22,-0.07,2.15,2.21,2.29
74.38,2.57,0.31,2.60,0.34,-0.39,-0.29,-0.13,2.18,2.21,2.25
75.12,2.77,0.55,2.71,0.50,-0.47,-0.37,-0.19,2.30,2.24,2.22
75.87,2.84,0.67,2.79,0.62,-0.55,-0.44,-0.26,2.29,2.24,2.17
76.63,2.79,0.65,2.82,0.69,-0.64,-0.52,-0.32,2.15,2.18,2.13
77.40,2.79,0.70,2.82,0.73,-0.74,-0.60,-0.38,2.05,2.08,2.09
78.17,2.86,0.81,2.84,0.80,-0.84,-0.69,-0.45,2.02,2.00,2.05
78.95,2.90,0.90,2.89,0.89,-0.93,-0.77,-0.52,1.97,1.96,2.00
79.74,2.94,0.98,2.93,0.98,-1.00,-0.86,-0.58,1.94,1.93,1.96
80.54,2.97,1.06,3.00,1.09,-1.06,-0.95,-0.65,1.91,1.94,1.91
81.35,3.05,1.18,3.05,1.18,-1.12,-1.05,-0.72,1.92,1.93,1.87
82.16,3.15,1.32,3.09,1.26,-1.19,-1.14,-0.79,1.96,1.90,1.83
82.98,3.06,1.27,3.08,1.29,-1.27,-1.24,-0.86,1.79,1.81,1.79
83.81,3.05,1.30,3.03,1.28,-1.34,-1.34,-0.93,1.71,1.69,1.74
84.65,2.99,1.28,3.02,1.31,-1.41,-1.45,-1.00,1.58,1.61,1.71
85.50,3.06,1.39,3.11,1.44,-1.49,-1.55,-1.07,1.57,1.62,1.67
86.35,3.24,1.61,3.19,1.56,-1.56,-1.65,-1.15,1.68,1.63,1.62
87.22,3.34,1.76,3.28,1.70,-1.64,-1.76,-1.22,1.69,1.64,1.58
88.09,3.26,1.72,3.32,1.78,-1.74,-1.86,-1.30,1.52,1.59,1.53
88.97,3.36,1.86,3.34,1.84,-1.84,-1.96,-1.37,1.52,1.50,1.50
89.86,3.36,1.90,3.37,1.92,-1.95,-2.05,-1.45,1.41,1.42,1.45
90.76,3.44,2.03,3.42,2.01,-2.05,-2.14,-1.53,1.39,1.37,1.41
91.66,3.46,2.09,3.47,2.10,-2.12,-2.21,-1.61,1.33,1.34,1.37
92.58,3.51,2.17,3.55,2.22,-2.19,-2.28,-1.69,1.31,1.35,1.33
93.51,3.63,2.34,3.59,2.30,-2.26,-2.34,-1.78,1.37,1.34,1.29
94.44,3.65,2.40,3.61,2.36,-2.31,-2.39,-1.86,1.33,1.30,1.25
95.39,3.57,2.36,3.60,2.39,-2.37,-2.43,-1.94,1.20,1.23,1.21
96.34,3.56,2.38,3.56,2.39,-2.42,-2.45,-2.03,1.14,1.14,1.17
97.30,3.55,2.41,3.54,2.41,-2.46,-2.47,-2.11,1.09,1.08,1.13
98.28,3.54,2.45,3.54,2.45,-2.49,-2.48,-2.20,1.05,1.05,1.09
99.26,3.53,2.48,3.53,2.49,-2.50,-2.48,-2.29,1.03,1.04,1.05
100.25,3.53,2.52,3.55,2.54,-2.50,-2.48,-2.38,1.03,1.05,1.01
101.25,3.55,2.58,3.53,2.57,-2.51,-2.47,-2.46,1.04,1.02,0.97
102.27,3.52,2.60,3.46,2.54,-2.52,-2.46,-2.55,1.00,0.94,0.92
103.29,3.32,2.45,3.35,2.48,-2.51,-2.44,-2.64,0.81,0.85,0.87
104.32,3.20,2.38,3.24,2.41,-2.47,-2.42,-2.73,0.73,0.77,0.82
105.37,3.19,2.41,3.17,2.39,-2.41,-2.40,-2.81,0.78,0.76,0.78
106.42,3.12,2.39,3.15,2.42,-2.34,-2.38,-2.90,0.78,0.81,0.73
107.48,3.11,2.42,3.06,2.37,-2.27,-2.35,-2.99,0.84,0.79,0.68
108.56,2.95,2.31,2.88,2.25,-2.21,-2.32,-3.07,0.74,0.67,0.63
109.64,2.62,2.03,2.67,2.08,-2.17,-2.29,-3.15,0.45,0.50,0.58
110.74,2.48,1.93,2.53,1.99,-2.13,-2.25,-3.23,0.35,0.40,0.54
111.85,2.47,1.96,2.53,2.03,-2.10,-2.21,-3.31,0.37,0.43,0.51
112.97,2.64,2.17,2.54,2.07,-2.06,-2.16,-3.38,0.58,0.48,0.47
114.10,2.62,2.19,2.52,2.09,-2.01,-2.11,-3.45,0.61,0.50,0.43
115.24,2.32,1.92,2.51,2.11,-1.98,-2.06,-3.52,0.33,0.52,0.40
116.39,2.44,2.07,2.43,2.06,-1.98,-2.01,-3.58,0.46,0.45,0.36
117.55,2.50,2.15,2.31,1.97,-1.99,-1.97,-3.64,0.51,0.33,0.34
118.73,2.19,1.87,2.25,1.93,-1.99,-1.95,-3.70,0.20,0.26,0.32
119.92,2.06,1.76,2.19,1.89,-1.99,-1.95,-3.75,0.07,0.20,0.30
121.12,2.27,1.98,2.24,1.96,-2.02,-1.98,-3.79,0.25,0.22,0.28
122.33,2.43,2.16,2.38,2.11,-2.08,-2.04,-3.83,0.34,0.30,0.27
123.55,2.54,2.29,2.46,2.21,-2.18,-2.13,-3.87,0.36,0.28,0.25
124.79,2.47,2.23,2.51,2.27,-2.30,-2.26,-3.89,0.16,0.20,0.24
126.03,2.50,2.28,2.62,2.40,-2.45,-2.40,-3.92,0.05,0.17,0.22
127.29,2.83,2.62,2.78,2.57,-2.59,-2.56,-3.94,0.24,0.19,0.21
128.57,3.06,2.86,2.98,2.79,-2.74,-2.73,-3.95,0.32,0.25,0.19
129.85,3.11,2.93,3.13,2.96,-2.86,-2.89,-3.96,0.25,0.28,0.18
131.15,3.20,3.03,3.20,3.03,-2.98,-3.06,-3.96,0.22,0.22,0.17
132.46,3.25,3.10,3.27,3.12,-3.10,-3.22,-3.96,0.14,0.16,0.14
133.79,3.35,3.22,3.35,3.22,-3.24,-3.37,-3.95,0.11,0.11,0.13
135.12,3.47,3.36,3.43,3.32,-3.38,-3.51,-3.94,0.09,0.05,0.11
136.48,3.52,3.42,3.53,3.43,-3.52,-3.64,-3.93,0.00,0.01,0.10
137.84,3.62,3.54,3.65,3.57,-3.65,-3.77,-3.91,-0.03,0.00,0.08
139.22,3.84,3.78,3.87,3.80,-3.79,-3.89,-3.90,0.05,0.08,0.06
140.61,4.07,4.03,4.08,4.04,-3.94,-4.00,-3.87,0.12,0.13,0.04
142.02,4.35,4.33,4.21,4.19,-4.10,-4.11,-3.85,0.24,0.10,0.02
143.44,4.23,4.23,4.28,4.28,-4.26,-4.21,-3.82,-0.03,0.02,-0.01
144.87,4.25,4.28,4.33,4.36,-4.41,-4.30,-3.80,-0.16,-0.08,-0.03
146.32,4.43,4.49,4.41,4.47,-4.55,-4.39,-3.77,-0.12,-0.15,-0.06
147.78,4.59,4.68,4.56,4.66,-4.68,-4.48,-3.74,-0.09,-0.12,-0.10
149.26,4.69,4.82,4.69,4.83,-4.80,-4.55,-3.71,-0.12,-0.11,-0.13
150.75,4.77,4.95,4.76,4.94,-4.92,-4.63,-3.69,-0.15,-0.16,-0.18
152.26,4.79,5.02,4.78,5.01,-5.03,-4.70,-3.66,-0.24,-0.25,-0.23
153.78,4.79,5.07,4.80,5.09,-5.11,-4.76,-3.63,-0.32,-0.31,-0.29
155.32,4.79,5.14,4.83,5.18,-5.14,-4.82,-3.61,-0.36,-0.31,-0.35
156.88,4.87,5.27,4.85,5.26,-5.14,-4.87,-3.58,-0.28,-0.29,-0.40
158.44,4.85,5.31,4.78,5.24,-5.12,-4.92,-3.56,-0.27,-0.33,-0.46
160.03,4.66,5.17,4.62,5.14,-5.08,-4.97,-3.54,-0.42,-0.46,-0.51
161.63,4.37,4.92,4.45,5.01,-5.05,-5.01,-3.52,-0.69,-0.60,-0.56
163.24,4.27,4.87,4.29,4.89,-5.04,-5.04,-3.51,-0.77,-0.75,-0.61
164.88,4.32,4.95,4.22,4.86,-5.04,-5.07,-3.49,-0.72,-0.82,-0.64
166.53,4.19,4.85,4.32,4.98,-5.05,-5.10,-3.48,-0.86,-0.73,-0.66
168.19,4.40,5.08,4.41,5.10,-5.08,-5.12,-3.47,-0.69,-0.67,-0.68
169.87,4.67,5.36,4.50,5.20,-5.15,-5.13,-3.46,-0.48,-0.65,-0.69
171.57,4.53,5.23,4.62,5.32,-5.23,-5.14,-3.46,-0.70,-0.62,-0.70
173.29,4.62,5.31,4.66,5.35,-5.32,-5.15,-3.46,-0.70,-0.66,-0.70
175.02,4.74,5.42,4.67,5.36,-5.38,-5.15,-3.46,-0.64,-0.71,-0.68
176.77,4.74,5.41,4.75,5.42,-5.41,-5.14,-3.46,-0.67,-0.66,-0.67
178.54,4.74,5.39,4.79,5.44,-5.40,-5.13,-3.47,-0.66,-0.61,-0.65
180.32,4.83,5.46,4.79,5.42,-5.37,-5.12,-3.48,-0.54,-0.58,-0.63
182.13,4.81,5.42,4.76,5.37,-5.34,-5.10,-3.49,-0.53,-0.58,-0.61
183.95,4.66,5.25,4.70,5.30,-5.30,-5.07,-3.51,-0.64,-0.59,-0.59
185.79,4.61,5.19,4.61,5.19,-5.27,-5.05,-3.53,-0.66,-0.66,-0.58
187.65,4.58,5.15,4.55,5.13,-5.23,-5.01,-3.55,-0.65,-0.68,-0.58
189.52,4.52,5.09,4.56,5.13,-5.18,-4.98,-3.57,-0.66,-0.62,-0.57
191.42,4.58,5.15,4.59,5.15,-5.13,-4.94,-3.59,-0.55,-0.54,-0.57
193.33,4.64,5.20,4.60,5.17,-5.08,-4.90,-3.62,-0.44,-0.48,-0.56
195.27,4.59,5.15,4.56,5.13,-5.04,-4.85,-3.65,-0.45,-0.47,-0.57
197.22,4.46,5.03,4.46,5.03,-5.00,-4.80,-3.68,-0.54,-0.54,-0.58
199.19,4.30,4.87,4.34,4.92,-4.96,-4.75,-3.71,-0.67,-0.63,-0.58
201.18,4.25,4.84,4.24,4.83,-4.92,-4.69,-3.75,-0.68,-0.68,-0.59
203.19,4.22,4.82,4.22,4.81,-4.88,-4.64,-3.79,-0.66,-0.67,-0.60
205.23,4.20,4.81,4.22,4.83,-4.84,-4.58,-3.82,-0.64,-0.62,-0.61
207.28,4.25,4.87,4.21,4.83,-4.80,-4.52,-3.86,-0.56,-0.59,-0.62
209.35,4.20,4.82,4.19,4.82,-4.77,-4.46,-3.90,-0.58,-0.59,-0.63
211.44,4.12,4.76,4.14,4.78,-4.75,-4.39,-3.94,-0.63,-0.61,-0.65
213.56,4.06,4.71,4.06,4.71,-4.71,-4.33,-3.98,-0.65,-0.65,-0.65
215.69,4.00,4.67,3.99,4.66,-4.67,-4.26,-4.01,-0.67,-0.68,-0.67
217.85,3.90,4.58,3.92,4.60,-4.60,-4.19,-4.05,-0.71,-0.69,-0.68
220.03,3.84,4.54,3.83,4.53,-4.53,-4.12,-4.09,-0.69,-0.70,-0.70
222.23,3.75,4.45,3.73,4.43,-4.44,-4.06,-4.12,-0.69,-0.72,-0.71
224.45,3.61,4.32,3.63,4.35,-4.34,-3.99,-4.15,-0.73,-0.71,-0.71
226.70,3.51,4.23,3.53,4.25,-4.23,-3.92,-4.18,-0.72,-0.70,-0.72
228.96,3.45,4.17,3.42,4.14,-4.11,-3.85,-4.20,-0.66,-0.69,-0.73
231.25,3.30,4.02,3.28,4.01,-3.98,-3.78,-4.23,-0.68,-0.70,-0.72
233.57,3.13,3.86,3.13,3.86,-3.85,-3.71,-4.24,-0.73,-0.72,-0.73
235.90,2.95,3.67,2.97,3.70,-3.73,-3.64,-4.26,-0.78,-0.76,-0.72
238.26,2.86,3.58,2.85,3.56,-3.61,-3.57,-4.27,-0.76,-0.77,-0.72
240.64,2.75,3.45,2.76,3.47,-3.50,-3.50,-4.27,-0.75,-0.75,-0.71
243.05,2.69,3.39,2.69,3.39,-3.40,-3.43,-4.27,-0.71,-0.72,-0.70
245.48,2.63,3.32,2.61,3.31,-3.31,-3.36,-4.26,-0.68,-0.69,-0.70
247.93,2.54,3.23,2.55,3.24,-3.22,-3.30,-4.25,-0.69,-0.67,-0.69
250.41,2.48,3.16,2.47,3.16,-3.14,-3.23,-4.23,-0.66,-0.67,-0.69
252.92,2.40,3.08,2.39,3.07,-3.06,-3.16,-4.20,-0.66,-0.67,-0.68
255.45,2.30,2.98,2.30,2.99,-2.97,-3.10,-4.17,-0.67,-0.66,-0.69
258.00,2.20,2.89,2.20,2.88,-2.87,-3.04,-4.14,-0.68,-0.68,-0.69
260.58,2.09,2.78,2.07,2.77,-2.77,-2.97,-4.09,-0.68,-0.70,-0.69
263.19,1.95,2.65,1.96,2.66,-2.67,-2.91,-4.05,-0.72,-0.71,-0.70
265.82,1.84,2.54,1.86,2.56,-2.56,-2.85,-3.99,-0.73,-0.70,-0.70
268.48,1.79,2.49,1.77,2.47,-2.47,-2.79,-3.94,-0.68,-0.70,-0.71
271.16,1.70,2.41,1.67,2.38,-2.38,-2.73,-3.87,-0.68,-0.70,-0.71
273.87,1.56,2.27,1.58,2.29,-2.30,-2.67,-3.81,-0.74,-0.72,-0.71
276.61,1.48,2.19,1.49,2.20,-2.23,-2.61,-3.74,-0.75,-0.74,-0.72
279.38,1.43,2.15,1.44,2.15,-2.16,-2.55,-3.66,-0.74,-0.73,-0.72
282.17,1.42,2.13,1.40,2.12,-2.11,-2.50,-3.58,-0.69,-0.70,-0.71
284.99,1.40,2.10,1.39,2.09,-2.06,-2.44,-3.50,-0.67,-0.68,-0.70
287.84,1.33,2.03,1.35,2.05,-2.03,-2.39,-3.42,-0.71,-0.69,-0.71
290.72,1.35,2.05,1.32,2.01,-2.02,-2.34,-3.34,-0.67,-0.70,-0.70
293.63,1.27,1.96,1.31,2.01,-2.03,-2.28,-3.25,-0.76,-0.71,-0.69
296.57,1.35,2.03,1.32,2.01,-2.05,-2.23,-3.16,-0.70,-0.72,-0.68
299.53,1.38,2.06,1.36,2.05,-2.08,-2.18,-3.08,-0.70,-0.72,-0.69
302.53,1.39,2.07,1.45,2.13,-2.13,-2.13,-2.99,-0.74,-0.68,-0.68
305.55,1.56,2.24,1.51,2.19,-2.19,-2.08,-2.90,-0.63,-0.68,-0.68
308.61,1.61,2.29,1.59,2.27,-2.26,-2.04,-2.81,-0.66,-0.68,-0.68
311.69,1.62,2.30,1.67,2.36,-2.35,-1.99,-2.72,-0.73,-0.67,-0.69
314.81,1.75,2.45,1.73,2.42,-2.43,-1.95,-2.63,-0.68,-0.70,-0.70
317.96,1.82,2.52,1.79,2.49,-2.51,-1.90,-2.54,-0.69,-0.72,-0.70
321.14,1.83,2.54,1.85,2.56,-2.57,-1.86,-2.45,-0.74,-0.72,-0.71
324.35,1.88,2.59,1.89,2.60,-2.61,-1.81,-2.37,-0.73,-0.72,-0.71
327.59,1.92,2.64,1.93,2.65,-2.62,-1.77,-2.28,-0.71,-0.70,-0.72
330.87,1.96,2.69,1.93,2.67,-2.61,-1.73,-2.19,-0.65,-0.68,-0.74
334.18,1.90,2.65,1.88,2.63,-2.57,-1.69,-2.11,-0.68,-0.69,-0.75
337.52,1.76,2.52,1.78,2.53,-2.51,-1.65,-2.03,-0.75,-0.73,-0.76
340.90,1.65,2.41,1.66,2.42,-2.43,-1.61,-1.94,-0.78,-0.77,-0.76
344.30,1.54,2.31,1.54,2.31,-2.33,-1.57,-1.86,-0.79,-0.80,-0.77
347.75,1.44,2.23,1.41,2.20,-2.23,-1.54,-1.78,-0.79,-0.82,-0.79
351.23,1.27,2.07,1.28,2.09,-2.12,-1.50,-1.70,-0.86,-0.84,-0.80
354.74,1.15,1.96,1.18,1.99,-2.02,-1.47,-1.63,-0.87,-0.84,-0.82
358.28,1.09,1.91,1.08,1.91,-1.91,-1.43,-1.55,-0.83,-0.84,-0.83
361.87,1.04,1.88,1.02,1.87,-1.82,-1.40,-1.48,-0.78,-0.79,-0.84
365.49,0.92,1.78,0.95,1.80,-1.74,-1.36,-1.40,-0.82,-0.79,-0.86
369.14,0.89,1.76,0.82,1.69,-1.69,-1.33,-1.33,-0.80,-0.87,-0.87
372.83,0.69,1.57,0.70,1.58,-1.65,-1.30,-1.26,-0.96,-0.95,-0.88
376.56,0.56,1.45,0.64,1.53,-1.63,-1.26,-1.19,-1.07,-0.99,-0.89
380.33,0.63,1.53,0.61,1.51,-1.61,-1.23,-1.12,-0.99,-1.00,-0.90
384.13,0.70,1.61,0.65,1.56,-1.59,-1.20,-1.05,-0.89,-0.94,-0.91
387.97,0.66,1.58,0.71,1.63,-1.55,-1.17,-0.99,-0.89,-0.84,-0.93
391.85,0.69,1.62,0.68,1.62,-1.49,-1.14,-0.92,-0.81,-0.81,-0.94
395.77,0.66,1.60,0.59,1.54,-1.43,-1.11,-0.86,-0.77,-0.84,-0.95
399.73,0.41,1.37,0.43,1.39,-1.34,-1.08,-0.80,-0.93,-0.91,-0.96
403.72,0.21,1.18,0.21,1.18,-1.22,-1.05,-0.74,-1.01,-1.01,-0.97
407.76,-0.02,0.97,0.02,1.00,-1.07,-1.03,-0.68,-1.09,-1.05,-0.99
411.84,-0.14,0.86,-0.12,0.88,-0.90,-1.00,-0.62,-1.04,-1.02,-1.00
415.96,-0.21,0.80,-0.27,0.74,-0.72,-0.97,-0.56,-0.94,-1.00,-1.01
420.12,-0.41,0.60,-0.42,0.59,-0.57,-0.94,-0.51,-0.98,-0.99,-1.01
424.32,-0.63,0.39,-0.58,0.43,-0.44,-0.92,-0.45,-1.07,-1.03,-1.02
428.56,-0.72,0.30,-0.73,0.29,-0.34,-0.89,-0.40,-1.06,-1.07,-1.02
432.85,-0.79,0.22,-0.81,0.21,-0.26,-0.86,-0.35,-1.06,-1.07,-1.01
437.18,-0.84,0.16,-0.83,0.17,-0.21,-0.84,-0.30,-1.05,-1.04,-1.00
441.55,-0.84,0.14,-0.84,0.15,-0.16,-0.81,-0.26,-1.01,-1.00,-0.98
445.96,-0.79,0.17,-0.80,0.16,-0.14,-0.79,-0.21,-0.93,-0.94,-0.96
450.42,-0.78,0.15,-0.78,0.15,-0.12,-0.76,-0.17,-0.90,-0.90,-0.93
454.93,-0.72,0.17,-0.75,0.15,-0.11,-0.73,-0.13,-0.83,-0.86,-0.89
459.48,-0.76,0.09,-0.72,0.14,-0.11,-0.71,-0.09,-0.87,-0.83,-0.86
464.07,-0.69,0.13,-0.71,0.11,-0.11,-0.68,-0.05,-0.80,-0.82,-0.83
468.71,-0.67,0.11,-0.70,0.08,-0.11,-0.65,-0.02,-0.78,-0.81,-0.79
473.40,-0.71,0.03,-0.67,0.08,-0.09,-0.63,0.01,-0.81,-0.76,-0.75
478.13,-0.64,0.06,-0.64,0.07,-0.08,-0.60,0.04,-0.72,-0.72,-0.71
482.91,-0.56,0.11,-0.58,0.10,-0.08,-0.57,0.06,-0.64,-0.66,-0.68
487.74,-0.51,0.14,-0.50,0.15,-0.10,-0.54,0.09,-0.61,-0.60,-0.65
492.62,-0.48,0.15,-0.50,0.12,-0.13,-0.51,0.11,-0.61,-0.63,-0.63
497.55,-0.46,0.15,-0.52,0.09,-0.16,-0.48,0.13,-0.63,-0.69,-0.61
502.52,-0.59,0.01,-0.49,0.11,-0.19,-0.45,0.14,-0.78,-0.68,-0.60
507.55,-0.42,0.18,-0.37,0.23,-0.22,-0.42,0.15,-0.64,-0.59,-0.60
