frequency,raw,error,smoothed,error_smoothed,equalization,parametric_eq,fixed_band_eq,equalized_raw,equalized_smoothed,target
20.00,-5.13,-3.32,-5.14,-3.32,3.33,1.92,0.45,-1.80,-1.80,-1.81
20.20,-5.08,-3.27,-5.09,-3.28,3.28,2.00,0.46,-1.81,-1.81,-1.81
20.40,-5.05,-3.24,-5.04,-3.22,3.22,2.07,0.48,-1.83,-1.82,-1.81
20.61,-4.98,-3.17,-4.98,-3.17,3.16,2.13,0.49,-1.83,-1.82,-1.81
20.81,-4.90,-3.09,-4.91,-3.11,3.10,2.18,0.51,-1.81,-1.82,-1.81
21.02,-4.84,-3.04,-4.84,-3.04,3.03,2.22,0.52,-1.81,-1.81,-1.81
21.23,-4.78,-2.98,-4.78,-2.97,2.97,2.24,0.54,-1.81,-1.81,-1.81
21.44,-4.71,-2.91,-4.71,-2.90,2.91,2.25,0.56,-1.81,-1.80,-1.80
21.66,-4.63,-2.83,-4.64,-2.83,2.84,2.23,0.57,-1.80,-1.80,-1.80
21.87,-4.56,-2.76,-4.57,-2.77,2.77,2.21,0.59,-1.79,-1.80,-1.80
22.09,-4.50,-2.70,-4.50,-2.70,2.70,2.17,0.61,-1.80,-1.80,-1.80
22.31,-4.44,-2.64,-4.44,-2.64,2.63,2.11,0.63,-1.81,-1.80,-1.80
22.54,-4.36,-2.57,-4.37,-2.57,2.56,2.05,0.65,-1.80,-1.80,-1.80
22.76,-4.29,-2.50,-4.29,-2.50,2.50,1.97,0.67,-1.79,-1.80,-1.80
22.99,-4.22,-2.43,-4.22,-2.43,2.43,1.89,0.69,-1.79,-1.79,-1.80
23.22,-4.15,-2.36,-4.16,-2.36,2.37,1.80,0.71,-1.79,-1.79,-1.79
23.45,-4.09,-2.30,-4.09,-2.30,2.30,1.71,0.73,-1.79,-1.79,-1.79
23.69,-4.02,-2.23,-4.02,-2.23,2.23,1.62,0.75,-1.79,-1.79,-1.79
23.92,-3.95,-2.16,-3.96,-2.17,2.16,1.53,0.78,-1.79,-1.79,-1.79
24.16,-3.89,-2.10,-3.89,-2.10,2.10,1.45,0.80,-1.79,-1.79,-1.79
24.40,-3.82,-2.03,-3.82,-2.03,2.03,1.36,0.82,-1.79,-1.79,-1.79
24.65,-3.75,-1.97,-3.75,-1.96,1.96,1.27,0.84,-1.79,-1.78,-1.79
24.89,-3.67,-1.89,-3.68,-1.90,1.90,1.19,0.87,-1.77,-1.78,-1.78
25.14,-3.61,-1.83,-3.61,-1.83,1.83,1.12,0.89,-1.78,-1.78,-1.78
25.39,-3.55,-1.77,-3.54,-1.76,1.77,1.04,0.91,-1.79,-1.78,-1.78
25.65,-3.47,-1.69,-3.48,-1.70,1.70,0.97,0.93,-1.77,-1.78,-1.78
25.91,-3.41,-1.64,-3.42,-1.64,1.63,0.91,0.96,-1.78,-1.78,-1.78
26.16,-3.35,-1.57,-3.35,-1.57,1.57,0.84,0.98,-1.78,-1.78,-1.78
26.43,-3.28,-1.51,-3.28,-1.51,1.50,0.78,1.00,-1.78,-1.78,-1.78
26.69,-3.20,-1.43,-3.21,-1.44,1.44,0.73,1.02,-1.76,-1.78,-1.77
26.96,-3.15,-1.38,-3.15,-1.37,1.38,0.67,1.04,-1.78,-1.77,-1.77
27.23,-3.08,-1.31,-3.08,-1.31,1.31,0.62,1.06,-1.77,-1.77,-1.77
27.50,-3.01,-1.24,-3.02,-1.25,1.25,0.57,1.07,-1.76,-1.77,-1.77
27.77,-2.95,-1.18,-2.95,-1.18,1.19,0.53,1.09,-1.77,-1.77,-1.77
28.05,-2.89,-1.12,-2.89,-1.12,1.12,0.48,1.10,-1.77,-1.77,-1.77
28.33,-2.83,-1.07,-2.83,-1.07,1.06,0.44,1.12,-1.77,-1.77,-1.77
28.62,-2.77,-1.01,-2.77,-1.00,1.00,0.40,1.13,-1.77,-1.77,-1.76
28.90,-2.70,-0.94,-2.70,-0.94,0.94,0.37,1.13,-1.76,-1.76,-1.76
29.19,-2.63,-0.87,-2.64,-0.88,0.88,0.33,1.14,-1.75,-1.76,-1.76
29.48,-2.58,-0.82,-2.57,-0.81,0.82,0.30,1.14,-1.77,-1.76,-1.76
29.78,-2.51,-0.75,-2.52,-0.76,0.76,0.27,1.15,-1.76,-1.76,-1.76
30.08,-2.44,-0.69,-2.45,-0.69,0.69,0.24,1.14,-1.75,-1.76,-1.76
30.38,-2.40,-0.65,-2.39,-0.63,0.63,0.21,1.14,-1.77,-1.75,-1.76
30.68,-2.31,-0.56,-2.33,-0.57,0.57,0.18,1.13,-1.74,-1.76,-1.76
30.99,-2.27,-0.52,-2.27,-0.51,0.51,0.15,1.12,-1.76,-1.75,-1.75
31.30,-2.21,-0.46,-2.21,-0.45,0.46,0.12,1.11,-1.76,-1.75,-1.75
31.61,-2.14,-0.39,-2.15,-0.40,0.40,0.10,1.10,-1.75,-1.75,-1.75
31.93,-2.09,-0.34,-2.09,-0.34,0.34,0.07,1.08,-1.75,-1.75,-1.75
32.24,-2.03,-0.28,-2.03,-0.28,0.28,0.05,1.06,-1.75,-1.74,-1.75
32.57,-1.96,-0.22,-1.98,-0.23,0.23,0.02,1.03,-1.74,-1.75,-1.75
32.89,-1.92,-0.18,-1.92,-0.17,0.17,-0.00,1.00,-1.75,-1.74,-1.75
33.22,-1.87,-0.13,-1.86,-0.12,0.12,-0.02,0.97,-1.76,-1.75,-1.74
33.55,-1.79,-0.05,-1.81,-0.06,0.06,-0.05,0.94,-1.73,-1.75,-1.74
33.89,-1.75,-0.01,-1.75,-0.01,0.00,-0.07,0.91,-1.75,-1.74,-1.74
34.23,-1.69,0.05,-1.69,0.05,-0.05,-0.09,0.87,-1.74,-1.74,-1.74
34.57,-1.63,0.11,-1.63,0.11,-0.11,-0.11,0.83,-1.74,-1.74,-1.74
34.92,-1.57,0.16,-1.57,0.16,-0.16,-0.13,0.79,-1.73,-1.73,-1.74
35.27,-1.51,0.22,-1.52,0.22,-0.21,-0.16,0.74,-1.73,-1.73,-1.74
35.62,-1.47,0.26,-1.47,0.27,-0.26,-0.18,0.70,-1.74,-1.73,-1.73
35.97,-1.42,0.31,-1.42,0.31,-0.31,-0.20,0.65,-1.73,-1.73,-1.73
36.33,-1.37,0.36,-1.37,0.36,-0.36,-0.22,0.60,-1.73,-1.73,-1.73
36.70,-1.32,0.41,-1.32,0.41,-0.41,-0.24,0.55,-1.73,-1.73,-1.73
37.06,-1.27,0.46,-1.28,0.45,-0.46,-0.26,0.50,-1.73,-1.73,-1.73
37.43,-1.23,0.50,-1.23,0.50,-0.50,-0.28,0.44,-1.74,-1.73,-1.73
37.81,-1.18,0.54,-1.18,0.55,-0.55,-0.31,0.39,-1.74,-1.73,-1.73
38.19,-1.12,0.60,-1.12,0.60,-0.60,-0.33,0.33,-1.72,-1.72,-1.72
38.57,-1.06,0.66,-1.07,0.65,-0.65,-0.35,0.28,-1.71,-1.72,-1.72
38.95,-1.03,0.69,-1.03,0.70,-0.69,-0.37,0.22,-1.72,-1.72,-1.72
39.34,-0.98,0.74,-0.99,0.73,-0.73,-0.40,0.16,-1.71,-1.72,-1.72
39.74,-0.95,0.77,-0.95,0.77,-0.77,-0.42,0.10,-1.73,-1.72,-1.72
40.14,-0.90,0.81,-0.91,0.81,-0.81,-0.44,0.05,-1.71,-1.72,-1.72
40.54,-0.86,0.85,-0.87,0.84,-0.85,-0.47,-0.01,-1.71,-1.72,-1.72
40.94,-0.84,0.87,-0.84,0.88,-0.88,-0.49,-0.08,-1.72,-1.72,-1.72
41.35,-0.81,0.90,-0.80,0.91,-0.92,-0.51,-0.14,-1.73,-1.72,-1.71
41.76,-0.75,0.96,-0.77,0.95,-0.95,-0.54,-0.20,-1.70,-1.71,-1.71
42.18,-0.73,0.98,-0.73,0.98,-0.98,-0.56,-0.26,-1.71,-1.71,-1.71
42.60,-0.69,1.02,-0.69,1.02,-1.01,-0.59,-0.32,-1.70,-1.71,-1.71
43.03,-0.66,1.05,-0.67,1.04,-1.04,-0.62,-0.39,-1.71,-1.71,-1.71
43.46,-0.64,1.06,-0.63,1.07,-1.07,-0.64,-0.45,-1.72,-1.71,-1.71
43.90,-0.60,1.10,-0.61,1.10,-1.10,-0.67,-0.51,-1.70,-1.71,-1.71
44.33,-0.57,1.13,-0.58,1.13,-1.13,-0.70,-0.58,-1.70,-1.70,-1.70
44.78,-0.56,1.14,-0.55,1.15,-1.15,-0.73,-0.64,-1.71,-1.70,-1.70
45.23,-0.51,1.19,-0.53,1.18,-1.17,-0.76,-0.71,-1.69,-1.70,-1.70
45.68,-0.51,1.19,-0.50,1.20,-1.20,-0.79,-0.78,-1.71,-1.70,-1.70
46.13,-0.47,1.23,-0.48,1.22,-1.22,-0.82,-0.84,-1.69,-1.70,-1.70
46.60,-0.47,1.22,-0.47,1.23,-1.24,-0.85,-0.91,-1.71,-1.70,-1.70
47.06,-0.43,1.26,-0.44,1.26,-1.26,-0.88,-0.98,-1.69,-1.70,-1.70
47.53,-0.43,1.26,-0.42,1.27,-1.28,-0.91,-1.04,-1.71,-1.70,-1.69
48.01,-0.38,1.31,-0.40,1.30,-1.29,-0.95,-1.11,-1.68,-1.69,-1.69
48.49,-0.38,1.31,-0.38,1.31,-1.31,-0.98,-1.18,-1.69,-1.69,-1.69
48.97,-0.36,1.33,-0.36,1.33,-1.33,-1.01,-1.25,-1.69,-1.69,-1.69
49.46,-0.34,1.35,-0.35,1.34,-1.34,-1.05,-1.32,-1.68,-1.69,-1.69
49.96,-0.34,1.34,-0.33,1.36,-1.36,-1.08,-1.38,-1.70,-1.68,-1.69
50.46,-0.30,1.38,-0.32,1.37,-1.37,-1.12,-1.45,-1.67,-1.68,-1.69
50.96,-0.30,1.38,-0.31,1.38,-1.38,-1.15,-1.52,-1.68,-1.69,-1.68
51.47,-0.30,1.38,-0.29,1.39,-1.39,-1.19,-1.58,-1.69,-1.69,-1.68
51.99,-0.29,1.39,-0.28,1.40,-1.40,-1.23,-1.65,-1.70,-1.69,-1.68
52.51,-0.25,1.43,-0.27,1.41,-1.42,-1.26,-1.71,-1.67,-1.69,-1.68
53.03,-0.25,1.43,-0.25,1.43,-1.43,-1.30,-1.78,-1.68,-1.68,-1.68
53.56,-0.25,1.43,-0.24,1.44,-1.44,-1.33,-1.84,-1.69,-1.67,-1.68
54.10,-0.21,1.46,-0.23,1.45,-1.45,-1.37,-1.90,-1.66,-1.67,-1.68
54.64,-0.21,1.46,-0.22,1.46,-1.46,-1.40,-1.95,-1.67,-1.67,-1.68
55.18,-0.21,1.46,-0.21,1.46,-1.47,-1.44,-2.01,-1.68,-1.68,-1.67
55.74,-0.21,1.46,-0.21,1.46,-1.47,-1.47,-2.06,-1.69,-1.68,-1.67
56.29,-0.20,1.47,-0.20,1.47,-1.48,-1.50,-2.11,-1.68,-1.68,-1.67
56.86,-0.17,1.50,-0.18,1.49,-1.48,-1.53,-2.16,-1.66,-1.67,-1.67
57.42,-0.17,1.50,-0.17,1.49,-1.49,-1.56,-2.20,-1.66,-1.66,-1.67
58.00,-0.17,1.49,-0.17,1.50,-1.49,-1.59,-2.24,-1.66,-1.66,-1.67
58.58,-0.17,1.49,-0.17,1.49,-1.49,-1.62,-2.27,-1.66,-1.66,-1.67
59.16,-0.17,1.49,-0.17,1.49,-1.49,-1.64,-2.30,-1.67,-1.67,-1.66
59.76,-0.17,1.49,-0.17,1.49,-1.50,-1.66,-2.32,-1.67,-1.67,-1.66
60.35,-0.17,1.49,-0.17,1.49,-1.50,-1.68,-2.34,-1.67,-1.67,-1.66
60.96,-0.17,1.49,-0.17,1.49,-1.50,-1.70,-2.36,-1.67,-1.67,-1.66
61.57,-0.15,1.51,-0.16,1.50,-1.50,-1.72,-2.37,-1.66,-1.66,-1.66
62.18,-0.14,1.51,-0.15,1.51,-1.51,-1.73,-2.37,-1.65,-1.65,-1.66
62.80,-0.14,1.51,-0.14,1.51,-1.51,-1.74,-2.37,-1.65,-1.65,-1.66
63.43,-0.14,1.51,-0.14,1.51,-1.51,-1.74,-2.36,-1.65,-1.65,-1.65
64.07,-0.14,1.51,-0.14,1.51,-1.51,-1.75,-2.34,-1.65,-1.65,-1.65
64.71,-0.14,1.51,-0.14,1.51,-1.51,-1.75,-2.32,-1.65,-1.65,-1.65
65.35,-0.14,1.51,-0.15,1.50,-1.50,-1.74,-2.30,-1.64,-1.65,-1.65
66.01,-0.15,1.50,-0.16,1.49,-1.49,-1.74,-2.27,-1.65,-1.65,-1.65
66.67,-0.17,1.47,-0.17,1.48,-1.49,-1.73,-2.24,-1.66,-1.65,-1.65
67.33,-0.17,1.47,-0.17,1.47,-1.48,-1.71,-2.20,-1.65,-1.65,-1.65
68.01,-0.17,1.47,-0.17,1.47,-1.48,-1.70,-2.15,-1.65,-1.65,-1.64
68.69,-0.17,1.47,-0.17,1.47,-1.47,-1.68,-2.11,-1.65,-1.65,-1.64
69.37,-0.17,1.47,-0.17,1.47,-1.47,-1.66,-2.05,-1.64,-1.64,-1.64
70.07,-0.17,1.47,-0.17,1.47,-1.47,-1.64,-2.00,-1.64,-1.64,-1.64
70.77,-0.17,1.47,-0.17,1.47,-1.46,-1.61,-1.94,-1.64,-1.64,-1.64
71.48,-0.17,1.47,-0.17,1.47,-1.46,-1.58,-1.88,-1.63,-1.63,-1.64
72.19,-0.17,1.46,-0.17,1.46,-1.45,-1.55,-1.82,-1.63,-1.63,-1.64
72.91,-0.17,1.46,-0.19,1.45,-1.45,-1.52,-1.75,-1.62,-1.63,-1.64
73.64,-0.21,1.42,-0.20,1.43,-1.44,-1.49,-1.68,-1.65,-1.64,-1.63
74.38,-0.21,1.42,-0.21,1.42,-1.43,-1.45,-1.61,-1.64,-1.64,-1.63
75.12,-0.21,1.42,-0.21,1.42,-1.42,-1.42,-1.54,-1.63,-1.64,-1.63
75.87,-0.21,1.42,-0.21,1.42,-1.41,-1.38,-1.47,-1.62,-1.63,-1.63
76.63,-0.21,1.42,-0.22,1.41,-1.40,-1.34,-1.40,-1.61,-1.62,-1.63
77.40,-0.24,1.38,-0.24,1.39,-1.39,-1.30,-1.32,-1.63,-1.63,-1.63
78.17,-0.25,1.37,-0.24,1.38,-1.38,-1.26,-1.25,-1.63,-1.62,-1.63
78.95,-0.25,1.37,-0.26,1.37,-1.37,-1.22,-1.17,-1.62,-1.62,-1.62
79.74,-0.25,1.37,-0.27,1.35,-1.35,-1.18,-1.10,-1.61,-1.62,-1.62
80.54,-0.30,1.32,-0.28,1.34,-1.34,-1.14,-1.02,-1.64,-1.62,-1.62
81.35,-0.30,1.32,-0.30,1.32,-1.32,-1.10,-0.95,-1.63,-1.62,-1.62
82.16,-0.30,1.32,-0.32,1.30,-1.31,-1.06,-0.87,-1.61,-1.62,-1.62
82.98,-0.32,1.29,-0.32,1.30,-1.29,-1.02,-0.79,-1.62,-1.61,-1.62
83.81,-0.34,1.27,-0.34,1.28,-1.28,-0.98,-0.72,-1.62,-1.62,-1.62
84.65,-0.34,1.27,-0.36,1.26,-1.26,-0.94,-0.64,-1.61,-1.62,-1.61
85.50,-0.38,1.23,-0.37,1.25,-1.25,-0.90,-0.57,-1.63,-1.61,-1.61
86.35,-0.38,1.23,-0.38,1.23,-1.23,-0.86,-0.49,-1.61,-1.61,-1.61
87.22,-0.38,1.23,-0.40,1.21,-1.21,-0.83,-0.42,-1.59,-1.61,-1.61
88.09,-0.43,1.18,-0.42,1.19,-1.19,-0.79,-0.34,-1.62,-1.61,-1.61
88.97,-0.43,1.17,-0.44,1.17,-1.17,-0.75,-0.27,-1.60,-1.61,-1.61
89.86,-0.47,1.13,-0.47,1.14,-1.14,-0.71,-0.20,-1.61,-1.61,-1.61
90.76,-0.48,1.12,-0.49,1.12,-1.12,-0.67,-0.12,-1.60,-1.60,-1.60
91.66,-0.51,1.09,-0.51,1.09,-1.09,-0.64,-0.05,-1.60,-1.60,-1.60
92.58,-0.54,1.06,-0.54,1.06,-1.06,-0.60,0.02,-1.61,-1.60,-1.60
93.51,-0.56,1.04,-0.57,1.03,-1.04,-0.57,0.10,-1.60,-1.60,-1.60
94.44,-0.60,1.00,-0.59,1.01,-1.01,-0.53,0.17,-1.61,-1.60,-1.60
95.39,-0.61,0.99,-0.62,0.98,-0.97,-0.49,0.24,-1.59,-1.59,-1.60
96.34,-0.64,0.95,-0.65,0.95,-0.94,-0.46,0.31,-1.59,-1.59,-1.60
97.30,-0.69,0.90,-0.68,0.91,-0.91,-0.42,0.38,-1.60,-1.59,-1.60
98.28,-0.72,0.87,-0.72,0.87,-0.88,-0.39,0.45,-1.60,-1.60,-1.59
99.26,-0.75,0.84,-0.75,0.84,-0.84,-0.35,0.52,-1.60,-1.60,-1.59
100.25,-0.78,0.81,-0.78,0.81,-0.81,-0.32,0.59,-1.59,-1.59,-1.59
101.25,-0.81,0.78,-0.82,0.77,-0.77,-0.29,0.66,-1.58,-1.59,-1.59
102.27,-0.86,0.73,-0.85,0.73,-0.73,-0.25,0.73,-1.60,-1.59,-1.59
103.29,-0.89,0.69,-0.89,0.70,-0.70,-0.22,0.80,-1.59,-1.59,-1.59
104.32,-0.92,0.66,-0.93,0.65,-0.66,-0.18,0.87,-1.58,-1.59,-1.59
105.37,-0.97,0.61,-0.97,0.62,-0.61,-0.15,0.93,-1.59,-1.58,-1.58
106.42,-1.01,0.57,-1.01,0.57,-0.57,-0.11,1.00,-1.58,-1.58,-1.58
107.48,-1.05,0.53,-1.06,0.52,-0.52,-0.08,1.06,-1.57,-1.58,-1.58
108.56,-1.11,0.47,-1.11,0.47,-0.46,-0.04,1.12,-1.58,-1.58,-1.58
109.64,-1.17,0.41,-1.17,0.41,-0.41,-0.01,1.18,-1.58,-1.58,-1.58
110.74,-1.23,0.34,-1.23,0.35,-0.35,0.03,1.24,-1.58,-1.58,-1.58
111.85,-1.28,0.29,-1.29,0.29,-0.29,0.06,1.30,-1.57,-1.58,-1.58
112.97,-1.35,0.22,-1.35,0.22,-0.23,0.10,1.35,-1.58,-1.58,-1.57
114.10,-1.41,0.16,-1.41,0.16,-0.16,0.14,1.41,-1.58,-1.57,-1.57
115.24,-1.47,0.10,-1.47,0.10,-0.10,0.18,1.46,-1.57,-1.57,-1.57
116.39,-1.53,0.04,-1.54,0.03,-0.03,0.22,1.51,-1.56,-1.56,-1.57
117.55,-1.61,-0.04,-1.61,-0.04,0.04,0.26,1.56,-1.57,-1.57,-1.57
118.73,-1.68,-0.12,-1.69,-0.12,0.12,0.30,1.60,-1.56,-1.57,-1.57
119.92,-1.77,-0.21,-1.77,-0.20,0.20,0.34,1.64,-1.57,-1.57,-1.57
121.12,-1.84,-0.28,-1.85,-0.28,0.28,0.39,1.68,-1.56,-1.57,-1.56
122.33,-1.94,-0.38,-1.93,-0.37,0.36,0.43,1.71,-1.58,-1.56,-1.56
123.55,-2.00,-0.44,-2.02,-0.45,0.45,0.48,1.75,-1.55,-1.56,-1.56
124.79,-2.10,-0.54,-2.11,-0.55,0.54,0.53,1.78,-1.56,-1.56,-1.56
126.03,-2.21,-0.65,-2.20,-0.64,0.64,0.58,1.81,-1.57,-1.56,-1.56
127.29,-2.29,-0.74,-2.30,-0.74,0.74,0.64,1.83,-1.55,-1.56,-1.56
128.57,-2.39,-0.84,-2.40,-0.84,0.84,0.69,1.85,-1.55,-1.55,-1.56
129.85,-2.50,-0.95,-2.50,-0.95,0.95,0.75,1.87,-1.55,-1.55,-1.56
131.15,-2.62,-1.07,-2.62,-1.07,1.07,0.81,1.89,-1.56,-1.56,-1.55
132.46,-2.74,-1.19,-2.74,-1.19,1.19,0.87,1.90,-1.56,-1.56,-1.55
133.79,-2.87,-1.32,-2.86,-1.31,1.31,0.94,1.91,-1.56,-1.55,-1.55
135.12,-2.97,-1.42,-2.99,-1.44,1.44,1.01,1.92,-1.54,-1.55,-1.55
136.48,-3.12,-1.57,-3.12,-1.57,1.57,1.09,1.93,-1.55,-1.55,-1.55
137.84,-3.25,-1.71,-3.25,-1.71,1.71,1.17,1.94,-1.55,-1.55,-1.55
139.22,-3.39,-1.85,-3.40,-1.85,1.85,1.25,1.94,-1.55,-1.55,-1.55
140.61,-3.54,-2.00,-3.54,-1.99,1.99,1.34,1.95,-1.55,-1.55,-1.54
142.02,-3.68,-2.14,-3.68,-2.14,2.14,1.43,1.95,-1.54,-1.54,-1.54
143.44,-3.83,-2.29,-3.83,-2.29,2.30,1.53,1.95,-1.53,-1.53,-1.54
144.87,-3.98,-2.44,-3.99,-2.45,2.46,1.64,1.95,-1.53,-1.53,-1.54
146.32,-4.16,-2.62,-4.16,-2.62,2.62,1.75,1.95,-1.54,-1.54,-1.54
147.78,-4.33,-2.80,-4.33,-2.79,2.79,1.87,1.96,-1.54,-1.54,-1.54
149.26,-4.50,-2.97,-4.50,-2.97,2.96,2.00,1.96,-1.54,-1.54,-1.54
150.75,-4.67,-3.14,-4.67,-3.14,3.14,2.14,1.96,-1.54,-1.54,-1.53
152.26,-4.84,-3.31,-4.85,-3.31,3.31,2.28,1.96,-1.53,-1.53,-1.53
153.78,-5.02,-3.49,-5.02,-3.49,3.50,2.43,1.96,-1.53,-1.52,-1.53
155.32,-5.20,-3.67,-5.21,-3.67,3.68,2.60,1.97,-1.52,-1.53,-1.53
156.88,-5.38,-3.85,-5.39,-3.86,3.86,2.77,1.97,-1.52,-1.53,-1.53
158.44,-5.59,-4.07,-5.58,-4.05,4.05,2.96,1.97,-1.54,-1.53,-1.53
160.03,-5.75,-4.23,-5.77,-4.24,4.24,3.16,1.98,-1.51,-1.53,-1.53
161.63,-5.96,-4.44,-5.95,-4.43,4.43,3.36,1.99,-1.54,-1.52,-1.53
163.24,-6.12,-4.60,-6.13,-4.61,4.61,3.59,2.00,-1.51,-1.52,-1.52
164.88,-6.32,-4.80,-6.32,-4.80,4.80,3.82,2.01,-1.52,-1.52,-1.52
166.53,-6.50,-4.98,-6.50,-4.98,4.98,4.06,2.02,-1.52,-1.52,-1.52
168.19,-6.67,-5.15,-6.67,-5.15,5.16,4.31,2.03,-1.52,-1.52,-1.52
169.87,-6.83,-5.32,-6.83,-5.32,5.33,4.57,2.04,-1.51,-1.51,-1.52
171.57,-6.98,-5.47,-6.99,-5.47,5.48,4.83,2.06,-1.50,-1.51,-1.52
173.29,-7.14,-5.63,-7.14,-5.62,5.62,5.10,2.08,-1.52,-1.51,-1.52
175.02,-7.26,-5.75,-7.26,-5.75,5.74,5.36,2.10,-1.52,-1.52,-1.51
176.77,-7.38,-5.87,-7.38,-5.87,5.84,5.61,2.12,-1.54,-1.54,-1.51
178.54,-7.46,-5.95,-7.47,-5.96,5.91,5.85,2.14,-1.55,-1.56,-1.51
180.32,-7.55,-6.04,-7.55,-6.04,5.97,6.07,2.17,-1.59,-1.58,-1.51
182.13,-7.60,-6.09,-7.61,-6.10,6.01,6.25,2.19,-1.60,-1.60,-1.51
183.95,-7.65,-6.15,-7.65,-6.14,6.03,6.39,2.22,-1.62,-1.62,-1.51
185.79,-7.66,-6.16,-7.66,-6.16,6.04,6.49,2.25,-1.62,-1.62,-1.51
187.65,-7.66,-6.16,-7.65,-6.15,6.04,6.53,2.28,-1.63,-1.61,-1.50
189.52,-7.60,-6.10,-7.61,-6.11,6.02,6.52,2.32,-1.59,-1.60,-1.50
191.42,-7.55,-6.05,-7.56,-6.06,5.98,6.46,2.35,-1.57,-1.58,-1.50
193.33,-7.49,-5.99,-7.48,-5.98,5.93,6.35,2.39,-1.56,-1.55,-1.50
195.27,-7.39,-5.89,-7.40,-5.90,5.87,6.19,2.42,-1.52,-1.53,-1.50
197.22,-7.29,-5.80,-7.29,-5.80,5.78,5.99,2.46,-1.51,-1.51,-1.50
199.19,-7.17,-5.68,-7.17,-5.68,5.68,5.77,2.50,-1.50,-1.49,-1.50
201.18,-7.04,-5.55,-7.04,-5.55,5.55,5.52,2.54,-1.49,-1.49,-1.49
203.19,-6.89,-5.40,-6.89,-5.40,5.41,5.27,2.58,-1.48,-1.49,-1.49
205.23,-6.74,-5.25,-6.74,-5.25,5.25,5.00,2.62,-1.49,-1.48,-1.49
207.28,-6.57,-5.08,-6.58,-5.09,5.09,4.74,2.66,-1.48,-1.49,-1.49
209.35,-6.41,-4.92,-6.42,-4.93,4.93,4.47,2.70,-1.48,-1.49,-1.49
211.44,-6.25,-4.76,-6.25,-4.76,4.76,4.21,2.74,-1.49,-1.49,-1.49
213.56,-6.08,-4.60,-6.08,-4.59,4.59,3.96,2.78,-1.49,-1.49,-1.49
215.69,-5.90,-4.42,-5.91,-4.43,4.42,3.73,2.82,-1.48,-1.49,-1.49
217.85,-5.74,-4.26,-5.74,-4.25,4.26,3.50,2.86,-1.49,-1.48,-1.48
220.03,-5.57,-4.09,-5.57,-4.09,4.09,3.28,2.90,-1.48,-1.48,-1.48
222.23,-5.40,-3.92,-5.41,-3.93,3.93,3.07,2.93,-1.47,-1.48,-1.48
224.45,-5.25,-3.77,-5.24,-3.77,3.77,2.88,2.96,-1.48,-1.47,-1.48
226.70,-5.08,-3.60,-5.09,-3.61,3.62,2.70,2.99,-1.47,-1.47,-1.48
228.96,-4.94,-3.47,-4.94,-3.47,3.47,2.52,3.02,-1.48,-1.47,-1.48
231.25,-4.80,-3.33,-4.80,-3.32,3.32,2.36,3.04,-1.48,-1.47,-1.48
233.57,-4.65,-3.18,-4.66,-3.19,3.19,2.21,3.06,-1.47,-1.48,-1.47
235.90,-4.52,-3.05,-4.52,-3.05,3.05,2.07,3.07,-1.47,-1.47,-1.47
238.26,-4.40,-2.93,-4.39,-2.92,2.92,1.93,3.08,-1.48,-1.47,-1.47
240.64,-4.25,-2.78,-4.26,-2.79,2.80,1.80,3.09,-1.46,-1.47,-1.47
243.05,-4.14,-2.67,-4.14,-2.67,2.67,1.68,3.09,-1.47,-1.47,-1.47
245.48,-4.01,-2.55,-4.02,-2.55,2.55,1.57,3.09,-1.46,-1.47,-1.47
247.93,-3.90,-2.44,-3.90,-2.43,2.43,1.46,3.08,-1.47,-1.47,-1.47
250.41,-3.77,-2.31,-3.77,-2.31,2.31,1.36,3.06,-1.46,-1.46,-1.46
252.92,-3.65,-2.19,-3.65,-2.19,2.19,1.27,3.05,-1.46,-1.46,-1.46
255.45,-3.52,-2.06,-3.53,-2.07,2.07,1.18,3.02,-1.45,-1.46,-1.46
258.00,-3.41,-1.95,-3.41,-1.95,1.95,1.09,2.99,-1.46,-1.46,-1.46
260.58,-3.29,-1.83,-3.29,-1.83,1.83,1.01,2.96,-1.46,-1.46,-1.46
263.19,-3.15,-1.70,-3.16,-1.71,1.70,0.93,2.92,-1.45,-1.46,-1.46
265.82,-3.04,-1.59,-3.04,-1.58,1.58,0.86,2.87,-1.47,-1.46,-1.46
268.48,-2.90,-1.45,-2.91,-1.45,1.45,0.78,2.82,-1.46,-1.46,-1.45
271.16,-2.77,-1.32,-2.77,-1.32,1.31,0.71,2.77,-1.46,-1.46,-1.45
273.87,-2.63,-1.18,-2.63,-1.18,1.18,0.64,2.71,-1.46,-1.45,-1.45
276.61,-2.48,-1.03,-2.49,-1.04,1.04,0.58,2.65,-1.44,-1.45,-1.45
279.38,-2.35,-0.90,-2.34,-0.90,0.90,0.51,2.59,-1.46,-1.45,-1.45
282.17,-2.19,-0.74,-2.20,-0.75,0.75,0.45,2.52,-1.44,-1.45,-1.45
284.99,-2.06,-0.62,-2.06,-0.61,0.61,0.38,2.45,-1.45,-1.44,-1.45
287.84,-1.91,-0.47,-1.91,-0.46,0.47,0.32,2.38,-1.45,-1.44,-1.45
290.72,-1.75,-0.31,-1.77,-0.32,0.32,0.25,2.31,-1.43,-1.45,-1.44
293.63,-1.63,-0.19,-1.62,-0.18,0.17,0.19,2.23,-1.46,-1.45,-1.44
296.57,-1.47,-0.03,-1.48,-0.04,0.03,0.12,2.15,-1.44,-1.45,-1.44
299.53,-1.33,0.11,-1.33,0.11,-0.11,0.05,2.07,-1.44,-1.44,-1.44
302.53,-1.18,0.26,-1.18,0.26,-0.25,-0.02,2.00,-1.43,-1.43,-1.44
305.55,-1.04,0.39,-1.05,0.39,-0.39,-0.10,1.92,-1.43,-1.43,-1.44
308.61,-0.91,0.52,-0.91,0.52,-0.52,-0.18,1.84,-1.43,-1.43,-1.44
311.69,-0.79,0.64,-0.79,0.65,-0.65,-0.27,1.75,-1.44,-1.44,-1.43
314.81,-0.66,0.77,-0.67,0.76,-0.77,-0.37,1.67,-1.43,-1.44,-1.43
317.96,-0.56,0.87,-0.55,0.88,-0.88,-0.47,1.59,-1.44,-1.43,-1.43
321.14,-0.44,0.99,-0.44,0.99,-0.98,-0.59,1.51,-1.42,-1.42,-1.43
324.35,-0.33,1.10,-0.35,1.08,-1.07,-0.71,1.43,-1.41,-1.42,-1.43
327.59,-0.27,1.15,-0.26,1.16,-1.16,-0.85,1.35,-1.43,-1.42,-1.43
330.87,-0.19,1.23,-0.19,1.24,-1.24,-0.99,1.27,-1.43,-1.43,-1.43
334.18,-0.12,1.30,-0.13,1.30,-1.30,-1.14,1.19,-1.43,-1.43,-1.42
337.52,-0.06,1.36,-0.06,1.36,-1.36,-1.29,1.11,-1.43,-1.42,-1.42
340.90,-0.01,1.41,-0.01,1.41,-1.41,-1.43,1.03,-1.42,-1.42,-1.42
344.30,0.04,1.46,0.03,1.45,-1.45,-1.55,0.96,-1.41,-1.42,-1.42
347.75,0.05,1.47,0.06,1.48,-1.48,-1.63,0.88,-1.43,-1.42,-1.42
351.23,0.09,1.50,0.08,1.50,-1.49,-1.68,0.80,-1.41,-1.42,-1.42
354.74,0.09,1.50,0.09,1.51,-1.50,-1.67,0.73,-1.42,-1.41,-1.42
358.28,0.09,1.50,0.09,1.50,-1.50,-1.63,0.65,-1.42,-1.41,-1.41
361.87,0.09,1.50,0.08,1.49,-1.49,-1.55,0.58,-1.41,-1.42,-1.41
365.49,0.05,1.46,0.06,1.47,-1.47,-1.46,0.50,-1.43,-1.41,-1.41
369.14,0.05,1.46,0.04,1.45,-1.45,-1.36,0.43,-1.40,-1.41,-1.41
372.83,0.01,1.42,0.01,1.42,-1.41,-1.25,0.36,-1.40,-1.40,-1.41
376.56,-0.03,1.38,-0.03,1.38,-1.37,-1.16,0.28,-1.40,-1.40,-1.41
380.33,-0.07,1.33,-0.08,1.33,-1.33,-1.07,0.21,-1.40,-1.41,-1.41
384.13,-0.13,1.27,-0.13,1.27,-1.28,-0.99,0.14,-1.41,-1.41,-1.41
387.97,-0.19,1.21,-0.18,1.22,-1.23,-0.93,0.07,-1.42,-1.41,-1.40
391.85,-0.23,1.17,-0.23,1.17,-1.17,-0.87,0.00,-1.41,-1.41,-1.40
395.77,-0.27,1.13,-0.28,1.12,-1.12,-0.83,-0.07,-1.39,-1.40,-1.40
399.73,-0.32,1.08,-0.33,1.07,-1.06,-0.79,-0.14,-1.39,-1.39,-1.40
403.72,-0.38,1.02,-0.39,1.01,-1.01,-0.76,-0.20,-1.39,-1.39,-1.40
407.76,-0.45,0.94,-0.45,0.95,-0.95,-0.74,-0.27,-1.40,-1.40,-1.40
411.84,-0.50,0.89,-0.50,0.89,-0.90,-0.72,-0.34,-1.40,-1.40,-1.40
415.96,-0.55,0.84,-0.55,0.84,-0.85,-0.70,-0.40,-1.40,-1.40,-1.39
420.12,-0.60,0.79,-0.60,0.79,-0.80,-0.69,-0.47,-1.40,-1.40,-1.39
424.32,-0.63,0.76,-0.64,0.75,-0.75,-0.69,-0.53,-1.39,-1.40,-1.39
428.56,-0.68,0.71,-0.68,0.71,-0.71,-0.68,-0.59,-1.40,-1.39,-1.39
432.85,-0.71,0.68,-0.71,0.68,-0.68,-0.68,-0.65,-1.39,-1.39,-1.39
437.18,-0.73,0.65,-0.74,0.65,-0.65,-0.68,-0.71,-1.38,-1.38,-1.39
