frequency,raw,error,smoothed,error_smoothed,equalization,parametric_eq,fixed_band_eq,equalized_raw,equalized_smoothed,target
20.00,3.12,-6.55,3.12,-6.55,6.00,5.79,2.47,9.12,9.11,9.67
20.20,3.15,-6.52,3.15,-6.52,6.00,5.79,2.54,9.15,9.15,9.67
20.40,3.17,-6.50,3.18,-6.49,6.00,5.78,2.61,9.17,9.18,9.67
20.61,3.22,-6.45,3.22,-6.45,6.00,5.78,2.69,9.22,9.22,9.67
20.81,3.27,-6.40,3.26,-6.41,6.00,5.77,2.77,9.27,9.26,9.67
21.02,3.30,-6.37,3.31,-6.36,6.00,5.77,2.84,9.30,9.31,9.67
21.23,3.35,-6.32,3.35,-6.32,6.00,5.76,2.93,9.35,9.35,9.67
21.44,3.40,-6.27,3.39,-6.28,6.00,5.75,3.01,9.40,9.39,9.67
21.66,3.43,-6.24,3.44,-6.23,6.00,5.75,3.10,9.43,9.44,9.67
21.87,3.48,-6.19,3.48,-6.19,6.01,5.74,3.19,9.48,9.48,9.66
22.09,3.52,-6.15,3.52,-6.15,6.01,5.73,3.28,9.53,9.52,9.66
22.31,3.56,-6.11,3.56,-6.11,6.00,5.73,3.37,9.56,9.56,9.66
22.54,3.59,-6.08,3.59,-6.07,6.00,5.72,3.47,9.58,9.59,9.66
22.76,3.64,-6.02,3.63,-6.03,5.99,5.71,3.57,9.62,9.62,9.66
22.99,3.67,-5.99,3.67,-5.99,5.97,5.70,3.67,9.63,9.64,9.66
23.22,3.71,-5.95,3.71,-5.95,5.94,5.69,3.77,9.65,9.66,9.66
23.45,3.76,-5.90,3.75,-5.91,5.91,5.68,3.88,9.67,9.66,9.66
23.69,3.79,-5.87,3.79,-5.87,5.88,5.67,3.98,9.67,9.67,9.66
23.92,3.82,-5.84,3.83,-5.83,5.84,5.67,4.09,9.66,9.67,9.66
24.16,3.87,-5.79,3.86,-5.80,5.80,5.66,4.21,9.67,9.67,9.66
24.40,3.90,-5.76,3.90,-5.76,5.77,5.64,4.32,9.66,9.66,9.66
24.65,3.93,-5.73,3.93,-5.73,5.73,5.63,4.43,9.66,9.66,9.66
24.89,3.96,-5.70,3.96,-5.70,5.70,5.62,4.55,9.65,9.66,9.66
25.14,4.00,-5.66,3.99,-5.67,5.66,5.61,4.67,9.66,9.65,9.66
25.39,4.02,-5.64,4.02,-5.63,5.63,5.60,4.79,9.65,9.65,9.66
25.65,4.06,-5.60,4.06,-5.60,5.59,5.59,4.91,9.65,9.65,9.65
25.91,4.10,-5.56,4.09,-5.56,5.56,5.58,5.03,9.66,9.65,9.65
26.16,4.13,-5.52,4.13,-5.53,5.53,5.56,5.15,9.66,9.66,9.65
26.43,4.16,-5.49,4.16,-5.49,5.50,5.55,5.27,9.65,9.65,9.65
26.69,4.19,-5.46,4.19,-5.46,5.46,5.54,5.38,9.65,9.65,9.65
26.96,4.22,-5.43,4.22,-5.43,5.43,5.52,5.50,9.65,9.65,9.65
27.23,4.25,-5.40,4.25,-5.40,5.40,5.51,5.61,9.65,9.65,9.65
27.50,4.28,-5.37,4.28,-5.37,5.37,5.50,5.72,9.65,9.65,9.65
27.77,4.31,-5.34,4.31,-5.34,5.34,5.48,5.83,9.65,9.65,9.65
28.05,4.34,-5.31,4.34,-5.31,5.31,5.47,5.93,9.65,9.65,9.65
28.33,4.36,-5.29,4.36,-5.28,5.28,5.45,6.03,9.64,9.64,9.64
28.62,4.40,-5.25,4.39,-5.25,5.25,5.44,6.12,9.65,9.64,9.64
28.90,4.41,-5.23,4.42,-5.22,5.22,5.42,6.21,9.63,9.64,9.64
29.19,4.45,-5.19,4.44,-5.20,5.19,5.40,6.29,9.64,9.64,9.64
29.48,4.48,-5.16,4.47,-5.17,5.17,5.39,6.36,9.64,9.64,9.64
29.78,4.49,-5.15,4.50,-5.14,5.14,5.37,6.42,9.63,9.64,9.64
30.08,4.54,-5.10,4.53,-5.11,5.11,5.35,6.47,9.65,9.64,9.64
30.38,4.55,-5.09,4.55,-5.08,5.08,5.33,6.51,9.63,9.63,9.63
30.68,4.58,-5.05,4.58,-5.05,5.05,5.32,6.55,9.63,9.63,9.63
30.99,4.61,-5.02,4.60,-5.03,5.03,5.30,6.57,9.63,9.63,9.63
31.30,4.62,-5.01,4.63,-5.00,5.00,5.28,6.58,9.62,9.63,9.63
31.61,4.67,-4.96,4.65,-4.97,4.97,5.26,6.59,9.64,9.63,9.63
31.93,4.67,-4.96,4.68,-4.95,4.95,5.24,6.58,9.62,9.63,9.62
32.24,4.71,-4.91,4.70,-4.92,4.92,5.22,6.56,9.63,9.63,9.62
32.57,4.72,-4.90,4.72,-4.90,4.90,5.20,6.54,9.62,9.62,9.62
32.89,4.75,-4.87,4.75,-4.87,4.87,5.18,6.50,9.62,9.62,9.62
33.22,4.76,-4.86,4.76,-4.85,4.85,5.16,6.46,9.61,9.61,9.62
33.55,4.80,-4.82,4.79,-4.83,4.82,5.14,6.40,9.62,9.61,9.61
33.89,4.80,-4.81,4.81,-4.80,4.80,5.12,6.35,9.60,9.61,9.61
34.23,4.84,-4.77,4.83,-4.77,4.78,5.10,6.28,9.61,9.61,9.61
34.57,4.86,-4.75,4.85,-4.75,4.75,5.08,6.21,9.61,9.60,9.60
34.92,4.88,-4.72,4.88,-4.72,4.73,5.05,6.13,9.60,9.60,9.60
35.27,4.89,-4.71,4.89,-4.70,4.70,5.03,6.05,9.59,9.60,9.60
35.62,4.93,-4.67,4.92,-4.68,4.68,5.01,5.97,9.61,9.60,9.60
35.97,4.93,-4.66,4.94,-4.66,4.66,4.98,5.88,9.58,9.59,9.59
36.33,4.97,-4.62,4.96,-4.63,4.63,4.96,5.79,9.60,9.59,9.59
36.70,4.97,-4.62,4.98,-4.61,4.61,4.94,5.70,9.58,9.59,9.59
37.06,5.00,-4.58,4.99,-4.59,4.59,4.91,5.61,9.59,9.58,9.58
37.43,5.01,-4.57,5.01,-4.57,4.57,4.89,5.52,9.58,9.58,9.58
37.81,5.02,-4.56,5.03,-4.55,4.55,4.86,5.43,9.56,9.57,9.57
38.19,5.06,-4.51,5.04,-4.53,4.53,4.84,5.34,9.58,9.57,9.57
38.57,5.06,-4.51,5.06,-4.50,4.50,4.81,5.25,9.56,9.57,9.57
38.95,5.08,-4.48,5.08,-4.48,4.48,4.78,5.16,9.56,9.56,9.56
39.34,5.10,-4.46,5.09,-4.46,4.46,4.76,5.07,9.56,9.55,9.56
39.74,5.10,-4.45,5.11,-4.44,4.44,4.73,4.99,9.54,9.55,9.55
40.14,5.14,-4.41,5.12,-4.42,4.42,4.70,4.90,9.56,9.54,9.55
40.54,5.14,-4.40,5.14,-4.40,4.40,4.68,4.82,9.54,9.54,9.54
40.94,5.15,-4.39,5.16,-4.37,4.38,4.65,4.75,9.53,9.54,9.54
41.35,5.19,-4.34,5.17,-4.36,4.36,4.62,4.67,9.55,9.53,9.53
41.76,5.19,-4.34,5.19,-4.34,4.34,4.59,4.60,9.52,9.53,9.52
42.18,5.19,-4.33,5.20,-4.31,4.32,4.56,4.53,9.50,9.52,9.52
42.60,5.23,-4.28,5.21,-4.30,4.30,4.54,4.47,9.52,9.51,9.51
43.03,5.23,-4.28,5.23,-4.28,4.28,4.51,4.41,9.51,9.51,9.51
43.46,5.23,-4.27,5.24,-4.25,4.26,4.48,4.35,9.49,9.50,9.50
43.90,5.27,-4.22,5.25,-4.24,4.24,4.45,4.29,9.51,9.49,9.49
44.33,5.27,-4.22,5.26,-4.22,4.22,4.42,4.24,9.49,9.48,9.48
44.78,5.27,-4.21,5.27,-4.20,4.20,4.39,4.19,9.47,9.47,9.48
45.23,5.27,-4.20,5.28,-4.18,4.18,4.35,4.15,9.45,9.46,9.47
45.68,5.32,-4.14,5.30,-4.16,4.16,4.32,4.11,9.48,9.46,9.46
46.13,5.32,-4.13,5.31,-4.14,4.14,4.29,4.07,9.46,9.45,9.45
46.60,5.32,-4.13,5.33,-4.11,4.12,4.26,4.03,9.44,9.45,9.44
47.06,5.34,-4.10,5.34,-4.10,4.10,4.23,4.00,9.44,9.44,9.43
47.53,5.36,-4.07,5.35,-4.08,4.08,4.19,3.97,9.43,9.43,9.42
48.01,5.36,-4.06,5.36,-4.06,4.06,4.16,3.95,9.41,9.41,9.41
48.49,5.36,-4.05,5.37,-4.04,4.04,4.13,3.92,9.39,9.40,9.40
48.97,5.38,-4.02,5.38,-4.02,4.02,4.10,3.90,9.39,9.39,9.39
49.46,5.40,-3.99,5.39,-3.99,3.99,4.06,3.88,9.39,9.38,9.38
49.96,5.40,-3.97,5.40,-3.97,3.97,4.03,3.87,9.37,9.37,9.37
50.46,5.40,-3.96,5.41,-3.95,3.95,3.99,3.85,9.35,9.36,9.36
50.96,5.42,-3.93,5.42,-3.93,3.93,3.96,3.84,9.34,9.35,9.35
51.47,5.45,-3.89,5.44,-3.90,3.90,3.92,3.83,9.35,9.34,9.34
51.99,5.45,-3.87,5.45,-3.88,3.88,3.89,3.82,9.33,9.32,9.32
52.51,5.45,-3.86,5.45,-3.86,3.86,3.85,3.81,9.30,9.31,9.31
53.03,5.45,-3.85,5.46,-3.84,3.83,3.82,3.81,9.28,9.29,9.29
53.56,5.48,-3.80,5.47,-3.81,3.81,3.78,3.80,9.29,9.28,9.28
54.10,5.49,-3.78,5.48,-3.78,3.79,3.75,3.80,9.27,9.27,9.26
54.64,5.49,-3.76,5.49,-3.76,3.76,3.71,3.79,9.25,9.25,9.25
55.18,5.49,-3.75,5.49,-3.74,3.74,3.67,3.78,9.23,9.23,9.23
55.74,5.49,-3.73,5.50,-3.72,3.72,3.64,3.78,9.20,9.21,9.22
56.29,5.52,-3.68,5.51,-3.69,3.69,3.60,3.77,9.21,9.20,9.20
56.86,5.53,-3.65,5.52,-3.66,3.66,3.56,3.76,9.19,9.19,9.18
57.42,5.53,-3.64,5.53,-3.64,3.64,3.52,3.75,9.16,9.16,9.16
58.00,5.53,-3.62,5.53,-3.62,3.61,3.48,3.74,9.14,9.14,9.14
58.58,5.53,-3.60,5.54,-3.59,3.58,3.45,3.73,9.11,9.12,9.12
59.16,5.56,-3.55,5.55,-3.55,3.55,3.41,3.71,9.11,9.11,9.10
59.76,5.58,-3.51,5.57,-3.51,3.52,3.37,3.70,9.10,9.09,9.08
60.35,5.58,-3.48,5.58,-3.48,3.49,3.33,3.68,9.07,9.07,9.06
60.96,5.58,-3.46,5.58,-3.46,3.46,3.29,3.65,9.04,9.04,9.04
61.57,5.58,-3.44,5.58,-3.44,3.43,3.25,3.63,9.01,9.01,9.02
62.18,5.58,-3.42,5.58,-3.41,3.40,3.21,3.60,8.98,8.98,8.99
62.80,5.59,-3.38,5.59,-3.37,3.37,3.17,3.56,8.96,8.97,8.97
63.43,5.62,-3.33,5.61,-3.34,3.34,3.13,3.52,8.96,8.95,8.94
64.07,5.62,-3.30,5.62,-3.30,3.31,3.09,3.48,8.93,8.93,8.92
64.71,5.62,-3.27,5.62,-3.27,3.27,3.05,3.44,8.89,8.89,8.89
65.35,5.62,-3.25,5.62,-3.25,3.24,3.01,3.39,8.86,8.86,8.86
66.01,5.62,-3.22,5.63,-3.21,3.20,2.97,3.34,8.82,8.83,8.84
66.67,5.64,-3.17,5.64,-3.17,3.17,2.93,3.29,8.81,8.81,8.81
67.33,5.66,-3.12,5.65,-3.13,3.13,2.89,3.24,8.79,8.78,8.78
68.01,5.66,-3.09,5.66,-3.09,3.10,2.85,3.18,8.76,8.76,8.75
68.69,5.66,-3.06,5.66,-3.06,3.06,2.80,3.12,8.72,8.72,8.72
69.37,5.66,-3.03,5.66,-3.03,3.02,2.76,3.06,8.68,8.68,8.68
70.07,5.66,-2.99,5.65,-3.00,2.98,2.72,2.99,8.64,8.64,8.65
70.77,5.66,-2.96,5.66,-2.95,2.94,2.68,2.93,8.60,8.60,8.62
71.48,5.67,-2.91,5.68,-2.90,2.90,2.64,2.86,8.57,8.58,8.58
72.19,5.71,-2.84,5.69,-2.85,2.86,2.59,2.79,8.57,8.55,8.55
72.91,5.71,-2.80,5.71,-2.80,2.82,2.55,2.72,8.52,8.52,8.51
73.64,5.71,-2.76,5.71,-2.76,2.77,2.51,2.65,8.48,8.48,8.47
74.38,5.71,-2.73,5.71,-2.73,2.73,2.46,2.58,8.44,8.44,8.43
75.12,5.71,-2.69,5.71,-2.69,2.68,2.42,2.51,8.39,8.39,8.40
75.87,5.71,-2.65,5.71,-2.65,2.64,2.38,2.44,8.34,8.34,8.36
76.63,5.71,-2.61,5.72,-2.60,2.59,2.33,2.36,8.30,8.31,8.31
77.40,5.73,-2.55,5.73,-2.55,2.54,2.29,2.29,8.27,8.27,8.27
78.17,5.75,-2.48,5.74,-2.49,2.50,2.25,2.22,8.24,8.24,8.23
78.95,5.75,-2.44,5.75,-2.44,2.45,2.20,2.15,8.20,8.20,8.19
79.74,5.75,-2.40,5.75,-2.39,2.40,2.16,2.08,8.15,8.15,8.14
80.54,5.75,-2.35,5.75,-2.35,2.35,2.11,2.01,8.10,8.10,8.10
81.35,5.75,-2.31,5.75,-2.31,2.31,2.07,1.95,8.05,8.05,8.05
82.16,5.75,-2.26,5.75,-2.26,2.26,2.03,1.88,8.00,8.00,8.01
82.98,5.75,-2.21,5.75,-2.21,2.21,1.98,1.81,7.95,7.95,7.96
83.81,5.75,-2.16,5.75,-2.16,2.15,1.94,1.75,7.90,7.90,7.91
84.65,5.75,-2.11,5.76,-2.11,2.10,1.89,1.68,7.85,7.86,7.86
85.50,5.77,-2.05,5.77,-2.05,2.05,1.85,1.62,7.81,7.81,7.81
86.35,5.79,-1.97,5.78,-1.98,1.99,1.80,1.56,7.78,7.77,7.76
87.22,5.79,-1.92,5.79,-1.92,1.93,1.75,1.50,7.72,7.72,7.71
88.09,5.79,-1.87,5.79,-1.87,1.88,1.71,1.44,7.66,7.67,7.66
88.97,5.79,-1.82,5.79,-1.82,1.82,1.66,1.38,7.61,7.61,7.61
89.86,5.79,-1.77,5.79,-1.77,1.77,1.62,1.32,7.56,7.56,7.56
90.76,5.79,-1.71,5.79,-1.71,1.71,1.57,1.26,7.50,7.50,7.50
91.66,5.79,-1.66,5.79,-1.66,1.66,1.53,1.21,7.45,7.44,7.45
92.58,5.79,-1.61,5.79,-1.61,1.60,1.48,1.15,7.39,7.39,7.39
93.51,5.79,-1.55,5.79,-1.55,1.54,1.43,1.10,7.33,7.33,7.34
94.44,5.80,-1.49,5.80,-1.48,1.48,1.39,1.04,7.28,7.28,7.28
95.39,5.82,-1.41,5.81,-1.42,1.42,1.34,0.99,7.23,7.23,7.23
96.34,5.82,-1.35,5.82,-1.35,1.35,1.29,0.94,7.17,7.18,7.17
97.30,5.84,-1.28,5.83,-1.28,1.29,1.24,0.89,7.13,7.12,7.11
98.28,5.84,-1.22,5.84,-1.22,1.23,1.20,0.84,7.06,7.06,7.06
99.26,5.84,-1.16,5.84,-1.16,1.17,1.15,0.79,7.00,7.00,7.00
100.25,5.84,-1.11,5.84,-1.11,1.11,1.10,0.74,6.94,6.94,6.94
101.25,5.84,-1.05,5.84,-1.05,1.05,1.05,0.70,6.89,6.89,6.89
102.27,5.84,-0.99,5.84,-0.99,0.99,1.00,0.65,6.83,6.83,6.83
103.29,5.84,-0.93,5.84,-0.93,0.93,0.95,0.61,6.77,6.77,6.77
104.32,5.84,-0.87,5.84,-0.88,0.87,0.90,0.56,6.71,6.71,6.71
105.37,5.84,-0.82,5.84,-0.82,0.81,0.85,0.52,6.64,6.65,6.65
106.42,5.85,-0.75,5.85,-0.75,0.74,0.80,0.48,6.59,6.59,6.60
107.48,5.86,-0.68,5.86,-0.68,0.68,0.75,0.43,6.54,6.54,6.54
108.56,5.88,-0.60,5.87,-0.61,0.62,0.70,0.39,6.49,6.49,6.48
109.64,5.88,-0.55,5.88,-0.55,0.55,0.65,0.35,6.43,6.43,6.42
110.74,5.88,-0.49,5.88,-0.49,0.49,0.60,0.31,6.37,6.37,6.37
111.85,5.88,-0.43,5.88,-0.43,0.43,0.55,0.28,6.31,6.31,6.31
112.97,5.88,-0.37,5.88,-0.37,0.37,0.49,0.24,6.25,6.25,6.25
114.10,5.88,-0.32,5.88,-0.32,0.32,0.44,0.20,6.20,6.20,6.20
115.24,5.88,-0.26,5.88,-0.26,0.26,0.39,0.17,6.14,6.14,6.14
116.39,5.88,-0.21,5.88,-0.21,0.20,0.33,0.13,6.08,6.08,6.08
117.55,5.88,-0.15,5.88,-0.15,0.15,0.28,0.10,6.02,6.02,6.03
118.73,5.88,-0.10,5.88,-0.09,0.09,0.22,0.07,5.97,5.97,5.97
119.92,5.89,-0.03,5.89,-0.03,0.03,0.16,0.03,5.92,5.91,5.92
121.12,5.90,0.03,5.89,0.03,-0.03,0.10,0.00,5.87,5.86,5.86
122.33,5.90,0.09,5.90,0.09,-0.09,0.05,-0.03,5.81,5.81,5.81
123.55,5.92,0.16,5.91,0.15,-0.15,-0.01,-0.06,5.77,5.76,5.76
124.79,5.92,0.21,5.92,0.21,-0.21,-0.07,-0.08,5.71,5.71,5.71
126.03,5.92,0.26,5.92,0.27,-0.26,-0.14,-0.11,5.66,5.66,5.65
127.29,5.92,0.32,5.92,0.32,-0.32,-0.20,-0.14,5.60,5.60,5.60
128.57,5.92,0.37,5.92,0.37,-0.37,-0.26,-0.16,5.55,5.55,5.55
129.85,5.92,0.42,5.92,0.42,-0.42,-0.32,-0.19,5.50,5.50,5.50
131.15,5.92,0.46,5.92,0.46,-0.47,-0.39,-0.21,5.45,5.45,5.45
132.46,5.92,0.51,5.92,0.51,-0.51,-0.45,-0.24,5.40,5.40,5.40
133.79,5.92,0.56,5.92,0.56,-0.56,-0.52,-0.26,5.36,5.36,5.36
135.12,5.92,0.61,5.92,0.61,-0.61,-0.58,-0.28,5.31,5.31,5.31
136.48,5.92,0.65,5.92,0.65,-0.65,-0.65,-0.30,5.26,5.26,5.26
137.84,5.92,0.70,5.92,0.70,-0.70,-0.71,-0.33,5.22,5.22,5.22
139.22,5.92,0.74,5.92,0.74,-0.74,-0.78,-0.35,5.18,5.18,5.18
140.61,5.92,0.79,5.92,0.79,-0.79,-0.84,-0.37,5.13,5.13,5.13
142.02,5.92,0.83,5.92,0.83,-0.83,-0.90,-0.39,5.09,5.09,5.09
143.44,5.92,0.87,5.92,0.87,-0.87,-0.96,-0.41,5.05,5.05,5.05
144.87,5.92,0.91,5.92,0.91,-0.91,-1.01,-0.43,5.01,5.01,5.01
146.32,5.92,0.95,5.92,0.95,-0.95,-1.06,-0.45,4.97,4.97,4.97
147.78,5.92,0.99,5.92,0.99,-0.99,-1.11,-0.47,4.93,4.93,4.93
149.26,5.92,1.03,5.92,1.03,-1.03,-1.15,-0.49,4.89,4.89,4.89
150.75,5.92,1.07,5.92,1.07,-1.07,-1.19,-0.51,4.85,4.85,4.85
152.26,5.92,1.10,5.92,1.10,-1.10,-1.23,-0.53,4.81,4.81,4.81
153.78,5.92,1.14,5.92,1.14,-1.14,-1.26,-0.55,4.78,4.78,4.78
155.32,5.92,1.17,5.92,1.17,-1.17,-1.29,-0.58,4.74,4.74,4.74
156.88,5.92,1.21,5.92,1.21,-1.21,-1.31,-0.60,4.71,4.71,4.71
158.44,5.92,1.24,5.92,1.24,-1.24,-1.33,-0.62,4.68,4.68,4.68
160.03,5.92,1.27,5.92,1.27,-1.27,-1.34,-0.64,4.64,4.64,4.64
161.63,5.92,1.31,5.92,1.31,-1.31,-1.36,-0.67,4.61,4.61,4.61
163.24,5.92,1.34,5.92,1.34,-1.34,-1.37,-0.69,4.58,4.58,4.58
164.88,5.92,1.37,5.92,1.37,-1.37,-1.38,-0.71,4.55,4.55,4.55
166.53,5.92,1.40,5.92,1.40,-1.40,-1.39,-0.74,4.52,4.52,4.52
168.19,5.92,1.42,5.92,1.42,-1.43,-1.40,-0.77,4.49,4.49,4.49
169.87,5.92,1.45,5.92,1.45,-1.45,-1.41,-0.79,4.46,4.46,4.47
171.57,5.92,1.48,5.92,1.48,-1.48,-1.41,-0.82,4.44,4.44,4.44
173.29,5.92,1.50,5.92,1.51,-1.50,-1.42,-0.85,4.42,4.42,4.41
175.02,5.92,1.53,5.92,1.53,-1.52,-1.43,-0.88,4.39,4.39,4.39
176.77,5.92,1.55,5.91,1.55,-1.54,-1.44,-0.91,4.38,4.37,4.36
178.54,5.90,1.56,5.90,1.56,-1.56,-1.45,-0.94,4.34,4.34,4.34
180.32,5.90,1.58,5.89,1.58,-1.58,-1.46,-0.97,4.32,4.31,4.32
182.13,5.88,1.58,5.88,1.59,-1.59,-1.47,-1.00,4.28,4.29,4.29
183.95,5.88,1.61,5.88,1.61,-1.61,-1.48,-1.03,4.27,4.27,4.27
185.79,5.88,1.63,5.88,1.62,-1.63,-1.49,-1.07,4.25,4.25,4.25
187.65,5.88,1.65,5.88,1.65,-1.65,-1.50,-1.10,4.23,4.23,4.23
189.52,5.88,1.67,5.88,1.67,-1.67,-1.52,-1.13,4.21,4.21,4.21
191.42,5.88,1.69,5.88,1.69,-1.69,-1.53,-1.17,4.19,4.19,4.19
193.33,5.88,1.70,5.88,1.70,-1.70,-1.55,-1.21,4.17,4.17,4.17
195.27,5.88,1.72,5.88,1.72,-1.72,-1.56,-1.24,4.16,4.16,4.16
197.22,5.88,1.74,5.88,1.74,-1.73,-1.58,-1.28,4.14,4.15,4.14
199.19,5.88,1.76,5.88,1.76,-1.75,-1.59,-1.32,4.13,4.13,4.12
201.18,5.88,1.77,5.87,1.76,-1.76,-1.61,-1.36,4.12,4.11,4.11
203.19,5.85,1.76,5.85,1.76,-1.77,-1.62,-1.39,4.08,4.09,4.09
205.23,5.84,1.76,5.84,1.77,-1.78,-1.64,-1.43,4.06,4.07,4.07
207.28,5.84,1.78,5.84,1.78,-1.79,-1.66,-1.47,4.05,4.05,4.06
209.35,5.84,1.79,5.84,1.79,-1.80,-1.68,-1.51,4.04,4.04,4.05
211.44,5.84,1.81,5.84,1.81,-1.81,-1.69,-1.55,4.03,4.03,4.03
213.56,5.84,1.82,5.84,1.82,-1.82,-1.71,-1.59,4.02,4.02,4.02
215.69,5.84,1.83,5.84,1.83,-1.83,-1.73,-1.62,4.01,4.01,4.01
217.85,5.84,1.84,5.84,1.85,-1.84,-1.75,-1.66,4.00,4.00,3.99
220.03,5.84,1.86,5.84,1.86,-1.85,-1.77,-1.70,3.99,3.99,3.98
222.23,5.84,1.87,5.83,1.86,-1.85,-1.78,-1.73,3.98,3.98,3.97
224.45,5.82,1.86,5.82,1.86,-1.86,-1.80,-1.77,3.96,3.96,3.96
226.70,5.81,1.86,5.81,1.86,-1.86,-1.82,-1.80,3.95,3.94,3.95
228.96,5.79,1.85,5.79,1.86,-1.86,-1.84,-1.83,3.92,3.93,3.94
231.25,5.79,1.86,5.79,1.86,-1.87,-1.85,-1.86,3.92,3.92,3.93
233.57,5.79,1.87,5.79,1.87,-1.87,-1.87,-1.89,3.91,3.91,3.92
235.90,5.79,1.88,5.79,1.88,-1.88,-1.89,-1.91,3.91,3.91,3.91
238.26,5.79,1.89,5.79,1.89,-1.88,-1.91,-1.94,3.90,3.90,3.90
240.64,5.79,1.90,5.79,1.90,-1.89,-1.92,-1.96,3.90,3.90,3.89
243.05,5.79,1.90,5.79,1.91,-1.90,-1.94,-1.98,3.89,3.89,3.88
245.48,5.79,1.91,5.78,1.90,-1.90,-1.96,-2.00,3.89,3.88,3.88
247.93,5.77,1.90,5.77,1.90,-1.90,-1.97,-2.01,3.86,3.86,3.87
250.41,5.75,1.89,5.76,1.90,-1.90,-1.99,-2.02,3.84,3.85,3.86
252.92,5.75,1.89,5.75,1.89,-1.90,-2.01,-2.03,3.84,3.84,3.85
255.45,5.75,1.90,5.75,1.90,-1.90,-2.02,-2.04,3.85,3.85,3.85
258.00,5.75,1.91,5.75,1.91,-1.90,-2.04,-2.04,3.85,3.85,3.84
260.58,5.75,1.91,5.74,1.91,-1.90,-2.05,-2.05,3.85,3.84,3.83
263.19,5.73,1.90,5.73,1.90,-1.90,-2.07,-2.05,3.83,3.83,3.83
265.82,5.71,1.89,5.72,1.89,-1.90,-2.08,-2.05,3.81,3.81,3.82
268.48,5.71,1.89,5.71,1.89,-1.90,-2.09,-2.04,3.81,3.81,3.82
271.16,5.71,1.90,5.71,1.90,-1.90,-2.11,-2.04,3.81,3.81,3.81
273.87,5.71,1.90,5.71,1.90,-1.89,-2.12,-2.03,3.82,3.82,3.80
276.61,5.71,1.91,5.70,1.90,-1.89,-2.13,-2.03,3.82,3.81,3.80
279.38,5.68,1.88,5.68,1.89,-1.88,-2.15,-2.02,3.79,3.80,3.79
282.17,5.66,1.87,5.67,1.88,-1.88,-2.16,-2.01,3.77,3.78,3.79
284.99,5.66,1.87,5.66,1.87,-1.88,-2.17,-2.00,3.78,3.77,3.79
287.84,5.66,1.88,5.66,1.87,-1.88,-2.18,-1.98,3.78,3.78,3.78
290.72,5.66,1.88,5.66,1.88,-1.88,-2.19,-1.97,3.78,3.78,3.78
293.63,5.66,1.88,5.66,1.88,-1.88,-2.20,-1.96,3.78,3.78,3.77
296.57,5.66,1.89,5.66,1.89,-1.89,-2.21,-1.95,3.77,3.77,3.77
299.53,5.66,1.89,5.66,1.89,-1.89,-2.22,-1.94,3.77,3.77,3.77
302.53,5.66,1.90,5.66,1.90,-1.90,-2.23,-1.93,3.76,3.76,3.76
305.55,5.66,1.90,5.66,1.90,-1.90,-2.24,-1.92,3.76,3.76,3.76
308.61,5.66,1.90,5.66,1.90,-1.90,-2.25,-1.91,3.75,3.75,3.75
311.69,5.66,1.91,5.66,1.91,-1.91,-2.25,-1.90,3.75,3.75,3.75
314.81,5.66,1.91,5.66,1.91,-1.91,-2.26,-1.89,3.75,3.75,3.75
317.96,5.66,1.91,5.66,1.91,-1.91,-2.27,-1.88,3.75,3.75,3.75
321.14,5.66,1.91,5.66,1.92,-1.91,-2.27,-1.88,3.75,3.75,3.74
324.35,5.66,1.92,5.65,1.91,-1.91,-2.28,-1.87,3.75,3.74,3.74
327.59,5.65,1.91,5.65,1.91,-1.91,-2.28,-1.87,3.74,3.74,3.74
330.87,5.64,1.90,5.64,1.91,-1.91,-2.29,-1.86,3.73,3.73,3.74
334.18,5.64,1.91,5.64,1.91,-1.91,-2.29,-1.86,3.73,3.73,3.73
337.52,5.64,1.91,5.64,1.91,-1.90,-2.30,-1.86,3.73,3.73,3.73
340.90,5.64,1.91,5.63,1.90,-1.90,-2.30,-1.86,3.74,3.73,3.73
344.30,5.62,1.89,5.62,1.90,-1.90,-2.30,-1.87,3.72,3.72,3.73
347.75,5.62,1.89,5.62,1.89,-1.90,-2.30,-1.87,3.72,3.72,3.72
351.23,5.62,1.90,5.62,1.89,-1.90,-2.30,-1.88,3.72,3.72,3.72
354.74,5.62,1.90,5.62,1.90,-1.90,-2.30,-1.89,3.72,3.72,3.72
358.28,5.62,1.90,5.62,1.90,-1.90,-2.30,-1.90,3.72,3.72,3.72
361.87,5.62,1.90,5.62,1.90,-1.90,-2.30,-1.91,3.72,3.72,3.72
365.49,5.62,1.90,5.62,1.91,-1.90,-2.30,-1.92,3.72,3.72,3.71
369.14,5.62,1.90,5.61,1.90,-1.89,-2.30,-1.94,3.72,3.72,3.71
372.83,5.61,1.90,5.60,1.89,-1.89,-2.29,-1.95,3.72,3.71,3.71
376.56,5.58,1.87,5.59,1.88,-1.89,-2.29,-1.97,3.69,3.70,3.71
380.33,5.58,1.87,5.58,1.87,-1.88,-2.29,-1.99,3.70,3.70,3.71
384.13,5.58,1.87,5.58,1.87,-1.87,-2.28,-2.01,3.71,3.70,3.71
387.97,5.58,1.87,5.58,1.87,-1.86,-2.28,-2.03,3.71,3.72,3.71
391.85,5.58,1.87,5.57,1.87,-1.86,-2.27,-2.05,3.72,3.71,3.70
395.77,5.56,1.85,5.55,1.85,-1.85,-2.26,-2.07,3.71,3.70,3.70
399.73,5.53,1.83,5.54,1.84,-1.84,-2.26,-2.09,3.69,3.70,3.70
403.72,5.53,1.83,5.53,1.83,-1.83,-2.25,-2.12,3.69,3.70,3.70
407.76,5.53,1.83,5.52,1.82,-1.83,-2.24,-2.14,3.70,3.70,3.70
411.84,5.53,1.83,5.52,1.82,-1.82,-2.23,-2.16,3.71,3.70,3.70
415.96,5.50,1.80,5.50,1.81,-1.81,-2.22,-2.19,3.69,3.70,3.70
420.12,5.49,1.79,5.50,1.80,-1.80,-2.21,-2.21,3.69,3.70,3.70
424.32,5.49,1.79,5.48,1.79,-1.79,-2.19,-2.24,3.70,3.69,3.70
428.56,5.49,1.79,5.47,1.78,-1.78,-2.18,-2.26,3.71,3.70,3.70
432.85,5.45,1.75,5.46,1.77,-1.77,-2.17,-2.28,3.68,3.70,3.69
437.18,5.45,1.75,5.45,1.76,-1.76,-2.15,-2.30,3.69,3.70,3.69
441.55,5.45,1.75,5.43,1.74,-1.74,-2.14,-2.32,3.71,3.69,3.69
445.96,5.42,1.73,5.42,1.73,-1.73,-2.12,-2.34,3.69,3.69,3.69
450.42,5.40,1.71,5.41,1.72,-1.72,-2.10,-2.35,3.68,3.69,3.69
454.93,5.40,1.71,5.39,1.70,-1.70,-2.09,-2.36,3.70,3.69,3.69
459.48,5.38,1.69,5.38,1.69,-1.69,-2.07,-2.37,3.69,3.69,3.69
464.07,5.36,1.67,5.36,1.67,-1.67,-2.05,-2.38,3.69,3.69,3.69
468.71,5.36,1.67,5.35,1.66,-1.66,-2.03,-2.38,3.70,3.69,3.69
473.40,5.32,1.63,5.33,1.64,-1.64,-2.00,-2.38,3.68,3.69,3.69
478.13,5.32,1.63,5.31,1.62,-1.62,-1.98,-2.37,3.69,3.69,3.69
482.91,5.30,1.61,5.29,1.61,-1.61,-1.96,-2.36,3.69,3.69,3.69
487.74,5.27,1.58,5.28,1.59,-1.59,-1.93,-2.35,3.68,3.69,3.69
492.62,5.27,1.58,5.26,1.57,-1.57,-1.91,-2.33,3.70,3.69,3.69
497.55,5.23,1.54,5.24,1.55,-1.55,-1.88,-2.30,3.67,3.68,3.69
502.52,5.23,1.54,5.22,1.53,-1.54,-1.85,-2.28,3.69,3.68,3.69
507.55,5.19,1.50,5.20,1.51,-1.52,-1.82,-2.24,3.67,3.68,3.68
512.62,5.19,1.50,5.18,1.50,-1.50,-1.80,-2.20,3.69,3.69,3.68
517.75,5.17,1.48,5.16,1.48,-1.48,-1.76,-2.16,3.69,3.68,3.68
522.93,5.14,1.45,5.14,1.46,-1.45,-1.73,-2.11,3.68,3.69,3.68
528.16,5.11,1.42,5.11,1.43,-1.43,-1.70,-2.06,3.68,3.68,3.68
533.44,5.10,1.42,5.09,1.41,-1.41,-1.66,-2.00,3.69,3.68,3.68
538.77,5.06,1.38,5.06,1.38,-1.38,-1.63,-1.94,3.68,3.68,3.68
544.16,5.04,1.36,5.03,1.35,-1.35,-1.59,-1.88,3.68,3.68,3.68
549.60,5.01,1.33,5.01,1.33,-1.33,-1.55,-1.81,3.68,3.68,3.68
555.10,4.98,1.30,4.98,1.30,-1.30,-1.51,-1.74,3.67,3.68,3.68
560.65,4.97,1.29,4.96,1.28,-1.28,-1.47,-1.66,3.69,3.68,3.68
566.25,4.93,1.25,4.94,1.26,-1.25,-1.43,-1.58,3.67,3.68,3.68
