frequency,raw
20.00,-3.70
20.20,-3.66
20.40,-3.63
20.61,-3.60
20.81,-3.56
21.02,-3.52
21.23,-3.49
21.44,-3.46
21.66,-3.42
21.87,-3.39
22.09,-3.36
22.31,-3.32
22.54,-3.28
22.76,-3.24
22.99,-3.20
23.22,-3.16
23.45,-3.13
23.69,-3.10
23.92,-3.06
24.16,-3.03
24.40,-2.99
24.65,-2.95
24.89,-2.91
25.14,-2.88
25.39,-2.84
25.65,-2.80
25.91,-2.77
26.16,-2.74
26.43,-2.70
26.69,-2.67
26.96,-2.63
27.23,-2.60
27.50,-2.57
27.77,-2.54
28.05,-2.51
28.33,-2.49
28.62,-2.47
28.90,-2.44
29.19,-2.42
29.48,-2.40
29.78,-2.38
30.08,-2.36
30.38,-2.36
30.68,-2.34
30.99,-2.33
31.30,-2.33
31.61,-2.32
31.93,-2.32
32.24,-2.32
32.57,-2.32
32.89,-2.31
33.22,-2.32
33.55,-2.32
33.89,-2.32
34.23,-2.33
34.57,-2.33
34.92,-2.33
35.27,-2.34
35.62,-2.34
35.97,-2.34
36.33,-2.35
36.70,-2.36
37.06,-2.37
37.43,-2.37
37.81,-2.37
38.19,-2.39
38.57,-2.40
38.95,-2.40
39.34,-2.41
39.74,-2.41
40.14,-2.41
40.54,-2.43
40.94,-2.43
41.35,-2.44
41.76,-2.44
42.18,-2.45
42.60,-2.46
43.03,-2.47
43.46,-2.48
43.90,-2.49
44.33,-2.49
44.78,-2.50
45.23,-2.50
45.68,-2.50
46.13,-2.50
46.60,-2.51
47.06,-2.51
47.53,-2.51
48.01,-2.51
48.49,-2.51
48.97,-2.52
49.46,-2.52
49.96,-2.52
50.46,-2.53
50.96,-2.53
51.47,-2.53
51.99,-2.53
52.51,-2.54
53.03,-2.54
53.56,-2.54
54.10,-2.54
54.64,-2.54
55.18,-2.53
55.74,-2.53
56.29,-2.52
56.86,-2.52
57.42,-2.51
58.00,-2.50
58.58,-2.49
59.16,-2.47
59.76,-2.46
60.35,-2.45
60.96,-2.43
61.57,-2.42
62.18,-2.40
62.80,-2.39
63.43,-2.38
64.07,-2.36
64.71,-2.34
65.35,-2.33
66.01,-2.32
66.67,-2.33
67.33,-2.33
68.01,-2.35
68.69,-2.36
69.37,-2.39
70.07,-2.42
70.77,-2.45
71.48,-2.49
72.19,-2.53
72.91,-2.56
73.64,-2.59
74.38,-2.63
75.12,-2.65
75.87,-2.69
76.63,-2.71
77.40,-2.73
78.17,-2.75
78.95,-2.78
79.74,-2.80
80.54,-2.83
81.35,-2.86
82.16,-2.89
82.98,-2.92
83.81,-2.96
84.65,-2.98
85.50,-3.03
86.35,-3.08
87.22,-3.13
88.09,-3.17
88.97,-3.23
89.86,-3.28
90.76,-3.31
91.66,-3.33
92.58,-3.36
93.51,-3.39
94.44,-3.42
95.39,-3.44
96.34,-3.47
97.30,-3.49
98.28,-3.52
99.26,-3.55
100.25,-3.59
101.25,-3.61
102.27,-3.64
103.29,-3.66
104.32,-3.67
105.37,-3.69
106.42,-3.71
107.48,-3.72
108.56,-3.73
109.64,-3.73
110.74,-3.71
111.85,-3.68
112.97,-3.67
114.10,-3.67
115.24,-3.69
116.39,-3.70
117.55,-3.74
118.73,-3.77
119.92,-3.82
121.12,-3.86
122.33,-3.90
123.55,-3.93
124.79,-3.98
126.03,-4.02
127.29,-4.05
128.57,-4.10
129.85,-4.15
131.15,-4.20
132.46,-4.22
133.79,-4.25
135.12,-4.28
136.48,-4.31
137.84,-4.35
139.22,-4.40
140.61,-4.44
142.02,-4.51
143.44,-4.55
144.87,-4.62
146.32,-4.67
147.78,-4.73
149.26,-4.79
150.75,-4.85
152.26,-4.90
153.78,-4.98
155.32,-5.05
156.88,-5.13
158.44,-5.18
160.03,-5.25
161.63,-5.30
163.24,-5.35
164.88,-5.43
166.53,-5.49
168.19,-5.55
169.87,-5.60
171.57,-5.65
173.29,-5.69
175.02,-5.77
176.77,-5.81
178.54,-5.84
180.32,-5.86
182.13,-5.89
183.95,-5.93
185.79,-5.95
187.65,-5.96
189.52,-5.98
191.42,-5.98
193.33,-5.97
195.27,-5.98
197.22,-5.99
199.19,-5.99
201.18,-6.00
203.19,-6.00
205.23,-6.00
207.28,-6.01
209.35,-6.01
211.44,-6.02
213.56,-6.03
215.69,-6.03
217.85,-6.03
220.03,-6.02
222.23,-6.01
224.45,-5.98
226.70,-5.93
228.96,-5.90
231.25,-5.88
233.57,-5.83
235.90,-5.78
238.26,-5.75
240.64,-5.71
243.05,-5.68
245.48,-5.65
247.93,-5.62
250.41,-5.60
252.92,-5.59
255.45,-5.59
258.00,-5.59
260.58,-5.59
263.19,-5.59
265.82,-5.58
268.48,-5.58
271.16,-5.58
273.87,-5.58
276.61,-5.58
279.38,-5.57
282.17,-5.56
284.99,-5.54
287.84,-5.50
290.72,-5.46
293.63,-5.42
296.57,-5.38
299.53,-5.33
302.53,-5.29
305.55,-5.25
308.61,-5.21
311.69,-5.17
314.81,-5.14
317.96,-5.10
321.14,-5.05
324.35,-5.01
327.59,-4.97
330.87,-4.96
334.18,-4.93
337.52,-4.89
340.90,-4.84
344.30,-4.79
347.75,-4.74
351.23,-4.69
354.74,-4.65
358.28,-4.58
361.87,-4.53
365.49,-4.46
369.14,-4.42
372.83,-4.38
376.56,-4.32
380.33,-4.27
384.13,-4.21
387.97,-4.16
391.85,-4.09
395.77,-4.04
399.73,-3.98
403.72,-3.94
407.76,-3.88
411.84,-3.82
415.96,-3.78
420.12,-3.75
424.32,-3.73
428.56,-3.70
432.85,-3.66
437.18,-3.61
441.55,-3.56
445.96,-3.52
450.42,-3.48
454.93,-3.44
459.48,-3.39
464.07,-3.34
468.71,-3.31
473.40,-3.25
478.13,-3.22
482.91,-3.18
487.74,-3.14
492.62,-3.09
497.55,-3.05
502.52,-3.02
507.55,-2.99
512.62,-2.98
517.75,-2.94
522.93,-2.89
528.16,-2.83
533.44,-2.79
538.77,-2.74
544.16,-2.68
549.60,-2.62
555.10,-2.56
560.65,-2.50
566.25,-2.45
571.92,-2.40
577.64,-2.34
583.41,-2.29
589.25,-2.22
595.14,-2.15
601.09,-2.08
607.10,-2.01
613.17,-1.96
619.30,-1.90
625.50,-1.83
631.75,-1.79
638.07,-1.74
644.45,-1.70
650.89,-1.68
657.40,-1.65
663.98,-1.63
670.62,-1.62
677.32,-1.63
684.10,-1.65
690.94,-1.68
697.85,-1.72
704.83,-1.76
711.87,-1.78
718.99,-1.80
726.18,-1.82
733.44,-1.83
740.78,-1.85
748.19,-1.88
755.67,-1.90
763.23,-1.92
770.86,-1.93
778.57,-1.93
786.35,-1.91
794.22,-1.88
802.16,-1.84
810.18,-1.81
818.28,-1.78
826.46,-1.72
834.73,-1.65
843.08,-1.57
851.51,-1.47
860.02,-1.36
868.62,-1.26
877.31,-1.13
886.08,-1.02
894.94,-0.93
903.89,-0.85
912.93,-0.77
922.06,-0.70
931.28,-0.63
940.59,-0.57
950.00,-0.50
959.50,-0.44
969.09,-0.38
978.78,-0.35
988.57,-0.33
998.46,-0.30
1008.44,-0.26
1018.53,-0.24
1028.71,-0.22
1039.00,-0.21
1049.39,-0.21
1059.88,-0.21
1070.48,-0.22
1081.19,-0.23
1092.00,-0.26
1102.92,-0.30
1113.95,-0.32
1125.09,-0.33
1136.34,-0.36
1147.70,-0.40
1159.18,-0.42
1170.77,-0.44
1182.48,-0.45
1194.30,-0.46
1206.25,-0.48
1218.31,-0.48
1230.49,-0.49
1242.80,-0.48
1255.22,-0.49
1267.78,-0.48
1280.45,-0.46
1293.26,-0.45
1306.19,-0.44
1319.25,-0.43
1332.45,-0.42
1345.77,-0.40
1359.23,-0.37
1372.82,-0.34
1386.55,-0.31
1400.41,-0.26
1414.42,-0.22
1428.56,-0.17
1442.85,-0.11
1457.28,-0.06
1471.85,-0.02
1486.57,0.03
1501.43,0.08
1516.45,0.14
1531.61,0.20
1546.93,0.26
1562.40,0.31
1578.02,0.37
1593.80,0.45
1609.74,0.51
1625.84,0.58
1642.10,0.65
1658.52,0.72
1675.10,0.80
1691.85,0.88
1708.77,0.97
1725.86,1.04
1743.12,1.12
1760.55,1.18
1778.15,1.24
1795.94,1.31
1813.90,1.36
1832.03,1.41
1850.36,1.45
1868.86,1.50
1887.55,1.54
1906.42,1.58
1925.49,1.62
1944.74,1.65
1964.19,1.66
1983.83,1.67
2003.67,1.67
2023.71,1.66
2043.94,1.66
2064.38,1.65
2085.03,1.65
2105.88,1.65
2126.94,1.63
2148.20,1.63
2169.69,1.62
2191.38,1.61
2213.30,1.59
2235.43,1.58
2257.78,1.58
2280.36,1.58
2303.17,1.55
2326.20,1.53
2349.46,1.51
2372.95,1.47
2396.68,1.40
2420.65,1.33
2444.86,1.25
2469.31,1.14
2494.00,1.04
2518.94,0.93
2544.13,0.81
2569.57,0.67
2595.27,0.52
2621.22,0.38
2647.43,0.23
2673.90,0.09
2700.64,-0.04
2727.65,-0.15
2754.93,-0.25
2782.48,-0.33
2810.30,-0.40
2838.40,-0.44
2866.79,-0.46
2895.46,-0.46
2924.41,-0.42
2953.65,-0.35
2983.19,-0.24
3013.02,-0.10
3043.15,0.08
3073.58,0.28
3104.32,0.49
3135.36,0.74
3166.72,0.98
3198.38,1.25
3230.37,1.52
3262.67,1.81
3295.30,2.07
3328.25,2.35
3361.53,2.62
3395.15,2.87
3429.10,3.12
3463.39,3.34
3498.03,3.56
3533.01,3.78
3568.34,3.97
3604.02,4.17
3640.06,4.35
3676.46,4.51
3713.22,4.66
3750.36,4.78
3787.86,4.88
3825.74,4.98
3864.00,5.05
3902.64,5.11
3941.66,5.15
3981.08,5.16
4020.89,5.16
4061.10,5.13
4101.71,5.10
4142.73,5.06
4184.15,5.00
4226.00,4.92
4268.26,4.84
4310.94,4.74
4354.05,4.63
4397.59,4.51
4441.56,4.39
4485.98,4.25
4530.84,4.11
4576.15,3.95
4621.91,3.80
4668.13,3.64
4714.81,3.49
4761.96,3.36
4809.58,3.24
4857.67,3.14
4906.25,3.06
4955.31,3.00
5004.87,2.96
5054.91,2.94
5105.46,2.92
5156.52,2.93
5208.08,2.96
5260.16,3.00
5312.77,3.04
5365.89,3.09
5419.55,3.14
5473.75,3.17
5528.49,3.16
5583.77,3.12
5639.61,3.02
5696.00,2.88
5752.96,2.71
5810.49,2.46
5868.60,2.18
5927.28,1.84
5986.56,1.45
6046.42,1.01
6106.89,0.54
6167.96,0.05
6229.64,-0.45
6291.93,-0.93
6354.85,-1.39
6418.40,-1.82
6482.58,-2.21
6547.41,-2.56
6612.88,-2.86
6679.01,-3.11
6745.80,-3.32
6813.26,-3.49
6881.39,-3.62
6950.21,-3.71
7019.71,-3.77
7089.91,-3.83
7160.81,-3.88
7232.41,-3.92
7304.74,-3.96
7377.79,-3.98
7451.56,-4.01
7526.08,-4.01
7601.34,-4.02
7677.35,-4.03
7754.13,-4.04
7831.67,-4.07
7909.98,-4.11
7989.08,-4.20
8068.98,-4.35
8149.67,-4.56
8231.16,-4.86
8313.47,-5.27
8396.61,-5.78
8480.57,-6.38
8565.38,-7.07
8651.03,-7.84
8737.54,-8.66
8824.92,-9.48
8913.17,-10.29
9002.30,-11.04
9092.32,-11.72
9183.25,-12.27
9275.08,-12.70
9367.83,-12.96
9461.51,-13.05
9556.12,-12.96
9651.68,-12.68
9748.20,-12.28
9845.68,-11.77
9944.14,-11.17
10043.58,-10.55
10144.02,-9.92
10245.46,-9.30
10347.91,-8.73
10451.39,-8.25
10555.91,-7.86
10661.46,-7.55
10768.08,-7.32
10875.76,-7.14
10984.52,-7.03
11094.36,-6.94
11205.31,-6.89
11317.36,-6.81
11430.53,-6.72
11544.84,-6.60
11660.29,-6.40
11776.89,-6.16
11894.66,-5.88
12013.60,-5.59
12133.74,-5.27
12255.08,-4.97
12377.63,-4.71
12501.41,-4.50
12626.42,-4.36
12752.68,-4.32
12880.21,-4.35
13009.01,-4.45
13139.10,-4.61
13270.49,-4.82
13403.20,-5.07
13537.23,-5.37
13672.60,-5.70
13809.33,-6.08
13947.42,-6.47
14086.90,-6.88
14227.77,-7.28
14370.04,-7.66
14513.74,-8.03
14658.88,-8.36
14805.47,-8.66
14953.52,-8.92
15103.06,-9.16
15254.09,-9.39
15406.63,-9.63
15560.70,-9.88
15716.30,-10.16
15873.47,-10.43
16032.20,-10.69
16192.52,-10.94
16354.45,-11.17
16517.99,-11.39
16683.17,-11.58
16850.01,-11.75
17018.51,-11.92
17188.69,-12.05
17360.58,-12.18
17534.18,-12.30
17709.53,-12.43
17886.62,-12.60
18065.49,-12.68
18246.14,-12.85
18428.60,-13.06
18612.89,-13.29
18799.02,-13.53
18987.01,-13.81
19176.88,-14.09
19368.65,-14.40
19562.33,-14.72
19757.96,-15.05
19955.54,-15.42
