frequency,raw,error,smoothed,error_smoothed,equalization,parametric_eq,fixed_band_eq,equalized_raw,equalized_smoothed,target
20.00,6.74,3.56,6.74,3.56,-3.56,-3.48,-2.30,3.18,3.18,3.18
20.20,6.82,3.64,6.82,3.63,-3.63,-3.54,-2.37,3.19,3.19,3.18
20.40,6.89,3.70,6.89,3.70,-3.70,-3.60,-2.44,3.19,3.19,3.19
20.61,6.96,3.76,6.97,3.76,-3.76,-3.66,-2.51,3.19,3.20,3.20
20.81,7.04,3.84,7.04,3.83,-3.83,-3.72,-2.58,3.21,3.21,3.20
21.02,7.11,3.90,7.11,3.90,-3.90,-3.78,-2.66,3.21,3.21,3.21
21.23,7.18,3.97,7.18,3.97,-3.96,-3.84,-2.74,3.22,3.22,3.21
21.44,7.25,4.03,7.25,4.03,-4.03,-3.90,-2.82,3.23,3.22,3.22
21.66,7.32,4.09,7.32,4.09,-4.09,-3.96,-2.90,3.23,3.23,3.23
21.87,7.38,4.15,7.38,4.15,-4.16,-4.02,-2.98,3.23,3.23,3.23
22.09,7.45,4.21,7.45,4.21,-4.22,-4.08,-3.07,3.23,3.23,3.24
22.31,7.52,4.27,7.52,4.28,-4.28,-4.14,-3.16,3.24,3.25,3.25
22.54,7.60,4.35,7.60,4.34,-4.34,-4.20,-3.25,3.26,3.26,3.25
22.76,7.67,4.41,7.67,4.41,-4.39,-4.26,-3.35,3.28,3.27,3.26
22.99,7.73,4.46,7.73,4.46,-4.45,-4.32,-3.44,3.28,3.28,3.27
23.22,7.78,4.50,7.78,4.50,-4.50,-4.38,-3.54,3.28,3.28,3.28
23.45,7.83,4.54,7.83,4.54,-4.55,-4.44,-3.64,3.28,3.28,3.29
23.69,7.89,4.59,7.89,4.59,-4.60,-4.50,-3.75,3.29,3.29,3.30
23.92,7.95,4.64,7.95,4.64,-4.65,-4.55,-3.85,3.30,3.30,3.31
24.16,8.01,4.69,8.01,4.69,-4.70,-4.61,-3.96,3.32,3.32,3.32
24.40,8.07,4.74,8.07,4.74,-4.74,-4.66,-4.07,3.33,3.33,3.33
24.65,8.13,4.78,8.13,4.79,-4.78,-4.72,-4.18,3.35,3.35,3.35
24.89,8.19,4.83,8.19,4.83,-4.82,-4.77,-4.29,3.37,3.36,3.36
25.14,8.24,4.87,8.24,4.87,-4.86,-4.82,-4.40,3.38,3.37,3.37
25.39,8.27,4.90,8.28,4.90,-4.90,-4.87,-4.52,3.38,3.38,3.38
25.65,8.31,4.93,8.31,4.92,-4.93,-4.92,-4.63,3.38,3.39,3.39
25.91,8.35,4.95,8.35,4.95,-4.95,-4.96,-4.75,3.40,3.40,3.40
26.16,8.39,4.98,8.39,4.98,-4.98,-5.01,-4.86,3.41,3.41,3.41
26.43,8.43,5.01,8.43,5.00,-5.00,-5.05,-4.98,3.43,3.42,3.42
26.69,8.46,5.03,8.46,5.03,-5.03,-5.09,-5.09,3.43,3.44,3.43
26.96,8.50,5.05,8.50,5.05,-5.05,-5.13,-5.20,3.45,3.45,3.45
27.23,8.53,5.07,8.53,5.07,-5.07,-5.16,-5.31,3.46,3.46,3.46
27.50,8.57,5.09,8.57,5.09,-5.09,-5.19,-5.41,3.48,3.48,3.48
27.77,8.61,5.12,8.61,5.12,-5.11,-5.22,-5.51,3.50,3.50,3.49
28.05,8.64,5.13,8.64,5.13,-5.13,-5.25,-5.61,3.52,3.51,3.51
28.33,8.66,5.14,8.66,5.14,-5.14,-5.28,-5.70,3.52,3.52,3.52
28.62,8.68,5.14,8.68,5.15,-5.15,-5.30,-5.79,3.53,3.53,3.54
28.90,8.71,5.16,8.71,5.16,-5.17,-5.32,-5.87,3.55,3.54,3.55
29.19,8.73,5.16,8.73,5.17,-5.18,-5.34,-5.94,3.56,3.56,3.57
29.48,8.76,5.19,8.76,5.18,-5.18,-5.35,-6.01,3.58,3.58,3.58
29.78,8.78,5.19,8.78,5.19,-5.19,-5.36,-6.07,3.59,3.59,3.59
30.08,8.80,5.20,8.80,5.19,-5.19,-5.37,-6.12,3.61,3.61,3.60
30.38,8.81,5.19,8.81,5.19,-5.18,-5.38,-6.15,3.63,3.63,3.62
30.68,8.82,5.19,8.82,5.19,-5.18,-5.38,-6.18,3.64,3.64,3.63
30.99,8.82,5.17,8.82,5.17,-5.16,-5.38,-6.20,3.66,3.65,3.65
31.30,8.81,5.15,8.81,5.15,-5.15,-5.38,-6.21,3.66,3.66,3.66
31.61,8.80,5.12,8.80,5.13,-5.13,-5.37,-6.21,3.67,3.67,3.68
31.93,8.79,5.10,8.79,5.11,-5.11,-5.36,-6.20,3.68,3.68,3.69
32.24,8.79,5.09,8.79,5.09,-5.09,-5.35,-6.18,3.70,3.70,3.70
32.57,8.79,5.08,8.79,5.07,-5.08,-5.33,-6.15,3.72,3.71,3.71
32.89,8.79,5.06,8.79,5.06,-5.06,-5.31,-6.11,3.73,3.73,3.73
33.22,8.79,5.05,8.79,5.05,-5.05,-5.29,-6.06,3.75,3.75,3.74
33.55,8.79,5.03,8.79,5.03,-5.03,-5.27,-6.00,3.76,3.76,3.76
33.89,8.79,5.02,8.79,5.02,-5.02,-5.25,-5.94,3.77,3.77,3.77
34.23,8.79,5.01,8.79,5.01,-5.02,-5.22,-5.86,3.77,3.78,3.79
34.57,8.80,5.01,8.80,5.00,-5.01,-5.19,-5.79,3.79,3.79,3.79
34.92,8.80,5.00,8.81,5.00,-5.00,-5.15,-5.70,3.80,3.80,3.80
35.27,8.81,4.99,8.81,4.99,-4.99,-5.12,-5.61,3.82,3.82,3.82
35.62,8.82,4.99,8.82,4.99,-4.98,-5.08,-5.52,3.84,3.83,3.83
35.97,8.81,4.97,8.82,4.98,-4.97,-5.05,-5.43,3.84,3.84,3.84
36.33,8.81,4.97,8.81,4.96,-4.96,-5.00,-5.33,3.85,3.85,3.84
36.70,8.79,4.94,8.79,4.94,-4.94,-4.96,-5.23,3.85,3.85,3.85
37.06,8.77,4.91,8.77,4.91,-4.91,-4.92,-5.13,3.86,3.86,3.86
37.43,8.75,4.88,8.75,4.88,-4.88,-4.87,-5.02,3.87,3.87,3.87
37.81,8.73,4.86,8.73,4.85,-4.85,-4.83,-4.92,3.88,3.87,3.87
38.19,8.70,4.82,8.70,4.82,-4.82,-4.78,-4.82,3.88,3.88,3.88
38.57,8.67,4.78,8.67,4.79,-4.79,-4.73,-4.71,3.88,3.88,3.89
38.95,8.65,4.75,8.65,4.75,-4.76,-4.68,-4.61,3.89,3.89,3.90
39.34,8.62,4.72,8.62,4.72,-4.72,-4.63,-4.51,3.90,3.90,3.90
39.74,8.60,4.69,8.60,4.69,-4.69,-4.58,-4.41,3.91,3.91,3.91
40.14,8.57,4.66,8.57,4.66,-4.65,-4.53,-4.31,3.92,3.92,3.91
40.54,8.53,4.62,8.53,4.62,-4.61,-4.48,-4.22,3.92,3.92,3.91
40.94,8.49,4.57,8.49,4.57,-4.57,-4.43,-4.12,3.92,3.92,3.92
41.35,8.45,4.52,8.45,4.53,-4.53,-4.38,-4.03,3.92,3.92,3.93
41.76,8.42,4.49,8.42,4.48,-4.49,-4.32,-3.94,3.93,3.92,3.93
42.18,8.38,4.44,8.38,4.44,-4.46,-4.27,-3.85,3.93,3.93,3.94
42.60,8.35,4.41,8.35,4.41,-4.42,-4.22,-3.77,3.93,3.93,3.94
43.03,8.33,4.38,8.33,4.38,-4.38,-4.16,-3.68,3.95,3.95,3.95
43.46,8.31,4.36,8.31,4.35,-4.35,-4.11,-3.60,3.96,3.96,3.96
43.90,8.29,4.33,8.29,4.32,-4.31,-4.06,-3.53,3.98,3.97,3.96
44.33,8.26,4.28,8.26,4.29,-4.28,-4.01,-3.45,3.98,3.98,3.98
44.78,8.23,4.25,8.23,4.25,-4.24,-3.95,-3.38,3.99,3.99,3.98
45.23,8.19,4.20,8.19,4.20,-4.20,-3.90,-3.31,3.99,3.99,3.99
45.68,8.15,4.15,8.15,4.15,-4.16,-3.85,-3.24,3.99,3.99,4.00
46.13,8.11,4.10,8.11,4.11,-4.11,-3.80,-3.17,4.00,4.00,4.01
46.60,8.08,4.06,8.08,4.06,-4.07,-3.75,-3.11,4.01,4.01,4.02
47.06,8.05,4.03,8.05,4.02,-4.03,-3.70,-3.05,4.02,4.02,4.02
47.53,8.02,3.98,8.02,3.98,-3.98,-3.65,-3.00,4.04,4.04,4.04
48.01,7.98,3.94,7.98,3.94,-3.94,-3.60,-2.94,4.04,4.05,4.04
48.49,7.95,3.90,7.95,3.90,-3.89,-3.55,-2.89,4.06,4.05,4.05
48.97,7.91,3.85,7.91,3.85,-3.85,-3.50,-2.84,4.06,4.06,4.06
49.46,7.87,3.80,7.87,3.81,-3.80,-3.46,-2.79,4.07,4.07,4.07
49.96,7.83,3.76,7.83,3.75,-3.75,-3.41,-2.74,4.08,4.08,4.07
50.46,7.78,3.71,7.78,3.70,-3.70,-3.36,-2.70,4.08,4.08,4.08
50.96,7.72,3.63,7.72,3.64,-3.64,-3.32,-2.66,4.08,4.08,4.09
51.47,7.67,3.58,7.67,3.58,-3.59,-3.27,-2.62,4.08,4.08,4.09
51.99,7.62,3.53,7.62,3.53,-3.54,-3.23,-2.58,4.08,4.09,4.09
52.51,7.58,3.49,7.58,3.48,-3.48,-3.19,-2.55,4.10,4.09,4.09
53.03,7.53,3.44,7.53,3.43,-3.43,-3.15,-2.51,4.10,4.10,4.09
53.56,7.48,3.38,7.48,3.38,-3.38,-3.10,-2.48,4.10,4.10,4.10
54.10,7.43,3.33,7.43,3.33,-3.32,-3.06,-2.45,4.11,4.11,4.10
54.64,7.37,3.27,7.37,3.27,-3.27,-3.02,-2.42,4.10,4.10,4.10
55.18,7.32,3.23,7.32,3.22,-3.22,-2.98,-2.40,4.10,4.10,4.09
55.74,7.25,3.16,7.25,3.16,-3.16,-2.94,-2.37,4.09,4.09,4.09
56.29,7.19,3.10,7.19,3.10,-3.11,-2.90,-2.35,4.08,4.08,4.09
56.86,7.13,3.05,7.13,3.05,-3.05,-2.87,-2.33,4.08,4.08,4.08
57.42,7.08,3.00,7.08,3.00,-3.00,-2.83,-2.31,4.08,4.08,4.08
58.00,7.02,2.95,7.02,2.95,-2.94,-2.79,-2.29,4.08,4.07,4.07
58.58,6.95,2.89,6.95,2.89,-2.89,-2.75,-2.28,4.06,4.06,4.06
59.16,6.88,2.83,6.88,2.83,-2.83,-2.72,-2.26,4.05,4.05,4.05
59.76,6.81,2.77,6.81,2.77,-2.78,-2.68,-2.25,4.04,4.03,4.04
60.35,6.74,2.72,6.74,2.72,-2.72,-2.64,-2.23,4.02,4.02,4.02
60.96,6.66,2.65,6.67,2.66,-2.66,-2.61,-2.22,4.00,4.01,4.01
61.57,6.60,2.61,6.60,2.60,-2.60,-2.57,-2.21,4.00,3.99,3.99
62.18,6.52,2.54,6.52,2.54,-2.54,-2.53,-2.21,3.98,3.98,3.98
62.80,6.44,2.48,6.44,2.48,-2.48,-2.49,-2.20,3.96,3.96,3.96
63.43,6.36,2.42,6.36,2.42,-2.42,-2.46,-2.19,3.94,3.94,3.94
64.07,6.28,2.36,6.29,2.36,-2.36,-2.42,-2.19,3.92,3.92,3.92
64.71,6.21,2.31,6.21,2.31,-2.30,-2.38,-2.18,3.91,3.91,3.90
65.35,6.13,2.25,6.12,2.24,-2.24,-2.33,-2.18,3.89,3.89,3.88
66.01,6.03,2.17,6.04,2.17,-2.18,-2.29,-2.18,3.85,3.86,3.86
66.67,5.95,2.11,5.95,2.11,-2.11,-2.25,-2.18,3.84,3.84,3.84
67.33,5.87,2.05,5.87,2.05,-2.05,-2.20,-2.18,3.82,3.82,3.83
68.01,5.80,2.01,5.79,2.00,-1.99,-2.15,-2.19,3.81,3.80,3.80
68.69,5.71,1.94,5.71,1.93,-1.93,-2.10,-2.19,3.78,3.78,3.77
69.37,5.62,1.87,5.62,1.87,-1.87,-2.04,-2.20,3.75,3.75,3.75
70.07,5.53,1.80,5.54,1.81,-1.81,-1.98,-2.21,3.72,3.72,3.73
70.77,5.46,1.75,5.46,1.75,-1.76,-1.92,-2.22,3.71,3.70,3.71
71.48,5.39,1.71,5.39,1.70,-1.70,-1.86,-2.23,3.69,3.69,3.69
72.19,5.31,1.65,5.31,1.65,-1.64,-1.79,-2.24,3.67,3.67,3.66
72.91,5.23,1.58,5.23,1.59,-1.58,-1.72,-2.25,3.65,3.65,3.65
73.64,5.16,1.54,5.16,1.53,-1.53,-1.64,-2.27,3.63,3.63,3.62
74.38,5.08,1.47,5.08,1.47,-1.47,-1.57,-2.29,3.61,3.60,3.61
75.12,5.00,1.42,5.00,1.42,-1.42,-1.49,-2.30,3.58,3.58,3.58
75.87,4.93,1.37,4.93,1.37,-1.37,-1.41,-2.33,3.56,3.56,3.57
76.63,4.87,1.32,4.87,1.32,-1.32,-1.33,-2.35,3.55,3.55,3.55
77.40,4.82,1.29,4.82,1.29,-1.28,-1.25,-2.37,3.54,3.53,3.53
78.17,4.76,1.25,4.76,1.25,-1.25,-1.17,-2.40,3.52,3.52,3.51
78.95,4.71,1.22,4.71,1.22,-1.22,-1.11,-2.43,3.49,3.49,3.49
79.74,4.66,1.19,4.66,1.19,-1.19,-1.05,-2.46,3.47,3.47,3.47
80.54,4.63,1.18,4.63,1.18,-1.18,-1.01,-2.49,3.45,3.45,3.45
81.35,4.60,1.17,4.60,1.17,-1.17,-0.98,-2.52,3.43,3.43,3.43
82.16,4.59,1.18,4.59,1.18,-1.18,-0.97,-2.56,3.41,3.41,3.41
82.98,4.58,1.19,4.58,1.19,-1.19,-0.98,-2.60,3.39,3.39,3.39
83.81,4.58,1.21,4.58,1.21,-1.21,-1.01,-2.64,3.37,3.37,3.37
84.65,4.59,1.25,4.59,1.25,-1.25,-1.07,-2.68,3.34,3.34,3.34
85.50,4.61,1.29,4.61,1.29,-1.30,-1.14,-2.73,3.31,3.31,3.32
86.35,4.64,1.34,4.64,1.35,-1.35,-1.23,-2.77,3.29,3.29,3.30
87.22,4.68,1.41,4.69,1.42,-1.42,-1.34,-2.82,3.26,3.27,3.27
88.09,4.75,1.50,4.74,1.49,-1.49,-1.46,-2.87,3.26,3.25,3.25
88.97,4.81,1.58,4.80,1.58,-1.57,-1.58,-2.93,3.24,3.23,3.23
89.86,4.86,1.65,4.87,1.66,-1.66,-1.72,-2.98,3.20,3.21,3.21
90.76,4.94,1.76,4.94,1.75,-1.75,-1.85,-3.04,3.19,3.18,3.18
91.66,5.01,1.85,5.01,1.85,-1.85,-1.99,-3.10,3.16,3.16,3.16
92.58,5.08,1.94,5.09,1.95,-1.95,-2.12,-3.16,3.13,3.14,3.14
93.51,5.17,2.06,5.17,2.06,-2.06,-2.25,-3.22,3.11,3.11,3.11
94.44,5.26,2.17,5.26,2.17,-2.17,-2.38,-3.29,3.10,3.09,3.09
95.39,5.35,2.29,5.35,2.28,-2.28,-2.50,-3.36,3.07,3.07,3.06
96.34,5.44,2.39,5.44,2.40,-2.39,-2.61,-3.43,3.05,3.05,3.05
97.30,5.53,2.51,5.53,2.51,-2.51,-2.72,-3.50,3.02,3.02,3.02
98.28,5.62,2.63,5.63,2.63,-2.64,-2.83,-3.57,2.98,2.99,2.99
99.26,5.73,2.77,5.73,2.76,-2.77,-2.92,-3.64,2.96,2.96,2.96
100.25,5.83,2.89,5.84,2.90,-2.90,-3.02,-3.72,2.93,2.94,2.94
101.25,5.95,3.04,5.95,3.04,-3.04,-3.10,-3.79,2.91,2.91,2.91
102.27,6.06,3.18,6.06,3.18,-3.18,-3.19,-3.87,2.88,2.87,2.88
103.29,6.17,3.33,6.18,3.33,-3.33,-3.27,-3.94,2.84,2.84,2.84
104.32,6.29,3.48,6.29,3.48,-3.48,-3.34,-4.02,2.81,2.81,2.81
105.37,6.42,3.64,6.41,3.63,-3.64,-3.42,-4.10,2.79,2.78,2.78
106.42,6.53,3.79,6.53,3.79,-3.78,-3.49,-4.17,2.75,2.75,2.75
107.48,6.64,3.94,6.64,3.94,-3.93,-3.56,-4.25,2.71,2.71,2.71
108.56,6.75,4.08,6.75,4.08,-4.07,-3.63,-4.32,2.68,2.67,2.67
109.64,6.84,4.21,6.84,4.21,-4.21,-3.70,-4.39,2.63,2.63,2.63
110.74,6.92,4.33,6.92,4.34,-4.34,-3.76,-4.46,2.59,2.59,2.59
111.85,7.00,4.45,7.00,4.45,-4.45,-3.83,-4.52,2.55,2.54,2.55
112.97,7.06,4.56,7.06,4.56,-4.57,-3.90,-4.58,2.50,2.50,2.50
114.10,7.12,4.66,7.12,4.66,-4.67,-3.96,-4.64,2.45,2.46,2.46
115.24,7.17,4.76,7.17,4.75,-4.76,-4.03,-4.69,2.41,2.41,2.41
116.39,7.21,4.84,7.21,4.83,-4.83,-4.10,-4.74,2.38,2.37,2.38
117.55,7.23,4.90,7.23,4.90,-4.90,-4.17,-4.79,2.33,2.34,2.33
118.73,7.24,4.95,7.24,4.95,-4.95,-4.24,-4.82,2.29,2.30,2.29
119.92,7.24,5.00,7.24,4.99,-4.98,-4.30,-4.85,2.26,2.25,2.24
121.12,7.21,5.00,7.21,5.01,-5.00,-4.38,-4.88,2.21,2.22,2.21
122.33,7.17,5.00,7.17,5.00,-5.00,-4.45,-4.90,2.17,2.17,2.17
123.55,7.12,4.99,7.12,4.98,-4.98,-4.52,-4.91,2.14,2.13,2.13
124.79,7.05,4.95,7.05,4.95,-4.96,-4.59,-4.91,2.09,2.10,2.10
126.03,6.98,4.92,6.98,4.91,-4.92,-4.66,-4.91,2.06,2.06,2.06
127.29,6.89,4.86,6.89,4.86,-4.87,-4.73,-4.90,2.02,2.03,2.03
128.57,6.80,4.81,6.80,4.80,-4.80,-4.80,-4.88,2.00,2.00,2.00
129.85,6.70,4.74,6.70,4.74,-4.73,-4.87,-4.86,1.97,1.97,1.96
131.15,6.59,4.66,6.59,4.67,-4.65,-4.94,-4.83,1.94,1.94,1.93
132.46,6.48,4.58,6.48,4.58,-4.56,-5.00,-4.79,1.92,1.92,1.90
133.79,6.36,4.49,6.35,4.48,-4.47,-5.07,-4.75,1.89,1.88,1.87
135.12,6.22,4.38,6.22,4.38,-4.38,-5.13,-4.70,1.84,1.84,1.84
136.48,6.09,4.28,6.10,4.28,-4.29,-5.18,-4.65,1.80,1.80,1.81
137.84,5.98,4.20,5.98,4.20,-4.21,-5.24,-4.59,1.77,1.77,1.78
139.22,5.89,4.14,5.89,4.14,-4.14,-5.29,-4.53,1.75,1.74,1.75
140.61,5.81,4.09,5.81,4.09,-4.09,-5.33,-4.46,1.72,1.72,1.72
142.02,5.75,4.05,5.75,4.05,-4.05,-5.37,-4.40,1.70,1.69,1.70
143.44,5.70,4.02,5.70,4.03,-4.04,-5.40,-4.33,1.66,1.66,1.68
144.87,5.67,4.02,5.68,4.03,-4.04,-5.42,-4.25,1.63,1.64,1.65
146.32,5.67,4.06,5.67,4.05,-4.06,-5.44,-4.18,1.61,1.61,1.61
147.78,5.68,4.09,5.68,4.09,-4.09,-5.45,-4.10,1.59,1.59,1.59
149.26,5.70,4.14,5.70,4.14,-4.14,-5.45,-4.03,1.56,1.56,1.56
150.75,5.74,4.21,5.74,4.20,-4.20,-5.44,-3.95,1.54,1.54,1.54
152.26,5.78,4.27,5.78,4.28,-4.28,-5.43,-3.87,1.51,1.51,1.51
153.78,5.84,4.36,5.84,4.35,-4.36,-5.40,-3.80,1.48,1.48,1.48
155.32,5.89,4.44,5.89,4.44,-4.44,-5.37,-3.72,1.45,1.45,1.45
156.88,5.95,4.52,5.95,4.52,-4.53,-5.33,-3.64,1.42,1.43,1.43
158.44,6.02,4.61,6.02,4.61,-4.61,-5.29,-3.57,1.41,1.40,1.41
160.03,6.08,4.70,6.08,4.70,-4.70,-5.23,-3.50,1.38,1.39,1.38
161.63,6.14,4.78,6.14,4.78,-4.77,-5.17,-3.43,1.37,1.37,1.36
163.24,6.18,4.85,6.18,4.85,-4.84,-5.10,-3.36,1.34,1.34,1.33
164.88,6.21,4.90,6.21,4.91,-4.90,-5.03,-3.29,1.31,1.31,1.31
166.53,6.23,4.95,6.22,4.95,-4.94,-4.95,-3.22,1.29,1.28,1.28
168.19,6.22,4.97,6.22,4.97,-4.98,-4.87,-3.16,1.24,1.24,1.25
169.87,6.21,4.99,6.22,4.99,-5.00,-4.78,-3.10,1.21,1.21,1.22
171.57,6.20,5.01,6.20,5.01,-5.01,-4.69,-3.04,1.19,1.19,1.19
173.29,6.18,5.01,6.18,5.01,-5.01,-4.60,-2.98,1.18,1.17,1.17
175.02,6.14,5.00,6.14,5.00,-4.99,-4.50,-2.92,1.15,1.15,1.14
176.77,6.07,4.97,6.07,4.96,-4.96,-4.40,-2.87,1.11,1.11,1.10
178.54,5.99,4.91,5.99,4.92,-4.92,-4.30,-2.82,1.07,1.07,1.08
180.32,5.90,4.86,5.90,4.86,-4.86,-4.20,-2.77,1.04,1.04,1.04
182.13,5.81,4.79,5.81,4.79,-4.80,-4.10,-2.72,1.02,1.01,1.02
183.95,5.70,4.72,5.70,4.72,-4.71,-4.00,-2.67,0.99,0.99,0.98
185.79,5.58,4.63,5.58,4.62,-4.62,-3.90,-2.63,0.97,0.96,0.95
187.65,5.44,4.51,5.44,4.52,-4.51,-3.80,-2.59,0.93,0.93,0.93
189.52,5.29,4.40,5.29,4.40,-4.39,-3.69,-2.55,0.90,0.90,0.89
191.42,5.13,4.27,5.13,4.27,-4.26,-3.60,-2.51,0.87,0.86,0.86
193.33,4.96,4.13,4.96,4.13,-4.13,-3.50,-2.48,0.83,0.83,0.83
195.27,4.79,3.98,4.79,3.99,-4.00,-3.40,-2.45,0.79,0.80,0.81
197.22,4.62,3.84,4.62,3.85,-3.86,-3.31,-2.42,0.76,0.77,0.78
199.19,4.46,3.71,4.46,3.71,-3.72,-3.21,-2.39,0.74,0.74,0.75
201.18,4.29,3.59,4.29,3.58,-3.58,-3.12,-2.36,0.71,0.71,0.71
203.19,4.12,3.45,4.13,3.45,-3.44,-3.03,-2.33,0.68,0.68,0.68
205.23,3.96,3.32,3.96,3.31,-3.31,-2.94,-2.31,0.65,0.65,0.65
207.28,3.80,3.19,3.80,3.18,-3.18,-2.86,-2.28,0.62,0.61,0.62
209.35,3.63,3.04,3.64,3.05,-3.06,-2.77,-2.26,0.57,0.57,0.59
211.44,3.48,2.93,3.48,2.93,-2.94,-2.69,-2.24,0.54,0.54,0.55
213.56,3.34,2.82,3.34,2.83,-2.83,-2.61,-2.22,0.51,0.52,0.52
215.69,3.21,2.73,3.21,2.73,-2.72,-2.53,-2.20,0.49,0.49,0.48
217.85,3.07,2.63,3.07,2.62,-2.62,-2.46,-2.18,0.45,0.45,0.44
220.03,2.93,2.52,2.93,2.52,-2.52,-2.38,-2.16,0.41,0.41,0.42
222.23,2.80,2.41,2.81,2.42,-2.43,-2.31,-2.14,0.37,0.38,0.39
224.45,2.69,2.34,2.69,2.34,-2.34,-2.24,-2.12,0.35,0.35,0.35
226.70,2.59,2.27,2.59,2.27,-2.26,-2.17,-2.11,0.33,0.33,0.32
228.96,2.49,2.19,2.49,2.19,-2.19,-2.10,-2.09,0.31,0.30,0.30
231.25,2.39,2.12,2.39,2.12,-2.11,-2.04,-2.07,0.28,0.28,0.27
233.57,2.29,2.04,2.30,2.05,-2.05,-1.97,-2.05,0.25,0.25,0.25
235.90,2.21,1.98,2.21,1.98,-1.98,-1.91,-2.03,0.23,0.23,0.23
238.26,2.14,1.93,2.13,1.92,-1.93,-1.85,-2.01,0.22,0.21,0.21
240.64,2.06,1.86,2.06,1.87,-1.87,-1.79,-1.99,0.19,0.19,0.20
243.05,1.99,1.81,1.99,1.81,-1.82,-1.74,-1.97,0.17,0.18,0.18
245.48,1.93,1.76,1.93,1.77,-1.77,-1.68,-1.95,0.16,0.16,0.17
247.93,1.88,1.73,1.88,1.73,-1.72,-1.62,-1.93,0.16,0.15,0.15
250.41,1.82,1.68,1.82,1.68,-1.68,-1.57,-1.91,0.14,0.14,0.14
252.92,1.76,1.64,1.76,1.64,-1.63,-1.52,-1.89,0.13,0.13,0.12
255.45,1.69,1.58,1.69,1.59,-1.58,-1.47,-1.86,0.11,0.12,0.11
258.00,1.63,1.54,1.63,1.53,-1.53,-1.41,-1.84,0.10,0.10,0.09
260.58,1.56,1.47,1.56,1.47,-1.47,-1.36,-1.81,0.09,0.09,0.09
263.19,1.49,1.42,1.49,1.42,-1.42,-1.32,-1.78,0.07,0.07,0.08
265.82,1.42,1.36,1.42,1.36,-1.36,-1.27,-1.75,0.06,0.06,0.06
268.48,1.35,1.30,1.35,1.30,-1.31,-1.22,-1.73,0.04,0.04,0.05
271.16,1.28,1.25,1.28,1.25,-1.25,-1.17,-1.70,0.03,0.03,0.03
273.87,1.21,1.19,1.21,1.19,-1.19,-1.12,-1.67,0.02,0.02,0.02
276.61,1.14,1.13,1.14,1.13,-1.13,-1.07,-1.64,0.01,0.01,0.01
279.38,1.07,1.08,1.07,1.08,-1.07,-1.03,-1.61,0.00,0.00,-0.01
282.17,1.00,1.02,0.99,1.01,-1.01,-0.98,-1.57,-0.01,-0.01,-0.02
284.99,0.91,0.94,0.91,0.94,-0.94,-0.93,-1.54,-0.03,-0.03,-0.03
287.84,0.82,0.86,0.83,0.87,-0.87,-0.88,-1.51,-0.05,-0.04,-0.04
290.72,0.75,0.81,0.75,0.80,-0.81,-0.83,-1.48,-0.05,-0.06,-0.06
293.63,0.67,0.74,0.67,0.74,-0.73,-0.78,-1.45,-0.06,-0.07,-0.07
296.57,0.58,0.66,0.58,0.66,-0.66,-0.73,-1.42,-0.08,-0.08,-0.08
299.53,0.49,0.58,0.49,0.59,-0.59,-0.68,-1.38,-0.10,-0.10,-0.09
302.53,0.40,0.51,0.41,0.52,-0.52,-0.63,-1.35,-0.12,-0.11,-0.11
305.55,0.32,0.45,0.32,0.44,-0.44,-0.57,-1.32,-0.12,-0.12,-0.13
308.61,0.24,0.38,0.23,0.37,-0.37,-0.52,-1.29,-0.13,-0.13,-0.14
311.69,0.14,0.29,0.14,0.30,-0.29,-0.46,-1.26,-0.15,-0.15,-0.15
314.81,0.05,0.23,0.05,0.22,-0.22,-0.40,-1.23,-0.17,-0.17,-0.17
317.96,-0.04,0.15,-0.04,0.15,-0.15,-0.34,-1.20,-0.19,-0.19,-0.19
321.14,-0.12,0.09,-0.12,0.08,-0.09,-0.27,-1.17,-0.21,-0.21,-0.21
324.35,-0.20,0.02,-0.20,0.02,-0.03,-0.21,-1.14,-0.23,-0.23,-0.22
327.59,-0.28,-0.04,-0.27,-0.03,0.03,-0.14,-1.11,-0.25,-0.25,-0.24
330.87,-0.34,-0.09,-0.34,-0.08,0.08,-0.07,-1.09,-0.26,-0.26,-0.25
334.18,-0.39,-0.11,-0.39,-0.12,0.12,0.00,-1.06,-0.27,-0.27,-0.27
337.52,-0.44,-0.15,-0.44,-0.15,0.16,0.07,-1.03,-0.28,-0.28,-0.29
340.90,-0.50,-0.19,-0.49,-0.19,0.19,0.14,-1.01,-0.31,-0.30,-0.31
344.30,-0.54,-0.22,-0.54,-0.22,0.22,0.21,-0.98,-0.31,-0.32,-0.32
347.75,-0.59,-0.25,-0.59,-0.25,0.25,0.27,-0.96,-0.34,-0.34,-0.34
351.23,-0.64,-0.28,-0.64,-0.28,0.28,0.34,-0.93,-0.36,-0.36,-0.36
354.74,-0.69,-0.32,-0.68,-0.31,0.30,0.39,-0.91,-0.39,-0.38,-0.37
358.28,-0.72,-0.33,-0.72,-0.33,0.32,0.44,-0.89,-0.39,-0.40,-0.39
361.87,-0.75,-0.33,-0.75,-0.34,0.34,0.48,-0.87,-0.41,-0.41,-0.42
365.49,-0.79,-0.36,-0.79,-0.36,0.36,0.50,-0.84,-0.43,-0.43,-0.43
369.14,-0.82,-0.37,-0.82,-0.37,0.37,0.52,-0.82,-0.45,-0.45,-0.45
372.83,-0.85,-0.39,-0.85,-0.38,0.39,0.52,-0.80,-0.46,-0.46,-0.46
376.56,-0.87,-0.39,-0.87,-0.39,0.40,0.51,-0.78,-0.47,-0.47,-0.48
380.33,-0.89,-0.39,-0.89,-0.40,0.41,0.50,-0.77,-0.48,-0.49,-0.50
384.13,-0.92,-0.41,-0.92,-0.41,0.41,0.47,-0.75,-0.51,-0.51,-0.51
387.97,-0.95,-0.42,-0.94,-0.41,0.41,0.43,-0.73,-0.54,-0.53,-0.53
391.85,-0.96,-0.42,-0.96,-0.42,0.41,0.39,-0.71,-0.55,-0.55,-0.54
395.77,-0.96,-0.41,-0.96,-0.41,0.39,0.34,-0.70,-0.57,-0.57,-0.55
399.73,-0.95,-0.38,-0.94,-0.38,0.37,0.30,-0.68,-0.58,-0.58,-0.56
403.72,-0.92,-0.34,-0.92,-0.35,0.34,0.24,-0.67,-0.58,-0.58,-0.58
407.76,-0.89,-0.30,-0.89,-0.30,0.30,0.19,-0.65,-0.59,-0.59,-0.59
411.84,-0.86,-0.25,-0.86,-0.26,0.26,0.14,-0.64,-0.60,-0.60,-0.61
415.96,-0.83,-0.21,-0.83,-0.21,0.22,0.09,-0.62,-0.61,-0.61,-0.62
420.12,-0.79,-0.16,-0.79,-0.16,0.17,0.04,-0.61,-0.62,-0.62,-0.63
424.32,-0.76,-0.12,-0.76,-0.12,0.12,-0.00,-0.60,-0.64,-0.64,-0.64
428.56,-0.73,-0.08,-0.73,-0.08,0.08,-0.05,-0.59,-0.65,-0.65,-0.65
432.85,-0.70,-0.03,-0.70,-0.04,0.04,-0.09,-0.58,-0.66,-0.66,-0.67
437.18,-0.68,0.00,-0.68,-0.00,0.00,-0.13,-0.57,-0.68,-0.68,-0.68
441.55,-0.66,0.03,-0.66,0.03,-0.03,-0.17,-0.56,-0.69,-0.69,-0.69
445.96,-0.65,0.06,-0.65,0.06,-0.07,-0.20,-0.55,-0.71,-0.71,-0.71
450.42,-0.63,0.10,-0.63,0.10,-0.10,-0.24,-0.54,-0.73,-0.73,-0.73
454.93,-0.62,0.12,-0.62,0.13,-0.13,-0.27,-0.53,-0.75,-0.75,-0.74
459.48,-0.60,0.16,-0.60,0.16,-0.16,-0.30,-0.53,-0.76,-0.77,-0.76
464.07,-0.59,0.19,-0.59,0.19,-0.20,-0.33,-0.52,-0.79,-0.78,-0.78
468.71,-0.57,0.23,-0.57,0.23,-0.23,-0.36,-0.52,-0.80,-0.80,-0.80
473.40,-0.55,0.26,-0.55,0.27,-0.26,-0.38,-0.51,-0.81,-0.81,-0.81
478.13,-0.53,0.30,-0.53,0.30,-0.30,-0.41,-0.51,-0.83,-0.83,-0.83
482.91,-0.51,0.33,-0.51,0.34,-0.33,-0.44,-0.51,-0.84,-0.84,-0.84
487.74,-0.49,0.38,-0.49,0.37,-0.37,-0.46,-0.51,-0.86,-0.86,-0.86
492.62,-0.46,0.42,-0.46,0.41,-0.41,-0.49,-0.51,-0.87,-0.87,-0.87
497.55,-0.44,0.45,-0.44,0.45,-0.46,-0.51,-0.51,-0.90,-0.89,-0.88
502.52,-0.40,0.50,-0.40,0.49,-0.50,-0.54,-0.51,-0.90,-0.90,-0.90
507.55,-0.37,0.54,-0.36,0.54,-0.55,-0.56,-0.51,-0.92,-0.92,-0.91
512.62,-0.32,0.61,-0.32,0.60,-0.60,-0.58,-0.51,-0.92,-0.93,-0.93
517.75,-0.28,0.66,-0.28,0.66,-0.65,-0.61,-0.52,-0.93,-0.93,-0.94
522.93,-0.24,0.72,-0.24,0.72,-0.71,-0.63,-0.52,-0.95,-0.94,-0.96
